Feb. 28, 2018   11:24:53
Square Wave Voltammetry
File: c:\users\electrochemist\desktop\2018\28022018_unbuffered_9,2\10_e2_9,2_0118_ph5,08_1.txt
Data Source:  Experiment
Instrument Model:  CHI1040A
Header: 
Note: 

Init E (V) = 0.5
Final E (V) = -0.05
Incr E (V) = 0.001
Amplitude (V) = 0.1
Frequency (Hz) = 150
Quiet Time (sec) = 0
Sensitivity (A/V) = 1e-6

Difference:

Forward:

Reverse:
Ep = 0.163V
ip = 5.786e-8A
Ah = 5.682e-9VA

Potential/V, Diff(i/A), For(i/A), Rev(i/A)

0.499, -5.706e-7, -1.407e-7, 4.299e-7
0.498, -6.817e-7, -3.141e-7, 3.677e-7
0.497, -6.735e-7, -3.284e-7, 3.451e-7
0.496, -6.665e-7, -3.336e-7, 3.329e-7
0.495, -6.573e-7, -3.339e-7, 3.234e-7
0.494, -6.518e-7, -3.366e-7, 3.152e-7
0.493, -6.503e-7, -3.391e-7, 3.112e-7
0.492, -6.472e-7, -3.388e-7, 3.085e-7
0.491, -6.424e-7, -3.409e-7, 3.014e-7
0.490, -6.451e-7, -3.449e-7, 3.002e-7
0.489, -6.408e-7, -3.427e-7, 2.981e-7
0.488, -6.384e-7, -3.443e-7, 2.941e-7
0.487, -6.399e-7, -3.473e-7, 2.926e-7
0.486, -6.372e-7, -3.467e-7, 2.905e-7
0.485, -6.369e-7, -3.479e-7, 2.889e-7
0.484, -6.378e-7, -3.501e-7, 2.877e-7
0.483, -6.366e-7, -3.495e-7, 2.871e-7
0.482, -6.341e-7, -3.504e-7, 2.837e-7
0.481, -6.387e-7, -3.540e-7, 2.847e-7
0.480, -6.338e-7, -3.516e-7, 2.822e-7
0.479, -6.366e-7, -3.537e-7, 2.828e-7
0.478, -6.378e-7, -3.562e-7, 2.816e-7
0.477, -6.381e-7, -3.553e-7, 2.828e-7
0.476, -6.360e-7, -3.562e-7, 2.798e-7
0.475, -6.375e-7, -3.583e-7, 2.792e-7
0.474, -6.375e-7, -3.565e-7, 2.810e-7
0.473, -6.372e-7, -3.592e-7, 2.779e-7
0.472, -6.396e-7, -3.607e-7, 2.789e-7
0.471, -6.393e-7, -3.611e-7, 2.783e-7
0.470, -6.366e-7, -3.604e-7, 2.761e-7
0.469, -6.399e-7, -3.623e-7, 2.776e-7
0.468, -6.396e-7, -3.607e-7, 2.789e-7
0.467, -6.381e-7, -3.629e-7, 2.752e-7
0.466, -6.411e-7, -3.644e-7, 2.767e-7
0.465, -6.390e-7, -3.629e-7, 2.761e-7
0.464, -6.417e-7, -3.678e-7, 2.740e-7
0.463, -6.430e-7, -3.672e-7, 2.758e-7
0.462, -6.436e-7, -3.669e-7, 2.767e-7
0.461, -6.417e-7, -3.684e-7, 2.734e-7
0.460, -6.457e-7, -3.702e-7, 2.755e-7
0.459, -6.454e-7, -3.699e-7, 2.755e-7
0.458, -6.433e-7, -3.696e-7, 2.737e-7
0.457, -6.494e-7, -3.739e-7, 2.755e-7
0.456, -6.491e-7, -3.723e-7, 2.767e-7
0.455, -6.488e-7, -3.748e-7, 2.740e-7
0.454, -6.521e-7, -3.769e-7, 2.752e-7
0.453, -6.515e-7, -3.766e-7, 2.749e-7
0.452, -6.527e-7, -3.775e-7, 2.752e-7
0.451, -6.524e-7, -3.778e-7, 2.746e-7
0.450, -6.552e-7, -3.784e-7, 2.767e-7
0.449, -6.540e-7, -3.806e-7, 2.734e-7
0.448, -6.558e-7, -3.812e-7, 2.746e-7
0.447, -6.585e-7, -3.818e-7, 2.767e-7
0.446, -6.564e-7, -3.833e-7, 2.731e-7
0.445, -6.604e-7, -3.858e-7, 2.746e-7
0.444, -6.598e-7, -3.836e-7, 2.761e-7
0.443, -6.585e-7, -3.849e-7, 2.737e-7
0.442, -6.634e-7, -3.873e-7, 2.761e-7
0.441, -6.628e-7, -3.864e-7, 2.764e-7
0.440, -6.634e-7, -3.897e-7, 2.737e-7
0.439, -6.674e-7, -3.897e-7, 2.776e-7
0.438, -6.680e-7, -3.894e-7, 2.786e-7
0.437, -6.646e-7, -3.891e-7, 2.755e-7
0.436, -6.698e-7, -3.931e-7, 2.767e-7
0.435, -6.704e-7, -3.925e-7, 2.779e-7
0.434, -6.723e-7, -3.961e-7, 2.761e-7
0.433, -6.707e-7, -3.949e-7, 2.758e-7
0.432, -6.756e-7, -3.961e-7, 2.795e-7
0.431, -6.750e-7, -3.983e-7, 2.767e-7
0.430, -6.775e-7, -4.001e-7, 2.773e-7
0.429, -6.793e-7, -3.989e-7, 2.804e-7
0.428, -6.775e-7, -4.004e-7, 2.770e-7
0.427, -6.829e-7, -4.038e-7, 2.792e-7
0.426, -6.832e-7, -4.032e-7, 2.801e-7
0.425, -6.820e-7, -4.047e-7, 2.773e-7
0.424, -6.854e-7, -4.053e-7, 2.801e-7
0.423, -6.860e-7, -4.053e-7, 2.807e-7
0.422, -6.894e-7, -4.087e-7, 2.807e-7
0.421, -6.912e-7, -4.102e-7, 2.810e-7
0.420, -6.909e-7, -4.090e-7, 2.819e-7
0.419, -6.906e-7, -4.105e-7, 2.801e-7
0.418, -6.927e-7, -4.120e-7, 2.807e-7
0.417, -6.948e-7, -4.123e-7, 2.825e-7
0.416, -6.967e-7, -4.142e-7, 2.825e-7
0.415, -6.979e-7, -4.157e-7, 2.822e-7
0.414, -6.988e-7, -4.160e-7, 2.828e-7
0.413, -6.979e-7, -4.172e-7, 2.807e-7
0.412, -7.040e-7, -4.199e-7, 2.841e-7
0.411, -7.028e-7, -4.193e-7, 2.834e-7
0.410, -7.031e-7, -4.209e-7, 2.822e-7
0.409, -7.083e-7, -4.239e-7, 2.844e-7
0.408, -7.083e-7, -4.218e-7, 2.865e-7
0.407, -7.107e-7, -4.254e-7, 2.853e-7
0.406, -7.128e-7, -4.273e-7, 2.856e-7
0.405, -7.122e-7, -4.270e-7, 2.853e-7
0.404, -7.135e-7, -4.297e-7, 2.837e-7
0.403, -7.162e-7, -4.300e-7, 2.862e-7
0.402, -7.196e-7, -4.312e-7, 2.883e-7
0.401, -7.193e-7, -4.325e-7, 2.868e-7
0.400, -7.229e-7, -4.349e-7, 2.880e-7
0.399, -7.220e-7, -4.343e-7, 2.877e-7
0.398, -7.220e-7, -4.349e-7, 2.871e-7
0.397, -7.266e-7, -4.383e-7, 2.883e-7
0.396, -7.281e-7, -4.380e-7, 2.902e-7
0.395, -7.281e-7, -4.401e-7, 2.880e-7
0.394, -7.305e-7, -4.416e-7, 2.889e-7
0.393, -7.327e-7, -4.413e-7, 2.914e-7
0.392, -7.330e-7, -4.431e-7, 2.898e-7
0.391, -7.360e-7, -4.447e-7, 2.914e-7
0.390, -7.379e-7, -4.453e-7, 2.926e-7
0.389, -7.400e-7, -4.471e-7, 2.929e-7
0.388, -7.437e-7, -4.505e-7, 2.932e-7
0.387, -7.431e-7, -4.499e-7, 2.932e-7
0.386, -7.437e-7, -4.523e-7, 2.914e-7
0.385, -7.461e-7, -4.532e-7, 2.929e-7
0.384, -7.458e-7, -4.508e-7, 2.950e-7
0.383, -7.486e-7, -4.557e-7, 2.929e-7
0.382, -7.522e-7, -4.572e-7, 2.950e-7
0.381, -7.544e-7, -4.578e-7, 2.966e-7
0.380, -7.553e-7, -4.599e-7, 2.953e-7
0.379, -7.598e-7, -4.621e-7, 2.978e-7
0.378, -7.586e-7, -4.602e-7, 2.984e-7
0.377, -7.608e-7, -4.648e-7, 2.960e-7
0.376, -7.635e-7, -4.657e-7, 2.978e-7
0.375, -7.638e-7, -4.642e-7, 2.996e-7
0.374, -7.647e-7, -4.666e-7, 2.981e-7
0.373, -7.699e-7, -4.703e-7, 2.996e-7
0.372, -7.693e-7, -4.694e-7, 2.999e-7
0.371, -7.696e-7, -4.706e-7, 2.990e-7
0.370, -7.733e-7, -4.715e-7, 3.018e-7
0.369, -7.754e-7, -4.746e-7, 3.008e-7
0.368, -7.757e-7, -4.752e-7, 3.005e-7
0.367, -7.794e-7, -4.770e-7, 3.024e-7
0.366, -7.815e-7, -4.782e-7, 3.033e-7
0.365, -7.824e-7, -4.791e-7, 3.033e-7
0.364, -7.843e-7, -4.810e-7, 3.033e-7
0.363, -7.858e-7, -4.810e-7, 3.048e-7
0.362, -7.870e-7, -4.843e-7, 3.027e-7
0.361, -7.897e-7, -4.846e-7, 3.051e-7
0.360, -7.904e-7, -4.840e-7, 3.063e-7
0.359, -7.928e-7, -4.871e-7, 3.057e-7
0.358, -7.965e-7, -4.889e-7, 3.075e-7
0.357, -7.983e-7, -4.898e-7, 3.085e-7
0.356, -7.986e-7, -4.923e-7, 3.063e-7
0.355, -8.050e-7, -4.956e-7, 3.094e-7
0.354, -8.029e-7, -4.932e-7, 3.097e-7
0.353, -8.074e-7, -4.978e-7, 3.097e-7
0.352, -8.090e-7, -4.987e-7, 3.103e-7
0.351, -8.096e-7, -4.981e-7, 3.115e-7
0.350, -8.090e-7, -4.993e-7, 3.097e-7
0.349, -8.139e-7, -5.020e-7, 3.118e-7
0.348, -8.166e-7, -5.023e-7, 3.143e-7
0.347, -8.178e-7, -5.054e-7, 3.124e-7
0.346, -8.212e-7, -5.075e-7, 3.137e-7
0.345, -8.239e-7, -5.072e-7, 3.167e-7
0.344, -8.233e-7, -5.084e-7, 3.149e-7
0.343, -8.264e-7, -5.100e-7, 3.164e-7
0.342, -8.276e-7, -5.103e-7, 3.173e-7
0.341, -8.288e-7, -5.127e-7, 3.161e-7
0.340, -8.328e-7, -5.145e-7, 3.182e-7
0.339, -8.322e-7, -5.145e-7, 3.176e-7
0.338, -8.358e-7, -5.182e-7, 3.176e-7
0.337, -8.389e-7, -5.191e-7, 3.198e-7
0.336, -8.389e-7, -5.185e-7, 3.204e-7
0.335, -8.407e-7, -5.210e-7, 3.198e-7
0.334, -8.450e-7, -5.240e-7, 3.210e-7
0.333, -8.453e-7, -5.228e-7, 3.225e-7
0.332, -8.468e-7, -5.258e-7, 3.210e-7
0.331, -8.493e-7, -5.261e-7, 3.231e-7
0.330, -8.508e-7, -5.258e-7, 3.249e-7
0.329, -8.532e-7, -5.295e-7, 3.237e-7
0.328, -8.578e-7, -5.307e-7, 3.271e-7
0.327, -8.566e-7, -5.307e-7, 3.259e-7
0.326, -8.599e-7, -5.338e-7, 3.262e-7
0.325, -8.615e-7, -5.347e-7, 3.268e-7
0.324, -8.627e-7, -5.350e-7, 3.277e-7
0.323, -8.657e-7, -5.374e-7, 3.283e-7
0.322, -8.682e-7, -5.393e-7, 3.289e-7
0.321, -8.685e-7, -5.393e-7, 3.292e-7
0.320, -8.706e-7, -5.408e-7, 3.298e-7
0.319, -8.755e-7, -5.438e-7, 3.317e-7
0.318, -8.746e-7, -5.426e-7, 3.320e-7
0.317, -8.779e-7, -5.460e-7, 3.320e-7
0.316, -8.792e-7, -5.466e-7, 3.326e-7
0.315, -8.813e-7, -5.466e-7, 3.347e-7
0.314, -8.831e-7, -5.490e-7, 3.341e-7
0.313, -8.850e-7, -5.496e-7, 3.353e-7
0.312, -8.862e-7, -5.506e-7, 3.356e-7
0.311, -8.862e-7, -5.515e-7, 3.347e-7
0.310, -8.898e-7, -5.539e-7, 3.359e-7
0.309, -8.920e-7, -5.536e-7, 3.384e-7
0.308, -8.935e-7, -5.564e-7, 3.371e-7
0.307, -8.947e-7, -5.564e-7, 3.384e-7
0.306, -8.969e-7, -5.573e-7, 3.396e-7
0.305, -9.011e-7, -5.603e-7, 3.408e-7
0.304, -9.014e-7, -5.600e-7, 3.414e-7
0.303, -9.045e-7, -5.622e-7, 3.423e-7
0.302, -9.036e-7, -5.622e-7, 3.414e-7
0.301, -9.082e-7, -5.652e-7, 3.429e-7
0.300, -9.069e-7, -5.640e-7, 3.429e-7
0.299, -9.106e-7, -5.667e-7, 3.439e-7
0.298, -9.152e-7, -5.686e-7, 3.466e-7
0.297, -9.146e-7, -5.676e-7, 3.469e-7
0.296, -9.149e-7, -5.698e-7, 3.451e-7
0.295, -9.191e-7, -5.713e-7, 3.478e-7
0.294, -9.201e-7, -5.716e-7, 3.484e-7
0.293, -9.207e-7, -5.725e-7, 3.481e-7
0.292, -9.231e-7, -5.728e-7, 3.503e-7
0.291, -9.222e-7, -5.722e-7, 3.500e-7
0.290, -9.255e-7, -5.768e-7, 3.487e-7
0.289, -9.280e-7, -5.771e-7, 3.509e-7
0.288, -9.301e-7, -5.771e-7, 3.530e-7
0.287, -9.304e-7, -5.789e-7, 3.515e-7
0.286, -9.350e-7, -5.808e-7, 3.542e-7
0.285, -9.350e-7, -5.808e-7, 3.542e-7
0.284, -9.374e-7, -5.823e-7, 3.552e-7
0.283, -9.387e-7, -5.829e-7, 3.558e-7
0.282, -9.381e-7, -5.820e-7, 3.561e-7
0.281, -9.405e-7, -5.838e-7, 3.567e-7
0.280, -9.448e-7, -5.860e-7, 3.588e-7
0.279, -9.445e-7, -5.850e-7, 3.594e-7
0.278, -9.469e-7, -5.866e-7, 3.603e-7
0.277, -9.478e-7, -5.881e-7, 3.597e-7
0.276, -9.490e-7, -5.866e-7, 3.625e-7
0.275, -9.515e-7, -5.905e-7, 3.610e-7
0.274, -9.518e-7, -5.899e-7, 3.619e-7
0.273, -9.533e-7, -5.902e-7, 3.631e-7
0.272, -9.551e-7, -5.914e-7, 3.637e-7
0.271, -9.570e-7, -5.924e-7, 3.646e-7
0.270, -9.567e-7, -5.918e-7, 3.649e-7
0.269, -9.579e-7, -5.936e-7, 3.643e-7
0.268, -9.625e-7, -5.936e-7, 3.689e-7
0.267, -9.606e-7, -5.942e-7, 3.664e-7
0.266, -9.631e-7, -5.963e-7, 3.667e-7
0.265, -9.649e-7, -5.957e-7, 3.692e-7
0.264, -9.643e-7, -5.948e-7, 3.695e-7
0.263, -9.683e-7, -5.988e-7, 3.695e-7
0.262, -9.683e-7, -5.979e-7, 3.704e-7
0.261, -9.707e-7, -5.969e-7, 3.738e-7
0.260, -9.695e-7, -5.979e-7, 3.716e-7
0.259, -9.722e-7, -5.988e-7, 3.735e-7
0.258, -9.722e-7, -5.988e-7, 3.735e-7
0.257, -9.731e-7, -6.003e-7, 3.729e-7
0.256, -9.765e-7, -5.997e-7, 3.768e-7
0.255, -9.768e-7, -6.006e-7, 3.762e-7
0.254, -9.753e-7, -6.003e-7, 3.750e-7
0.253, -9.799e-7, -6.021e-7, 3.777e-7
0.252, -9.799e-7, -6.009e-7, 3.790e-7
0.251, -9.802e-7, -6.021e-7, 3.780e-7
0.250, -9.820e-7, -6.024e-7, 3.796e-7
0.249, -9.817e-7, -6.024e-7, 3.793e-7
0.248, -9.844e-7, -6.033e-7, 3.811e-7
0.247, -9.866e-7, -6.046e-7, 3.820e-7
0.246, -9.847e-7, -6.033e-7, 3.814e-7
0.245, -9.847e-7, -6.037e-7, 3.811e-7
0.244, -9.878e-7, -6.043e-7, 3.835e-7
0.243, -9.887e-7, -6.033e-7, 3.854e-7
0.242, -9.918e-7, -6.061e-7, 3.857e-7
0.241, -9.908e-7, -6.052e-7, 3.857e-7
0.240, -9.899e-7, -6.040e-7, 3.860e-7
0.239, -9.915e-7, -6.055e-7, 3.860e-7
0.238, -9.921e-7, -6.040e-7, 3.881e-7
0.237, -9.948e-7, -6.058e-7, 3.890e-7
0.236, -9.936e-7, -6.046e-7, 3.890e-7
0.235, -9.948e-7, -6.052e-7, 3.896e-7
0.234, -9.930e-7, -6.033e-7, 3.896e-7
0.233, -9.957e-7, -6.052e-7, 3.905e-7
0.232, -9.979e-7, -6.055e-7, 3.924e-7
0.231, -9.966e-7, -6.043e-7, 3.924e-7
0.230, -9.966e-7, -6.046e-7, 3.921e-7
0.229, -9.991e-7, -6.061e-7, 3.930e-7
0.228, -9.979e-7, -6.033e-7, 3.945e-7
0.227, -9.979e-7, -6.040e-7, 3.939e-7
0.226, -1.001e-6, -6.046e-7, 3.963e-7
0.225, -1.000e-6, -6.037e-7, 3.963e-7
0.224, -9.985e-7, -6.040e-7, 3.945e-7
0.223, -1.002e-6, -6.046e-7, 3.979e-7
0.222, -1.000e-6, -6.021e-7, 3.979e-7
0.221, -1.000e-6, -6.030e-7, 3.973e-7
0.220, -1.004e-6, -6.040e-7, 3.997e-7
0.219, -1.001e-6, -6.018e-7, 3.994e-7
0.218, -1.002e-6, -6.030e-7, 3.988e-7
0.217, -1.001e-6, -6.018e-7, 3.988e-7
0.216, -9.997e-7, -5.997e-7, 4.000e-7
0.215, -1.001e-6, -6.006e-7, 4.003e-7
0.214, -1.002e-6, -6.003e-7, 4.015e-7
0.213, -1.001e-6, -5.991e-7, 4.018e-7
0.212, -1.000e-6, -5.988e-7, 4.012e-7
0.211, -1.002e-6, -5.988e-7, 4.034e-7
0.210, -1.002e-6, -5.982e-7, 4.034e-7
0.209, -1.002e-6, -5.979e-7, 4.046e-7
0.208, -1.001e-6, -5.960e-7, 4.049e-7
0.207, -1.001e-6, -5.948e-7, 4.058e-7
0.206, -1.002e-6, -5.966e-7, 4.055e-7
0.205, -1.002e-6, -5.957e-7, 4.064e-7
0.204, -1.002e-6, -5.942e-7, 4.076e-7
0.203, -1.000e-6, -5.951e-7, 4.052e-7
0.202, -1.000e-6, -5.930e-7, 4.070e-7
0.201, -1.001e-6, -5.930e-7, 4.076e-7
0.200, -9.985e-7, -5.924e-7, 4.061e-7
0.199, -9.988e-7, -5.911e-7, 4.076e-7
0.198, -9.970e-7, -5.887e-7, 4.082e-7
0.197, -9.985e-7, -5.890e-7, 4.095e-7
0.196, -9.985e-7, -5.887e-7, 4.098e-7
0.195, -9.973e-7, -5.881e-7, 4.092e-7
0.194, -9.976e-7, -5.884e-7, 4.092e-7
0.193, -9.985e-7, -5.884e-7, 4.101e-7
0.192, -9.966e-7, -5.853e-7, 4.113e-7
0.191, -9.960e-7, -5.857e-7, 4.104e-7
0.190, -9.957e-7, -5.853e-7, 4.104e-7
0.189, -9.912e-7, -5.814e-7, 4.098e-7
0.188, -9.939e-7, -5.832e-7, 4.107e-7
0.187, -9.930e-7, -5.811e-7, 4.119e-7
0.186, -9.896e-7, -5.795e-7, 4.101e-7
0.185, -9.933e-7, -5.814e-7, 4.119e-7
0.184, -9.921e-7, -5.792e-7, 4.128e-7
0.183, -9.915e-7, -5.771e-7, 4.144e-7
0.182, -9.915e-7, -5.786e-7, 4.128e-7
0.181, -9.884e-7, -5.762e-7, 4.122e-7
0.180, -9.866e-7, -5.747e-7, 4.119e-7
0.179, -9.875e-7, -5.744e-7, 4.131e-7
0.178, -9.866e-7, -5.731e-7, 4.134e-7
0.177, -9.854e-7, -5.713e-7, 4.140e-7
0.176, -9.869e-7, -5.722e-7, 4.147e-7
0.175, -9.832e-7, -5.701e-7, 4.131e-7
0.174, -9.820e-7, -5.680e-7, 4.140e-7
0.173, -9.814e-7, -5.680e-7, 4.134e-7
0.172, -9.808e-7, -5.670e-7, 4.137e-7
0.171, -9.802e-7, -5.661e-7, 4.140e-7
0.170, -9.780e-7, -5.652e-7, 4.128e-7
0.169, -9.768e-7, -5.634e-7, 4.134e-7
0.168, -9.753e-7, -5.625e-7, 4.128e-7
0.167, -9.753e-7, -5.612e-7, 4.140e-7
0.166, -9.762e-7, -5.612e-7, 4.150e-7
0.165, -9.738e-7, -5.588e-7, 4.150e-7
0.164, -9.731e-7, -5.600e-7, 4.131e-7
0.163, -9.738e-7, -5.582e-7, 4.156e-7
0.162, -9.704e-7, -5.567e-7, 4.137e-7
0.161, -9.692e-7, -5.545e-7, 4.147e-7
0.160, -9.686e-7, -5.542e-7, 4.144e-7
0.159, -9.649e-7, -5.509e-7, 4.140e-7
0.158, -9.658e-7, -5.527e-7, 4.131e-7
0.157, -9.652e-7, -5.512e-7, 4.140e-7
0.156, -9.619e-7, -5.493e-7, 4.125e-7
0.155, -9.609e-7, -5.484e-7, 4.125e-7
0.154, -9.609e-7, -5.478e-7, 4.131e-7
0.153, -9.576e-7, -5.448e-7, 4.128e-7
0.152, -9.555e-7, -5.445e-7, 4.110e-7
0.151, -9.564e-7, -5.445e-7, 4.119e-7
0.150, -9.558e-7, -5.423e-7, 4.134e-7
0.149, -9.536e-7, -5.417e-7, 4.119e-7
0.148, -9.524e-7, -5.396e-7, 4.128e-7
0.147, -9.493e-7, -5.380e-7, 4.113e-7
0.146, -9.500e-7, -5.377e-7, 4.122e-7
0.145, -9.463e-7, -5.353e-7, 4.110e-7
0.144, -9.475e-7, -5.356e-7, 4.119e-7
0.143, -9.448e-7, -5.353e-7, 4.095e-7
0.142, -9.429e-7, -5.316e-7, 4.113e-7
0.141, -9.417e-7, -5.310e-7, 4.107e-7
0.140, -9.414e-7, -5.326e-7, 4.089e-7
0.139, -9.393e-7, -5.298e-7, 4.095e-7
0.138, -9.390e-7, -5.292e-7, 4.098e-7
0.137, -9.350e-7, -5.277e-7, 4.073e-7
0.136, -9.335e-7, -5.258e-7, 4.076e-7
0.135, -9.320e-7, -5.252e-7, 4.067e-7
0.134, -9.307e-7, -5.249e-7, 4.058e-7
0.133, -9.313e-7, -5.237e-7, 4.076e-7
0.132, -9.286e-7, -5.207e-7, 4.079e-7
0.131, -9.240e-7, -5.194e-7, 4.046e-7
0.130, -9.246e-7, -5.185e-7, 4.061e-7
0.129, -9.234e-7, -5.182e-7, 4.052e-7
0.128, -9.201e-7, -5.155e-7, 4.046e-7
0.127, -9.182e-7, -5.152e-7, 4.031e-7
0.126, -9.182e-7, -5.146e-7, 4.037e-7
0.125, -9.158e-7, -5.133e-7, 4.025e-7
0.124, -9.143e-7, -5.118e-7, 4.025e-7
0.123, -9.121e-7, -5.106e-7, 4.015e-7
0.122, -9.097e-7, -5.103e-7, 3.994e-7
0.121, -9.106e-7, -5.091e-7, 4.015e-7
0.120, -9.085e-7, -5.078e-7, 4.006e-7
0.119, -9.072e-7, -5.078e-7, 3.994e-7
0.118, -9.063e-7, -5.063e-7, 4.000e-7
0.117, -9.030e-7, -5.045e-7, 3.985e-7
0.116, -9.030e-7, -5.045e-7, 3.985e-7
0.115, -9.017e-7, -5.030e-7, 3.988e-7
0.114, -8.987e-7, -5.011e-7, 3.976e-7
0.113, -8.978e-7, -5.008e-7, 3.970e-7
0.112, -8.969e-7, -5.002e-7, 3.967e-7
0.111, -8.935e-7, -4.975e-7, 3.960e-7
0.110, -8.923e-7, -4.978e-7, 3.945e-7
0.109, -8.905e-7, -4.975e-7, 3.930e-7
0.108, -8.883e-7, -4.950e-7, 3.933e-7
0.107, -8.865e-7, -4.944e-7, 3.921e-7
0.106, -8.865e-7, -4.938e-7, 3.927e-7
0.105, -8.828e-7, -4.914e-7, 3.915e-7
0.104, -8.825e-7, -4.917e-7, 3.909e-7
0.103, -8.828e-7, -4.920e-7, 3.909e-7
0.102, -8.789e-7, -4.892e-7, 3.896e-7
0.101, -8.782e-7, -4.895e-7, 3.887e-7
0.100, -8.758e-7, -4.883e-7, 3.875e-7
0.099, -8.737e-7, -4.862e-7, 3.875e-7
0.098, -8.709e-7, -4.853e-7, 3.857e-7
0.097, -8.706e-7, -4.859e-7, 3.848e-7
0.096, -8.697e-7, -4.843e-7, 3.854e-7
0.095, -8.697e-7, -4.850e-7, 3.848e-7
0.094, -8.666e-7, -4.825e-7, 3.841e-7
0.093, -8.645e-7, -4.816e-7, 3.829e-7
0.092, -8.636e-7, -4.813e-7, 3.823e-7
0.091, -8.630e-7, -4.810e-7, 3.820e-7
0.090, -8.590e-7, -4.773e-7, 3.817e-7
0.089, -8.584e-7, -4.782e-7, 3.802e-7
0.088, -8.563e-7, -4.776e-7, 3.786e-7
0.087, -8.551e-7, -4.761e-7, 3.790e-7
0.086, -8.538e-7, -4.764e-7, 3.774e-7
0.085, -8.529e-7, -4.743e-7, 3.786e-7
0.084, -8.480e-7, -4.727e-7, 3.753e-7
0.083, -8.480e-7, -4.724e-7, 3.756e-7
0.082, -8.486e-7, -4.734e-7, 3.753e-7
0.081, -8.447e-7, -4.715e-7, 3.732e-7
0.080, -8.447e-7, -4.709e-7, 3.738e-7
0.079, -8.404e-7, -4.700e-7, 3.704e-7
0.078, -8.407e-7, -4.688e-7, 3.719e-7
0.077, -8.383e-7, -4.679e-7, 3.704e-7
0.076, -8.383e-7, -4.676e-7, 3.707e-7
0.075, -8.361e-7, -4.673e-7, 3.689e-7
0.074, -8.334e-7, -4.654e-7, 3.680e-7
0.073, -8.331e-7, -4.651e-7, 3.680e-7
0.072, -8.300e-7, -4.642e-7, 3.658e-7
0.071, -8.276e-7, -4.630e-7, 3.646e-7
0.070, -8.276e-7, -4.633e-7, 3.643e-7
0.069, -8.264e-7, -4.618e-7, 3.646e-7
0.068, -8.264e-7, -4.633e-7, 3.631e-7
0.067, -8.239e-7, -4.608e-7, 3.631e-7
0.066, -8.218e-7, -4.599e-7, 3.619e-7
0.065, -8.209e-7, -4.602e-7, 3.606e-7
0.064, -8.187e-7, -4.590e-7, 3.597e-7
0.063, -8.184e-7, -4.584e-7, 3.600e-7
0.062, -8.190e-7, -4.584e-7, 3.606e-7
0.061, -8.172e-7, -4.578e-7, 3.594e-7
0.060, -8.132e-7, -4.566e-7, 3.567e-7
0.059, -8.136e-7, -4.575e-7, 3.561e-7
0.058, -8.126e-7, -4.563e-7, 3.564e-7
0.057, -8.120e-7, -4.560e-7, 3.561e-7
0.056, -8.102e-7, -4.550e-7, 3.551e-7
0.055, -8.068e-7, -4.535e-7, 3.533e-7
0.054, -8.065e-7, -4.526e-7, 3.539e-7
0.053, -8.056e-7, -4.529e-7, 3.527e-7
0.052, -8.041e-7, -4.520e-7, 3.521e-7
0.051, -8.026e-7, -4.514e-7, 3.512e-7
0.050, -8.010e-7, -4.508e-7, 3.503e-7
0.049, -7.989e-7, -4.499e-7, 3.490e-7
0.048, -7.962e-7, -4.477e-7, 3.484e-7
0.047, -7.974e-7, -4.496e-7, 3.478e-7
0.046, -7.977e-7, -4.492e-7, 3.484e-7
0.045, -7.943e-7, -4.477e-7, 3.466e-7
0.044, -7.925e-7, -4.474e-7, 3.451e-7
0.043, -7.922e-7, -4.477e-7, 3.445e-7
0.042, -7.916e-7, -4.462e-7, 3.454e-7
0.041, -7.897e-7, -4.453e-7, 3.445e-7
0.040, -7.901e-7, -4.453e-7, 3.448e-7
0.039, -7.873e-7, -4.450e-7, 3.423e-7
0.038, -7.861e-7, -4.444e-7, 3.417e-7
0.037, -7.858e-7, -4.441e-7, 3.417e-7
0.036, -7.833e-7, -4.425e-7, 3.408e-7
0.035, -7.815e-7, -4.419e-7, 3.396e-7
0.034, -7.821e-7, -4.416e-7, 3.405e-7
0.033, -7.788e-7, -4.410e-7, 3.378e-7
0.032, -7.775e-7, -4.398e-7, 3.378e-7
0.031, -7.791e-7, -4.413e-7, 3.378e-7
0.030, -7.772e-7, -4.410e-7, 3.362e-7
0.029, -7.751e-7, -4.398e-7, 3.353e-7
0.028, -7.772e-7, -4.413e-7, 3.359e-7
0.027, -7.748e-7, -4.395e-7, 3.353e-7
0.026, -7.736e-7, -4.392e-7, 3.344e-7
0.025, -7.724e-7, -4.377e-7, 3.347e-7
0.024, -7.687e-7, -4.367e-7, 3.320e-7
0.023, -7.699e-7, -4.364e-7, 3.335e-7
0.022, -7.669e-7, -4.358e-7, 3.310e-7
0.021, -7.684e-7, -4.361e-7, 3.323e-7
0.020, -7.678e-7, -4.364e-7, 3.313e-7
0.019, -7.653e-7, -4.361e-7, 3.292e-7
0.018, -7.669e-7, -4.355e-7, 3.313e-7
0.017, -7.629e-7, -4.340e-7, 3.289e-7
0.016, -7.629e-7, -4.343e-7, 3.286e-7
0.015, -7.617e-7, -4.337e-7, 3.280e-7
0.014, -7.595e-7, -4.328e-7, 3.268e-7
0.013, -7.598e-7, -4.328e-7, 3.271e-7
0.012, -7.595e-7, -4.325e-7, 3.271e-7
0.011, -7.565e-7, -4.312e-7, 3.252e-7
0.010, -7.571e-7, -4.306e-7, 3.265e-7
0.009, -7.547e-7, -4.303e-7, 3.243e-7
0.008, -7.540e-7, -4.306e-7, 3.234e-7
0.007, -7.550e-7, -4.303e-7, 3.246e-7
0.006, -7.525e-7, -4.294e-7, 3.231e-7
0.005, -7.519e-7, -4.294e-7, 3.225e-7
0.004, -7.522e-7, -4.294e-7, 3.228e-7
0.003, -7.492e-7, -4.270e-7, 3.222e-7
0.002, -7.516e-7, -4.291e-7, 3.225e-7
0.001, -7.495e-7, -4.273e-7, 3.222e-7
-0.000, -7.495e-7, -4.273e-7, 3.222e-7
-0.001, -7.473e-7, -4.273e-7, 3.201e-7
-0.002, -7.479e-7, -4.261e-7, 3.219e-7
-0.003, -7.470e-7, -4.267e-7, 3.204e-7
-0.004, -7.443e-7, -4.251e-7, 3.191e-7
-0.005, -7.458e-7, -4.248e-7, 3.210e-7
-0.006, -7.452e-7, -4.245e-7, 3.207e-7
-0.007, -7.443e-7, -4.254e-7, 3.188e-7
-0.008, -7.428e-7, -4.239e-7, 3.188e-7
-0.009, -7.409e-7, -4.233e-7, 3.176e-7
-0.010, -7.409e-7, -4.233e-7, 3.176e-7
-0.011, -7.415e-7, -4.236e-7, 3.179e-7
-0.012, -7.385e-7, -4.218e-7, 3.167e-7
-0.013, -7.394e-7, -4.227e-7, 3.167e-7
-0.014, -7.370e-7, -4.209e-7, 3.161e-7
-0.015, -7.370e-7, -4.206e-7, 3.164e-7
-0.016, -7.354e-7, -4.206e-7, 3.149e-7
-0.017, -7.351e-7, -4.193e-7, 3.158e-7
-0.018, -7.348e-7, -4.193e-7, 3.155e-7
-0.019, -7.336e-7, -4.190e-7, 3.146e-7
-0.020, -7.345e-7, -4.193e-7, 3.152e-7
-0.021, -7.318e-7, -4.184e-7, 3.133e-7
-0.022, -7.327e-7, -4.193e-7, 3.133e-7
-0.023, -7.318e-7, -4.178e-7, 3.140e-7
-0.024, -7.312e-7, -4.178e-7, 3.133e-7
-0.025, -7.299e-7, -4.169e-7, 3.130e-7
-0.026, -7.290e-7, -4.163e-7, 3.127e-7
-0.027, -7.290e-7, -4.160e-7, 3.130e-7
-0.028, -7.296e-7, -4.175e-7, 3.121e-7
-0.029, -7.266e-7, -4.157e-7, 3.109e-7
-0.030, -7.269e-7, -4.163e-7, 3.106e-7
-0.031, -7.257e-7, -4.148e-7, 3.109e-7
-0.032, -7.263e-7, -4.154e-7, 3.109e-7
-0.033, -7.254e-7, -4.145e-7, 3.109e-7
-0.034, -7.251e-7, -4.148e-7, 3.103e-7
-0.035, -7.251e-7, -4.142e-7, 3.109e-7
-0.036, -7.232e-7, -4.126e-7, 3.106e-7
-0.037, -7.229e-7, -4.135e-7, 3.094e-7
-0.038, -7.232e-7, -4.126e-7, 3.106e-7
-0.039, -7.229e-7, -4.126e-7, 3.103e-7
-0.040, -7.211e-7, -4.117e-7, 3.094e-7
-0.041, -7.199e-7, -4.111e-7, 3.088e-7
-0.042, -7.208e-7, -4.108e-7, 3.100e-7
-0.043, -7.177e-7, -4.099e-7, 3.078e-7
-0.044, -7.202e-7, -4.105e-7, 3.097e-7
-0.045, -7.165e-7, -4.090e-7, 3.075e-7
-0.046, -7.159e-7, -4.087e-7, 3.072e-7
-0.047, -7.183e-7, -4.099e-7, 3.085e-7
-0.048, -7.162e-7, -4.087e-7, 3.075e-7
-0.049, -7.177e-7, -4.087e-7, 3.091e-7
-0.050, -7.147e-7, -4.071e-7, 3.075e-7
