Feb. 28, 2018   11:26:02
Square Wave Voltammetry
File: c:\users\electrochemist\desktop\2018\28022018_unbuffered_9,2\11_e5_9,2_0118_ph5,08_1.txt
Data Source:  Experiment
Instrument Model:  CHI1040A
Header: 
Note: 

Init E (V) = 0.5
Final E (V) = -0.05
Incr E (V) = 0.001
Amplitude (V) = 0.1
Frequency (Hz) = 150
Quiet Time (sec) = 0
Sensitivity (A/V) = 1e-6

Difference:
Ep = 0.187V
ip = -2.633e-7A
Ap = -5.879e-8VA

Forward:

Reverse:

Potential/V, Diff(i/A), For(i/A), Rev(i/A)

0.499, -6.842e-7, -1.920e-7, 4.922e-7
0.498, -8.459e-7, -4.084e-7, 4.375e-7
0.497, -8.459e-7, -4.239e-7, 4.220e-7
0.496, -8.432e-7, -4.270e-7, 4.162e-7
0.495, -8.401e-7, -4.291e-7, 4.110e-7
0.494, -8.389e-7, -4.315e-7, 4.073e-7
0.493, -8.361e-7, -4.306e-7, 4.055e-7
0.492, -8.352e-7, -4.331e-7, 4.021e-7
0.491, -8.316e-7, -4.318e-7, 3.997e-7
0.490, -8.325e-7, -4.337e-7, 3.988e-7
0.489, -8.300e-7, -4.337e-7, 3.964e-7
0.488, -8.285e-7, -4.349e-7, 3.936e-7
0.487, -8.294e-7, -4.346e-7, 3.948e-7
0.486, -8.285e-7, -4.340e-7, 3.945e-7
0.485, -8.291e-7, -4.364e-7, 3.927e-7
0.484, -8.273e-7, -4.355e-7, 3.918e-7
0.483, -8.261e-7, -4.349e-7, 3.912e-7
0.482, -8.273e-7, -4.383e-7, 3.890e-7
0.481, -8.267e-7, -4.361e-7, 3.906e-7
0.480, -8.245e-7, -4.367e-7, 3.878e-7
0.479, -8.279e-7, -4.392e-7, 3.887e-7
0.478, -8.267e-7, -4.370e-7, 3.896e-7
0.477, -8.255e-7, -4.380e-7, 3.875e-7
0.476, -8.258e-7, -4.401e-7, 3.857e-7
0.475, -8.261e-7, -4.389e-7, 3.872e-7
0.474, -8.251e-7, -4.392e-7, 3.860e-7
0.473, -8.255e-7, -4.413e-7, 3.841e-7
0.472, -8.264e-7, -4.401e-7, 3.863e-7
0.471, -8.248e-7, -4.401e-7, 3.848e-7
0.470, -8.267e-7, -4.431e-7, 3.835e-7
0.469, -8.264e-7, -4.416e-7, 3.848e-7
0.468, -8.239e-7, -4.413e-7, 3.826e-7
0.467, -8.273e-7, -4.428e-7, 3.844e-7
0.466, -8.291e-7, -4.438e-7, 3.854e-7
0.465, -8.255e-7, -4.419e-7, 3.835e-7
0.464, -8.258e-7, -4.434e-7, 3.823e-7
0.463, -8.276e-7, -4.431e-7, 3.844e-7
0.462, -8.251e-7, -4.434e-7, 3.817e-7
0.461, -8.282e-7, -4.456e-7, 3.826e-7
0.460, -8.300e-7, -4.453e-7, 3.848e-7
0.459, -8.291e-7, -4.462e-7, 3.829e-7
0.458, -8.276e-7, -4.465e-7, 3.811e-7
0.457, -8.309e-7, -4.471e-7, 3.838e-7
0.456, -8.288e-7, -4.459e-7, 3.829e-7
0.455, -8.300e-7, -4.489e-7, 3.811e-7
0.454, -8.313e-7, -4.480e-7, 3.832e-7
0.453, -8.285e-7, -4.459e-7, 3.826e-7
0.452, -8.309e-7, -4.499e-7, 3.811e-7
0.451, -8.309e-7, -4.495e-7, 3.814e-7
0.450, -8.316e-7, -4.505e-7, 3.811e-7
0.449, -8.325e-7, -4.514e-7, 3.811e-7
0.448, -8.319e-7, -4.502e-7, 3.817e-7
0.447, -8.322e-7, -4.511e-7, 3.811e-7
0.446, -8.343e-7, -4.529e-7, 3.814e-7
0.445, -8.346e-7, -4.517e-7, 3.829e-7
0.444, -8.331e-7, -4.520e-7, 3.811e-7
0.443, -8.340e-7, -4.535e-7, 3.805e-7
0.442, -8.343e-7, -4.523e-7, 3.820e-7
0.441, -8.349e-7, -4.532e-7, 3.817e-7
0.440, -8.358e-7, -4.557e-7, 3.802e-7
0.439, -8.383e-7, -4.563e-7, 3.820e-7
0.438, -8.361e-7, -4.550e-7, 3.811e-7
0.437, -8.398e-7, -4.581e-7, 3.817e-7
0.436, -8.398e-7, -4.569e-7, 3.829e-7
0.435, -8.367e-7, -4.563e-7, 3.805e-7
0.434, -8.395e-7, -4.578e-7, 3.817e-7
0.433, -8.413e-7, -4.584e-7, 3.829e-7
0.432, -8.401e-7, -4.590e-7, 3.811e-7
0.431, -8.438e-7, -4.614e-7, 3.823e-7
0.430, -8.425e-7, -4.602e-7, 3.823e-7
0.429, -8.453e-7, -4.627e-7, 3.826e-7
0.428, -8.422e-7, -4.614e-7, 3.808e-7
0.427, -8.468e-7, -4.636e-7, 3.832e-7
0.426, -8.450e-7, -4.627e-7, 3.823e-7
0.425, -8.462e-7, -4.639e-7, 3.823e-7
0.424, -8.471e-7, -4.639e-7, 3.832e-7
0.423, -8.462e-7, -4.651e-7, 3.811e-7
0.422, -8.483e-7, -4.672e-7, 3.811e-7
0.421, -8.505e-7, -4.669e-7, 3.835e-7
0.420, -8.523e-7, -4.685e-7, 3.838e-7
0.419, -8.520e-7, -4.700e-7, 3.820e-7
0.418, -8.532e-7, -4.697e-7, 3.835e-7
0.417, -8.532e-7, -4.694e-7, 3.838e-7
0.416, -8.544e-7, -4.724e-7, 3.820e-7
0.415, -8.547e-7, -4.712e-7, 3.835e-7
0.414, -8.551e-7, -4.718e-7, 3.832e-7
0.413, -8.554e-7, -4.737e-7, 3.817e-7
0.412, -8.569e-7, -4.734e-7, 3.835e-7
0.411, -8.569e-7, -4.743e-7, 3.826e-7
0.410, -8.578e-7, -4.749e-7, 3.829e-7
0.409, -8.605e-7, -4.746e-7, 3.860e-7
0.408, -8.615e-7, -4.773e-7, 3.841e-7
0.407, -8.605e-7, -4.770e-7, 3.835e-7
0.406, -8.621e-7, -4.776e-7, 3.844e-7
0.405, -8.630e-7, -4.791e-7, 3.838e-7
0.404, -8.633e-7, -4.807e-7, 3.826e-7
0.403, -8.636e-7, -4.795e-7, 3.841e-7
0.402, -8.654e-7, -4.810e-7, 3.844e-7
0.401, -8.682e-7, -4.831e-7, 3.851e-7
0.400, -8.700e-7, -4.834e-7, 3.866e-7
0.399, -8.691e-7, -4.834e-7, 3.857e-7
0.398, -8.712e-7, -4.856e-7, 3.857e-7
0.397, -8.728e-7, -4.859e-7, 3.869e-7
0.396, -8.724e-7, -4.877e-7, 3.848e-7
0.395, -8.740e-7, -4.883e-7, 3.857e-7
0.394, -8.767e-7, -4.886e-7, 3.881e-7
0.393, -8.752e-7, -4.886e-7, 3.866e-7
0.392, -8.773e-7, -4.911e-7, 3.863e-7
0.391, -8.795e-7, -4.914e-7, 3.881e-7
0.390, -8.776e-7, -4.907e-7, 3.869e-7
0.389, -8.813e-7, -4.941e-7, 3.872e-7
0.388, -8.828e-7, -4.938e-7, 3.890e-7
0.387, -8.828e-7, -4.944e-7, 3.884e-7
0.386, -8.834e-7, -4.968e-7, 3.866e-7
0.385, -8.856e-7, -4.965e-7, 3.890e-7
0.384, -8.874e-7, -4.981e-7, 3.893e-7
0.383, -8.883e-7, -5.002e-7, 3.881e-7
0.382, -8.898e-7, -4.993e-7, 3.906e-7
0.381, -8.889e-7, -4.999e-7, 3.890e-7
0.380, -8.941e-7, -5.042e-7, 3.899e-7
0.379, -8.953e-7, -5.030e-7, 3.924e-7
0.378, -8.959e-7, -5.048e-7, 3.912e-7
0.377, -8.950e-7, -5.057e-7, 3.893e-7
0.376, -8.990e-7, -5.066e-7, 3.924e-7
0.375, -8.990e-7, -5.075e-7, 3.915e-7
0.374, -9.008e-7, -5.100e-7, 3.909e-7
0.373, -9.017e-7, -5.097e-7, 3.921e-7
0.372, -9.042e-7, -5.118e-7, 3.924e-7
0.371, -9.057e-7, -5.127e-7, 3.930e-7
0.370, -9.066e-7, -5.127e-7, 3.939e-7
0.369, -9.075e-7, -5.152e-7, 3.924e-7
0.368, -9.066e-7, -5.155e-7, 3.912e-7
0.367, -9.118e-7, -5.167e-7, 3.951e-7
0.366, -9.136e-7, -5.182e-7, 3.954e-7
0.365, -9.146e-7, -5.200e-7, 3.945e-7
0.364, -9.176e-7, -5.200e-7, 3.976e-7
0.363, -9.161e-7, -5.203e-7, 3.957e-7
0.362, -9.167e-7, -5.231e-7, 3.936e-7
0.361, -9.204e-7, -5.225e-7, 3.979e-7
0.360, -9.219e-7, -5.246e-7, 3.973e-7
0.359, -9.234e-7, -5.274e-7, 3.960e-7
0.358, -9.265e-7, -5.289e-7, 3.976e-7
0.357, -9.255e-7, -5.283e-7, 3.973e-7
0.356, -9.292e-7, -5.319e-7, 3.973e-7
0.355, -9.310e-7, -5.319e-7, 3.991e-7
0.354, -9.326e-7, -5.319e-7, 4.006e-7
0.353, -9.338e-7, -5.356e-7, 3.982e-7
0.352, -9.362e-7, -5.350e-7, 4.012e-7
0.351, -9.362e-7, -5.362e-7, 4.000e-7
0.350, -9.405e-7, -5.393e-7, 4.012e-7
0.349, -9.405e-7, -5.402e-7, 4.003e-7
0.348, -9.414e-7, -5.402e-7, 4.012e-7
0.347, -9.426e-7, -5.417e-7, 4.009e-7
0.346, -9.451e-7, -5.426e-7, 4.025e-7
0.345, -9.478e-7, -5.448e-7, 4.031e-7
0.344, -9.478e-7, -5.457e-7, 4.021e-7
0.343, -9.521e-7, -5.472e-7, 4.049e-7
0.342, -9.536e-7, -5.478e-7, 4.058e-7
0.341, -9.542e-7, -5.499e-7, 4.043e-7
0.340, -9.561e-7, -5.503e-7, 4.058e-7
0.339, -9.567e-7, -5.515e-7, 4.052e-7
0.338, -9.609e-7, -5.548e-7, 4.061e-7
0.337, -9.628e-7, -5.554e-7, 4.073e-7
0.336, -9.622e-7, -5.545e-7, 4.076e-7
0.335, -9.652e-7, -5.591e-7, 4.061e-7
0.334, -9.704e-7, -5.609e-7, 4.095e-7
0.333, -9.689e-7, -5.597e-7, 4.092e-7
0.332, -9.719e-7, -5.628e-7, 4.092e-7
0.331, -9.747e-7, -5.637e-7, 4.110e-7
0.330, -9.741e-7, -5.646e-7, 4.095e-7
0.329, -9.777e-7, -5.673e-7, 4.104e-7
0.328, -9.786e-7, -5.667e-7, 4.119e-7
0.327, -9.793e-7, -5.680e-7, 4.113e-7
0.326, -9.820e-7, -5.701e-7, 4.119e-7
0.325, -9.869e-7, -5.725e-7, 4.144e-7
0.324, -9.869e-7, -5.741e-7, 4.128e-7
0.323, -9.899e-7, -5.759e-7, 4.140e-7
0.322, -9.936e-7, -5.771e-7, 4.165e-7
0.321, -9.908e-7, -5.759e-7, 4.150e-7
0.320, -9.948e-7, -5.795e-7, 4.153e-7
0.319, -9.985e-7, -5.808e-7, 4.177e-7
0.318, -9.988e-7, -5.811e-7, 4.177e-7
0.317, -9.994e-7, -5.820e-7, 4.174e-7
0.316, -1.004e-6, -5.850e-7, 4.192e-7
0.315, -1.004e-6, -5.847e-7, 4.195e-7
0.314, -1.005e-6, -5.863e-7, 4.189e-7
0.313, -1.010e-6, -5.881e-7, 4.220e-7
0.312, -1.009e-6, -5.884e-7, 4.202e-7
0.311, -1.012e-6, -5.914e-7, 4.202e-7
0.310, -1.016e-6, -5.918e-7, 4.241e-7
0.309, -1.017e-6, -5.939e-7, 4.232e-7
0.308, -1.019e-6, -5.954e-7, 4.238e-7
0.307, -1.021e-6, -5.960e-7, 4.253e-7
0.306, -1.022e-6, -5.969e-7, 4.250e-7
0.305, -1.025e-6, -6.006e-7, 4.244e-7
0.304, -1.027e-6, -6.012e-7, 4.263e-7
0.303, -1.026e-6, -6.006e-7, 4.256e-7
0.302, -1.032e-6, -6.052e-7, 4.266e-7
0.301, -1.034e-6, -6.040e-7, 4.302e-7
0.300, -1.034e-6, -6.043e-7, 4.293e-7
0.299, -1.037e-6, -6.079e-7, 4.287e-7
0.298, -1.040e-6, -6.088e-7, 4.308e-7
0.297, -1.042e-6, -6.119e-7, 4.302e-7
0.296, -1.045e-6, -6.131e-7, 4.317e-7
0.295, -1.048e-6, -6.140e-7, 4.336e-7
0.294, -1.047e-6, -6.125e-7, 4.345e-7
0.293, -1.051e-6, -6.168e-7, 4.339e-7
0.292, -1.052e-6, -6.162e-7, 4.360e-7
0.291, -1.055e-6, -6.183e-7, 4.369e-7
0.290, -1.056e-6, -6.201e-7, 4.363e-7
0.289, -1.060e-6, -6.201e-7, 4.394e-7
0.288, -1.059e-6, -6.217e-7, 4.375e-7
0.287, -1.063e-6, -6.247e-7, 4.388e-7
0.286, -1.064e-6, -6.238e-7, 4.406e-7
0.285, -1.067e-6, -6.259e-7, 4.412e-7
0.284, -1.070e-6, -6.296e-7, 4.406e-7
0.283, -1.073e-6, -6.296e-7, 4.433e-7
0.282, -1.073e-6, -6.293e-7, 4.436e-7
0.281, -1.077e-6, -6.329e-7, 4.440e-7
0.280, -1.078e-6, -6.323e-7, 4.455e-7
0.279, -1.076e-6, -6.320e-7, 4.440e-7
0.278, -1.079e-6, -6.339e-7, 4.455e-7
0.277, -1.086e-6, -6.369e-7, 4.494e-7
0.276, -1.085e-6, -6.366e-7, 4.488e-7
0.275, -1.088e-6, -6.387e-7, 4.488e-7
0.274, -1.091e-6, -6.397e-7, 4.510e-7
0.273, -1.091e-6, -6.403e-7, 4.507e-7
0.272, -1.094e-6, -6.433e-7, 4.510e-7
0.271, -1.097e-6, -6.421e-7, 4.546e-7
0.270, -1.096e-6, -6.436e-7, 4.528e-7
0.269, -1.100e-6, -6.467e-7, 4.534e-7
0.268, -1.101e-6, -6.452e-7, 4.555e-7
0.267, -1.103e-6, -6.470e-7, 4.562e-7
0.266, -1.106e-6, -6.506e-7, 4.549e-7
0.265, -1.109e-6, -6.500e-7, 4.592e-7
0.264, -1.111e-6, -6.510e-7, 4.604e-7
0.263, -1.110e-6, -6.522e-7, 4.583e-7
0.262, -1.114e-6, -6.525e-7, 4.613e-7
0.261, -1.114e-6, -6.537e-7, 4.607e-7
0.260, -1.117e-6, -6.555e-7, 4.610e-7
0.259, -1.119e-6, -6.552e-7, 4.635e-7
0.258, -1.120e-6, -6.571e-7, 4.632e-7
0.257, -1.123e-6, -6.592e-7, 4.641e-7
0.256, -1.125e-6, -6.580e-7, 4.665e-7
0.255, -1.124e-6, -6.577e-7, 4.665e-7
0.254, -1.129e-6, -6.616e-7, 4.674e-7
0.253, -1.132e-6, -6.626e-7, 4.690e-7
0.252, -1.131e-6, -6.613e-7, 4.693e-7
0.251, -1.134e-6, -6.635e-7, 4.702e-7
0.250, -1.137e-6, -6.653e-7, 4.720e-7
0.249, -1.136e-6, -6.638e-7, 4.723e-7
0.248, -1.139e-6, -6.665e-7, 4.729e-7
0.247, -1.141e-6, -6.665e-7, 4.742e-7
0.246, -1.142e-6, -6.668e-7, 4.748e-7
0.245, -1.145e-6, -6.690e-7, 4.760e-7
0.244, -1.147e-6, -6.693e-7, 4.778e-7
0.243, -1.148e-6, -6.693e-7, 4.787e-7
0.242, -1.150e-6, -6.717e-7, 4.778e-7
0.241, -1.153e-6, -6.720e-7, 4.815e-7
0.240, -1.153e-6, -6.714e-7, 4.818e-7
0.239, -1.154e-6, -6.729e-7, 4.815e-7
0.238, -1.159e-6, -6.754e-7, 4.836e-7
0.237, -1.157e-6, -6.729e-7, 4.836e-7
0.236, -1.160e-6, -6.754e-7, 4.845e-7
0.235, -1.161e-6, -6.754e-7, 4.855e-7
0.234, -1.164e-6, -6.769e-7, 4.867e-7
0.233, -1.165e-6, -6.775e-7, 4.876e-7
0.232, -1.167e-6, -6.775e-7, 4.891e-7
0.231, -1.165e-6, -6.769e-7, 4.879e-7
0.230, -1.168e-6, -6.793e-7, 4.888e-7
0.229, -1.172e-6, -6.796e-7, 4.919e-7
0.228, -1.169e-6, -6.784e-7, 4.903e-7
0.227, -1.173e-6, -6.809e-7, 4.925e-7
0.226, -1.175e-6, -6.799e-7, 4.949e-7
0.225, -1.177e-6, -6.815e-7, 4.955e-7
0.224, -1.174e-6, -6.806e-7, 4.937e-7
0.223, -1.178e-6, -6.821e-7, 4.961e-7
0.222, -1.178e-6, -6.815e-7, 4.967e-7
0.221, -1.181e-6, -6.833e-7, 4.974e-7
0.220, -1.180e-6, -6.818e-7, 4.986e-7
0.219, -1.182e-6, -6.824e-7, 4.992e-7
0.218, -1.184e-6, -6.842e-7, 4.998e-7
0.217, -1.185e-6, -6.842e-7, 5.004e-7
0.216, -1.183e-6, -6.833e-7, 5.001e-7
0.215, -1.187e-6, -6.857e-7, 5.016e-7
0.214, -1.190e-6, -6.845e-7, 5.050e-7
0.213, -1.187e-6, -6.845e-7, 5.028e-7
0.212, -1.187e-6, -6.842e-7, 5.025e-7
0.211, -1.192e-6, -6.851e-7, 5.065e-7
0.210, -1.192e-6, -6.845e-7, 5.074e-7
0.209, -1.192e-6, -6.854e-7, 5.068e-7
0.208, -1.195e-6, -6.854e-7, 5.096e-7
0.207, -1.195e-6, -6.848e-7, 5.099e-7
0.206, -1.196e-6, -6.867e-7, 5.093e-7
0.205, -1.197e-6, -6.848e-7, 5.120e-7
0.204, -1.197e-6, -6.864e-7, 5.105e-7
0.203, -1.197e-6, -6.873e-7, 5.096e-7
0.202, -1.199e-6, -6.857e-7, 5.135e-7
0.201, -1.199e-6, -6.845e-7, 5.141e-7
0.200, -1.200e-6, -6.873e-7, 5.126e-7
0.199, -1.200e-6, -6.845e-7, 5.160e-7
0.198, -1.198e-6, -6.842e-7, 5.138e-7
0.197, -1.199e-6, -6.845e-7, 5.147e-7
0.196, -1.202e-6, -6.845e-7, 5.172e-7
0.195, -1.201e-6, -6.842e-7, 5.169e-7
0.194, -1.202e-6, -6.857e-7, 5.160e-7
0.193, -1.203e-6, -6.839e-7, 5.187e-7
0.192, -1.202e-6, -6.839e-7, 5.181e-7
0.191, -1.206e-6, -6.857e-7, 5.199e-7
0.190, -1.204e-6, -6.839e-7, 5.199e-7
0.189, -1.203e-6, -6.830e-7, 5.202e-7
0.188, -1.204e-6, -6.848e-7, 5.193e-7
0.187, -1.208e-6, -6.842e-7, 5.236e-7
0.186, -1.205e-6, -6.824e-7, 5.224e-7
0.185, -1.206e-6, -6.842e-7, 5.215e-7
0.184, -1.206e-6, -6.836e-7, 5.224e-7
0.183, -1.207e-6, -6.824e-7, 5.248e-7
0.182, -1.207e-6, -6.830e-7, 5.236e-7
0.181, -1.208e-6, -6.818e-7, 5.257e-7
0.180, -1.206e-6, -6.803e-7, 5.254e-7
0.179, -1.204e-6, -6.815e-7, 5.230e-7
0.178, -1.208e-6, -6.803e-7, 5.276e-7
0.177, -1.205e-6, -6.790e-7, 5.260e-7
0.176, -1.207e-6, -6.803e-7, 5.270e-7
0.175, -1.208e-6, -6.799e-7, 5.276e-7
0.174, -1.206e-6, -6.778e-7, 5.279e-7
0.173, -1.207e-6, -6.787e-7, 5.279e-7
0.172, -1.205e-6, -6.766e-7, 5.288e-7
0.171, -1.206e-6, -6.766e-7, 5.291e-7
0.170, -1.206e-6, -6.784e-7, 5.273e-7
0.169, -1.206e-6, -6.763e-7, 5.297e-7
0.168, -1.206e-6, -6.766e-7, 5.294e-7
0.167, -1.204e-6, -6.754e-7, 5.285e-7
0.166, -1.208e-6, -6.763e-7, 5.312e-7
0.165, -1.204e-6, -6.732e-7, 5.306e-7
0.164, -1.204e-6, -6.745e-7, 5.291e-7
0.163, -1.204e-6, -6.717e-7, 5.318e-7
0.162, -1.199e-6, -6.699e-7, 5.291e-7
0.161, -1.202e-6, -6.717e-7, 5.300e-7
0.160, -1.202e-6, -6.708e-7, 5.312e-7
0.159, -1.202e-6, -6.699e-7, 5.321e-7
0.158, -1.201e-6, -6.699e-7, 5.315e-7
0.157, -1.201e-6, -6.683e-7, 5.324e-7
0.156, -1.198e-6, -6.668e-7, 5.309e-7
0.155, -1.199e-6, -6.680e-7, 5.312e-7
0.154, -1.199e-6, -6.665e-7, 5.324e-7
0.153, -1.197e-6, -6.659e-7, 5.309e-7
0.152, -1.195e-6, -6.656e-7, 5.297e-7
0.151, -1.198e-6, -6.644e-7, 5.334e-7
0.150, -1.193e-6, -6.622e-7, 5.312e-7
0.149, -1.196e-6, -6.647e-7, 5.309e-7
0.148, -1.197e-6, -6.632e-7, 5.337e-7
0.147, -1.195e-6, -6.622e-7, 5.328e-7
0.146, -1.194e-6, -6.629e-7, 5.309e-7
0.145, -1.193e-6, -6.601e-7, 5.334e-7
0.144, -1.190e-6, -6.580e-7, 5.321e-7
0.143, -1.190e-6, -6.592e-7, 5.303e-7
0.142, -1.191e-6, -6.574e-7, 5.334e-7
0.141, -1.189e-6, -6.571e-7, 5.321e-7
0.140, -1.187e-6, -6.558e-7, 5.315e-7
0.139, -1.190e-6, -6.574e-7, 5.328e-7
0.138, -1.184e-6, -6.528e-7, 5.312e-7
0.137, -1.185e-6, -6.546e-7, 5.306e-7
0.136, -1.186e-6, -6.534e-7, 5.328e-7
0.135, -1.181e-6, -6.510e-7, 5.297e-7
0.134, -1.185e-6, -6.537e-7, 5.309e-7
0.133, -1.182e-6, -6.507e-7, 5.315e-7
0.132, -1.180e-6, -6.494e-7, 5.309e-7
0.131, -1.180e-6, -6.491e-7, 5.306e-7
0.130, -1.179e-6, -6.488e-7, 5.297e-7
0.129, -1.175e-6, -6.461e-7, 5.288e-7
0.128, -1.178e-6, -6.479e-7, 5.300e-7
0.127, -1.177e-6, -6.467e-7, 5.303e-7
0.126, -1.172e-6, -6.436e-7, 5.282e-7
0.125, -1.172e-6, -6.445e-7, 5.276e-7
0.124, -1.174e-6, -6.436e-7, 5.300e-7
0.123, -1.168e-6, -6.409e-7, 5.266e-7
0.122, -1.170e-6, -6.421e-7, 5.276e-7
0.121, -1.168e-6, -6.397e-7, 5.282e-7
0.120, -1.167e-6, -6.394e-7, 5.273e-7
0.119, -1.165e-6, -6.391e-7, 5.260e-7
0.118, -1.166e-6, -6.384e-7, 5.273e-7
0.117, -1.164e-6, -6.369e-7, 5.266e-7
0.116, -1.161e-6, -6.369e-7, 5.242e-7
0.115, -1.163e-6, -6.363e-7, 5.263e-7
0.114, -1.160e-6, -6.333e-7, 5.263e-7
0.113, -1.159e-6, -6.348e-7, 5.239e-7
0.112, -1.158e-6, -6.333e-7, 5.245e-7
0.111, -1.154e-6, -6.314e-7, 5.227e-7
0.110, -1.153e-6, -6.308e-7, 5.221e-7
0.109, -1.156e-6, -6.308e-7, 5.248e-7
0.108, -1.150e-6, -6.278e-7, 5.227e-7
0.107, -1.150e-6, -6.287e-7, 5.209e-7
0.106, -1.149e-6, -6.278e-7, 5.212e-7
0.105, -1.149e-6, -6.265e-7, 5.221e-7
0.104, -1.147e-6, -6.275e-7, 5.193e-7
0.103, -1.147e-6, -6.256e-7, 5.218e-7
0.102, -1.145e-6, -6.241e-7, 5.205e-7
0.101, -1.143e-6, -6.244e-7, 5.181e-7
0.100, -1.142e-6, -6.223e-7, 5.193e-7
0.099, -1.140e-6, -6.217e-7, 5.181e-7
0.098, -1.139e-6, -6.223e-7, 5.172e-7
0.097, -1.137e-6, -6.195e-7, 5.178e-7
0.096, -1.135e-6, -6.192e-7, 5.163e-7
0.095, -1.135e-6, -6.198e-7, 5.151e-7
0.094, -1.134e-6, -6.186e-7, 5.157e-7
0.093, -1.133e-6, -6.177e-7, 5.151e-7
0.092, -1.131e-6, -6.177e-7, 5.135e-7
0.091, -1.133e-6, -6.177e-7, 5.157e-7
0.090, -1.127e-6, -6.143e-7, 5.129e-7
0.089, -1.126e-6, -6.153e-7, 5.105e-7
0.088, -1.126e-6, -6.137e-7, 5.120e-7
0.087, -1.125e-6, -6.125e-7, 5.126e-7
0.086, -1.121e-6, -6.128e-7, 5.083e-7
0.085, -1.124e-6, -6.128e-7, 5.111e-7
0.084, -1.119e-6, -6.107e-7, 5.086e-7
0.083, -1.120e-6, -6.119e-7, 5.083e-7
0.082, -1.118e-6, -6.098e-7, 5.086e-7
0.081, -1.115e-6, -6.070e-7, 5.077e-7
0.080, -1.114e-6, -6.085e-7, 5.053e-7
0.079, -1.116e-6, -6.076e-7, 5.080e-7
0.078, -1.112e-6, -6.061e-7, 5.059e-7
0.077, -1.110e-6, -6.067e-7, 5.035e-7
0.076, -1.110e-6, -6.046e-7, 5.053e-7
0.075, -1.106e-6, -6.037e-7, 5.022e-7
0.074, -1.105e-6, -6.034e-7, 5.016e-7
0.073, -1.107e-6, -6.037e-7, 5.035e-7
0.072, -1.104e-6, -6.018e-7, 5.025e-7
0.071, -1.102e-6, -6.015e-7, 5.004e-7
0.070, -1.103e-6, -6.024e-7, 5.010e-7
0.069, -1.098e-6, -5.988e-7, 4.992e-7
0.068, -1.099e-6, -6.024e-7, 4.970e-7
0.067, -1.099e-6, -6.006e-7, 4.989e-7
0.066, -1.096e-6, -5.985e-7, 4.980e-7
0.065, -1.096e-6, -6.000e-7, 4.958e-7
0.064, -1.095e-6, -5.982e-7, 4.967e-7
0.063, -1.092e-6, -5.972e-7, 4.949e-7
0.062, -1.092e-6, -5.979e-7, 4.940e-7
0.061, -1.092e-6, -5.966e-7, 4.949e-7
0.060, -1.089e-6, -5.951e-7, 4.937e-7
0.059, -1.087e-6, -5.957e-7, 4.916e-7
0.058, -1.088e-6, -5.939e-7, 4.940e-7
0.057, -1.083e-6, -5.930e-7, 4.900e-7
0.056, -1.083e-6, -5.936e-7, 4.894e-7
0.055, -1.083e-6, -5.924e-7, 4.909e-7
0.054, -1.080e-6, -5.905e-7, 4.894e-7
0.053, -1.081e-6, -5.933e-7, 4.876e-7
0.052, -1.081e-6, -5.918e-7, 4.894e-7
0.051, -1.078e-6, -5.890e-7, 4.885e-7
0.050, -1.077e-6, -5.902e-7, 4.870e-7
0.049, -1.078e-6, -5.905e-7, 4.876e-7
0.048, -1.074e-6, -5.887e-7, 4.855e-7
0.047, -1.075e-6, -5.902e-7, 4.848e-7
0.046, -1.072e-6, -5.881e-7, 4.839e-7
0.045, -1.071e-6, -5.866e-7, 4.842e-7
0.044, -1.070e-6, -5.878e-7, 4.827e-7
0.043, -1.070e-6, -5.866e-7, 4.830e-7
0.042, -1.068e-6, -5.860e-7, 4.821e-7
0.041, -1.069e-6, -5.878e-7, 4.809e-7
0.040, -1.068e-6, -5.863e-7, 4.815e-7
0.039, -1.065e-6, -5.838e-7, 4.809e-7
0.038, -1.065e-6, -5.857e-7, 4.790e-7
0.037, -1.062e-6, -5.832e-7, 4.790e-7
0.036, -1.060e-6, -5.826e-7, 4.775e-7
0.035, -1.061e-6, -5.838e-7, 4.772e-7
0.034, -1.061e-6, -5.835e-7, 4.772e-7
0.033, -1.058e-6, -5.814e-7, 4.769e-7
0.032, -1.058e-6, -5.832e-7, 4.748e-7
0.031, -1.059e-6, -5.823e-7, 4.766e-7
0.030, -1.056e-6, -5.808e-7, 4.757e-7
0.029, -1.056e-6, -5.820e-7, 4.742e-7
0.028, -1.055e-6, -5.808e-7, 4.745e-7
0.027, -1.055e-6, -5.811e-7, 4.742e-7
0.026, -1.052e-6, -5.811e-7, 4.714e-7
0.025, -1.053e-6, -5.789e-7, 4.742e-7
0.024, -1.049e-6, -5.783e-7, 4.702e-7
0.023, -1.049e-6, -5.792e-7, 4.699e-7
0.022, -1.049e-6, -5.777e-7, 4.708e-7
0.021, -1.046e-6, -5.777e-7, 4.684e-7
0.020, -1.049e-6, -5.792e-7, 4.696e-7
0.019, -1.048e-6, -5.789e-7, 4.693e-7
0.018, -1.045e-6, -5.765e-7, 4.684e-7
0.017, -1.043e-6, -5.765e-7, 4.668e-7
0.016, -1.044e-6, -5.765e-7, 4.671e-7
0.015, -1.040e-6, -5.747e-7, 4.656e-7
0.014, -1.042e-6, -5.774e-7, 4.650e-7
0.013, -1.044e-6, -5.759e-7, 4.678e-7
0.012, -1.038e-6, -5.731e-7, 4.653e-7
0.011, -1.038e-6, -5.741e-7, 4.641e-7
0.010, -1.039e-6, -5.741e-7, 4.650e-7
0.009, -1.035e-6, -5.719e-7, 4.635e-7
0.008, -1.037e-6, -5.747e-7, 4.626e-7
0.007, -1.037e-6, -5.738e-7, 4.629e-7
0.006, -1.032e-6, -5.716e-7, 4.607e-7
0.005, -1.034e-6, -5.725e-7, 4.610e-7
0.004, -1.035e-6, -5.725e-7, 4.626e-7
0.003, -1.031e-6, -5.695e-7, 4.610e-7
0.002, -1.031e-6, -5.716e-7, 4.595e-7
0.001, -1.032e-6, -5.716e-7, 4.601e-7
-0.000, -1.030e-6, -5.701e-7, 4.598e-7
-0.001, -1.029e-6, -5.707e-7, 4.586e-7
-0.002, -1.029e-6, -5.695e-7, 4.595e-7
-0.003, -1.024e-6, -5.676e-7, 4.565e-7
-0.004, -1.028e-6, -5.707e-7, 4.577e-7
-0.005, -1.027e-6, -5.692e-7, 4.583e-7
-0.006, -1.026e-6, -5.683e-7, 4.577e-7
-0.007, -1.025e-6, -5.695e-7, 4.559e-7
-0.008, -1.027e-6, -5.698e-7, 4.571e-7
-0.009, -1.022e-6, -5.658e-7, 4.565e-7
-0.010, -1.024e-6, -5.673e-7, 4.562e-7
-0.011, -1.026e-6, -5.683e-7, 4.577e-7
-0.012, -1.022e-6, -5.661e-7, 4.555e-7
-0.013, -1.021e-6, -5.673e-7, 4.537e-7
-0.014, -1.021e-6, -5.658e-7, 4.552e-7
-0.015, -1.018e-6, -5.643e-7, 4.534e-7
-0.016, -1.020e-6, -5.670e-7, 4.528e-7
-0.017, -1.019e-6, -5.655e-7, 4.534e-7
-0.018, -1.019e-6, -5.649e-7, 4.537e-7
-0.019, -1.015e-6, -5.640e-7, 4.513e-7
-0.020, -1.016e-6, -5.637e-7, 4.525e-7
-0.021, -1.015e-6, -5.634e-7, 4.513e-7
-0.022, -1.016e-6, -5.652e-7, 4.504e-7
-0.023, -1.014e-6, -5.625e-7, 4.516e-7
-0.024, -1.014e-6, -5.625e-7, 4.516e-7
-0.025, -1.013e-6, -5.634e-7, 4.497e-7
-0.026, -1.013e-6, -5.631e-7, 4.504e-7
-0.027, -1.010e-6, -5.606e-7, 4.491e-7
-0.028, -1.011e-6, -5.622e-7, 4.488e-7
-0.029, -1.012e-6, -5.612e-7, 4.504e-7
-0.030, -1.007e-6, -5.591e-7, 4.479e-7
-0.031, -1.008e-6, -5.606e-7, 4.476e-7
-0.032, -1.010e-6, -5.603e-7, 4.501e-7
-0.033, -1.007e-6, -5.591e-7, 4.482e-7
-0.034, -1.006e-6, -5.606e-7, 4.455e-7
-0.035, -1.007e-6, -5.591e-7, 4.476e-7
-0.036, -1.006e-6, -5.582e-7, 4.482e-7
-0.037, -1.005e-6, -5.585e-7, 4.464e-7
-0.038, -1.005e-6, -5.585e-7, 4.461e-7
-0.039, -1.003e-6, -5.573e-7, 4.455e-7
-0.040, -1.005e-6, -5.594e-7, 4.455e-7
-0.041, -1.003e-6, -5.573e-7, 4.455e-7
-0.042, -1.001e-6, -5.554e-7, 4.455e-7
-0.043, -1.002e-6, -5.579e-7, 4.446e-7
-0.044, -9.997e-7, -5.557e-7, 4.439e-7
-0.045, -9.994e-7, -5.548e-7, 4.446e-7
-0.046, -9.991e-7, -5.567e-7, 4.424e-7
-0.047, -9.994e-7, -5.554e-7, 4.439e-7
-0.048, -9.976e-7, -5.536e-7, 4.439e-7
-0.049, -9.991e-7, -5.554e-7, 4.436e-7
-0.050, -9.979e-7, -5.530e-7, 4.449e-7
