Feb. 28, 2018   11:26:48
Square Wave Voltammetry
File: c:\users\electrochemist\desktop\2018\28022018_unbuffered_9,2\12_e6_9,2_0118_ph5,08_2.txt
Data Source:  Experiment
Instrument Model:  CHI1040A
Header: 
Note: 

Init E (V) = 0.5
Final E (V) = -0.05
Incr E (V) = 0.001
Amplitude (V) = 0.1
Frequency (Hz) = 150
Quiet Time (sec) = 0
Sensitivity (A/V) = 1e-6

Difference:

Forward:

Reverse:
Ep = 0.161V
ip = 7.840e-8A
Ah = 7.375e-9VA

Potential/V, Diff(i/A), For(i/A), Rev(i/A)

0.499, -8.102e-7, -2.079e-7, 6.023e-7
0.498, -1.022e-6, -4.996e-7, 5.227e-7
0.497, -1.013e-6, -5.176e-7, 4.958e-7
0.496, -1.010e-6, -5.264e-7, 4.833e-7
0.495, -1.002e-6, -5.292e-7, 4.726e-7
0.494, -9.973e-7, -5.319e-7, 4.653e-7
0.493, -9.963e-7, -5.365e-7, 4.598e-7
0.492, -9.918e-7, -5.350e-7, 4.568e-7
0.491, -9.899e-7, -5.371e-7, 4.528e-7
0.490, -9.890e-7, -5.390e-7, 4.501e-7
0.489, -9.872e-7, -5.399e-7, 4.473e-7
0.488, -9.863e-7, -5.432e-7, 4.430e-7
0.487, -9.860e-7, -5.438e-7, 4.421e-7
0.486, -9.851e-7, -5.426e-7, 4.424e-7
0.485, -9.841e-7, -5.457e-7, 4.385e-7
0.484, -9.851e-7, -5.484e-7, 4.366e-7
0.483, -9.863e-7, -5.487e-7, 4.375e-7
0.482, -9.841e-7, -5.496e-7, 4.345e-7
0.481, -9.844e-7, -5.515e-7, 4.330e-7
0.480, -9.881e-7, -5.536e-7, 4.345e-7
0.479, -9.851e-7, -5.530e-7, 4.321e-7
0.478, -9.866e-7, -5.548e-7, 4.317e-7
0.477, -9.902e-7, -5.570e-7, 4.333e-7
0.476, -9.869e-7, -5.567e-7, 4.302e-7
0.475, -9.893e-7, -5.582e-7, 4.311e-7
0.474, -9.905e-7, -5.603e-7, 4.302e-7
0.473, -9.908e-7, -5.615e-7, 4.293e-7
0.472, -9.921e-7, -5.628e-7, 4.293e-7
0.471, -9.921e-7, -5.628e-7, 4.293e-7
0.470, -9.924e-7, -5.652e-7, 4.272e-7
0.469, -9.942e-7, -5.658e-7, 4.284e-7
0.468, -9.945e-7, -5.661e-7, 4.284e-7
0.467, -9.942e-7, -5.661e-7, 4.281e-7
0.466, -9.985e-7, -5.710e-7, 4.275e-7
0.465, -9.982e-7, -5.704e-7, 4.278e-7
0.464, -9.973e-7, -5.719e-7, 4.253e-7
0.463, -1.001e-6, -5.744e-7, 4.269e-7
0.462, -1.001e-6, -5.737e-7, 4.275e-7
0.461, -1.003e-6, -5.771e-7, 4.263e-7
0.460, -1.007e-6, -5.799e-7, 4.275e-7
0.459, -1.006e-6, -5.780e-7, 4.284e-7
0.458, -1.006e-6, -5.789e-7, 4.269e-7
0.457, -1.006e-6, -5.805e-7, 4.260e-7
0.456, -1.010e-6, -5.820e-7, 4.281e-7
0.455, -1.011e-6, -5.856e-7, 4.250e-7
0.454, -1.013e-6, -5.863e-7, 4.269e-7
0.453, -1.016e-6, -5.878e-7, 4.287e-7
0.452, -1.015e-6, -5.893e-7, 4.260e-7
0.451, -1.017e-6, -5.896e-7, 4.272e-7
0.450, -1.018e-6, -5.893e-7, 4.284e-7
0.449, -1.021e-6, -5.924e-7, 4.290e-7
0.448, -1.020e-6, -5.933e-7, 4.263e-7
0.447, -1.022e-6, -5.933e-7, 4.284e-7
0.446, -1.022e-6, -5.948e-7, 4.275e-7
0.445, -1.023e-6, -5.960e-7, 4.269e-7
0.444, -1.027e-6, -5.972e-7, 4.296e-7
0.443, -1.028e-6, -5.994e-7, 4.290e-7
0.442, -1.033e-6, -6.040e-7, 4.290e-7
0.441, -1.031e-6, -6.018e-7, 4.296e-7
0.440, -1.037e-6, -6.067e-7, 4.299e-7
0.439, -1.036e-6, -6.061e-7, 4.299e-7
0.438, -1.040e-6, -6.070e-7, 4.330e-7
0.437, -1.040e-6, -6.098e-7, 4.305e-7
0.436, -1.039e-6, -6.095e-7, 4.296e-7
0.435, -1.043e-6, -6.113e-7, 4.317e-7
0.434, -1.045e-6, -6.146e-7, 4.302e-7
0.433, -1.047e-6, -6.149e-7, 4.324e-7
0.432, -1.049e-6, -6.168e-7, 4.321e-7
0.431, -1.049e-6, -6.168e-7, 4.321e-7
0.430, -1.052e-6, -6.189e-7, 4.330e-7
0.429, -1.056e-6, -6.210e-7, 4.351e-7
0.428, -1.057e-6, -6.238e-7, 4.330e-7
0.427, -1.058e-6, -6.244e-7, 4.339e-7
0.426, -1.061e-6, -6.275e-7, 4.339e-7
0.425, -1.062e-6, -6.268e-7, 4.354e-7
0.424, -1.066e-6, -6.305e-7, 4.354e-7
0.423, -1.066e-6, -6.305e-7, 4.351e-7
0.422, -1.068e-6, -6.320e-7, 4.363e-7
0.421, -1.072e-6, -6.357e-7, 4.366e-7
0.420, -1.074e-6, -6.360e-7, 4.382e-7
0.419, -1.077e-6, -6.384e-7, 4.382e-7
0.418, -1.077e-6, -6.397e-7, 4.369e-7
0.417, -1.079e-6, -6.394e-7, 4.394e-7
0.416, -1.081e-6, -6.424e-7, 4.385e-7
0.415, -1.083e-6, -6.442e-7, 4.388e-7
0.414, -1.088e-6, -6.470e-7, 4.412e-7
0.413, -1.089e-6, -6.485e-7, 4.403e-7
0.412, -1.090e-6, -6.488e-7, 4.409e-7
0.411, -1.093e-6, -6.525e-7, 4.409e-7
0.410, -1.096e-6, -6.534e-7, 4.424e-7
0.409, -1.096e-6, -6.537e-7, 4.427e-7
0.408, -1.100e-6, -6.549e-7, 4.449e-7
0.407, -1.102e-6, -6.580e-7, 4.443e-7
0.406, -1.106e-6, -6.610e-7, 4.446e-7
0.405, -1.107e-6, -6.616e-7, 4.449e-7
0.404, -1.107e-6, -6.638e-7, 4.436e-7
0.403, -1.111e-6, -6.656e-7, 4.455e-7
0.402, -1.112e-6, -6.659e-7, 4.464e-7
0.401, -1.117e-6, -6.690e-7, 4.482e-7
0.400, -1.119e-6, -6.717e-7, 4.470e-7
0.399, -1.123e-6, -6.738e-7, 4.494e-7
0.398, -1.124e-6, -6.748e-7, 4.494e-7
0.397, -1.126e-6, -6.766e-7, 4.491e-7
0.396, -1.130e-6, -6.793e-7, 4.504e-7
0.395, -1.133e-6, -6.815e-7, 4.513e-7
0.394, -1.134e-6, -6.839e-7, 4.501e-7
0.393, -1.137e-6, -6.836e-7, 4.534e-7
0.392, -1.137e-6, -6.848e-7, 4.525e-7
0.391, -1.139e-6, -6.870e-7, 4.525e-7
0.390, -1.142e-6, -6.894e-7, 4.522e-7
0.389, -1.146e-6, -6.912e-7, 4.543e-7
0.388, -1.148e-6, -6.940e-7, 4.537e-7
0.387, -1.151e-6, -6.958e-7, 4.556e-7
0.386, -1.153e-6, -6.967e-7, 4.568e-7
0.385, -1.156e-6, -7.001e-7, 4.556e-7
0.384, -1.157e-6, -7.001e-7, 4.571e-7
0.383, -1.159e-6, -7.016e-7, 4.574e-7
0.382, -1.165e-6, -7.059e-7, 4.592e-7
0.381, -1.169e-6, -7.083e-7, 4.607e-7
0.380, -1.171e-6, -7.092e-7, 4.613e-7
0.379, -1.173e-6, -7.120e-7, 4.607e-7
0.378, -1.174e-6, -7.117e-7, 4.626e-7
0.377, -1.177e-6, -7.153e-7, 4.613e-7
0.376, -1.179e-6, -7.172e-7, 4.620e-7
0.375, -1.185e-6, -7.199e-7, 4.647e-7
0.374, -1.185e-6, -7.202e-7, 4.647e-7
0.373, -1.190e-6, -7.239e-7, 4.662e-7
0.372, -1.190e-6, -7.245e-7, 4.659e-7
0.371, -1.192e-6, -7.257e-7, 4.662e-7
0.370, -1.200e-6, -7.312e-7, 4.684e-7
0.369, -1.200e-6, -7.309e-7, 4.687e-7
0.368, -1.202e-6, -7.333e-7, 4.684e-7
0.367, -1.208e-6, -7.364e-7, 4.714e-7
0.366, -1.207e-6, -7.361e-7, 4.711e-7
0.365, -1.210e-6, -7.388e-7, 4.711e-7
0.364, -1.215e-6, -7.434e-7, 4.717e-7
0.363, -1.218e-6, -7.428e-7, 4.748e-7
0.362, -1.220e-6, -7.449e-7, 4.751e-7
0.361, -1.226e-6, -7.492e-7, 4.766e-7
0.360, -1.226e-6, -7.492e-7, 4.766e-7
0.359, -1.232e-6, -7.532e-7, 4.787e-7
0.358, -1.232e-6, -7.541e-7, 4.781e-7
0.357, -1.235e-6, -7.559e-7, 4.790e-7
0.356, -1.238e-6, -7.578e-7, 4.806e-7
0.355, -1.242e-6, -7.617e-7, 4.803e-7
0.354, -1.243e-6, -7.611e-7, 4.821e-7
0.353, -1.246e-6, -7.636e-7, 4.827e-7
0.352, -1.250e-6, -7.660e-7, 4.839e-7
0.351, -1.255e-6, -7.694e-7, 4.851e-7
0.350, -1.255e-6, -7.709e-7, 4.842e-7
0.349, -1.258e-6, -7.727e-7, 4.855e-7
0.348, -1.262e-6, -7.739e-7, 4.879e-7
0.347, -1.267e-6, -7.782e-7, 4.885e-7
0.346, -1.270e-6, -7.803e-7, 4.897e-7
0.345, -1.272e-6, -7.816e-7, 4.906e-7
0.344, -1.275e-6, -7.846e-7, 4.906e-7
0.343, -1.275e-6, -7.843e-7, 4.909e-7
0.342, -1.282e-6, -7.883e-7, 4.940e-7
0.341, -1.283e-6, -7.892e-7, 4.934e-7
0.340, -1.286e-6, -7.922e-7, 4.937e-7
0.339, -1.290e-6, -7.932e-7, 4.967e-7
0.338, -1.293e-6, -7.968e-7, 4.964e-7
0.337, -1.295e-6, -7.983e-7, 4.967e-7
0.336, -1.298e-6, -8.002e-7, 4.980e-7
0.335, -1.303e-6, -8.032e-7, 4.998e-7
0.334, -1.305e-6, -8.054e-7, 4.995e-7
0.333, -1.309e-6, -8.072e-7, 5.019e-7
0.332, -1.311e-6, -8.087e-7, 5.022e-7
0.331, -1.314e-6, -8.121e-7, 5.016e-7
0.330, -1.320e-6, -8.142e-7, 5.056e-7
0.329, -1.319e-6, -8.130e-7, 5.059e-7
0.328, -1.323e-6, -8.182e-7, 5.047e-7
0.327, -1.326e-6, -8.194e-7, 5.065e-7
0.326, -1.328e-6, -8.203e-7, 5.077e-7
0.325, -1.333e-6, -8.240e-7, 5.093e-7
0.324, -1.337e-6, -8.258e-7, 5.111e-7
0.323, -1.338e-6, -8.270e-7, 5.114e-7
0.322, -1.345e-6, -8.319e-7, 5.126e-7
0.321, -1.346e-6, -8.313e-7, 5.144e-7
0.320, -1.347e-6, -8.331e-7, 5.141e-7
0.319, -1.353e-6, -8.359e-7, 5.169e-7
0.318, -1.356e-6, -8.377e-7, 5.181e-7
0.317, -1.357e-6, -8.395e-7, 5.175e-7
0.316, -1.360e-6, -8.420e-7, 5.184e-7
0.315, -1.364e-6, -8.441e-7, 5.196e-7
0.314, -1.367e-6, -8.459e-7, 5.215e-7
0.313, -1.369e-6, -8.481e-7, 5.205e-7
0.312, -1.375e-6, -8.511e-7, 5.239e-7
0.311, -1.375e-6, -8.505e-7, 5.242e-7
0.310, -1.380e-6, -8.542e-7, 5.257e-7
0.309, -1.383e-6, -8.560e-7, 5.270e-7
0.308, -1.385e-6, -8.575e-7, 5.273e-7
0.307, -1.386e-6, -8.585e-7, 5.276e-7
0.306, -1.391e-6, -8.618e-7, 5.294e-7
0.305, -1.395e-6, -8.640e-7, 5.315e-7
0.304, -1.395e-6, -8.649e-7, 5.306e-7
0.303, -1.403e-6, -8.670e-7, 5.358e-7
0.302, -1.402e-6, -8.685e-7, 5.334e-7
0.301, -1.406e-6, -8.725e-7, 5.340e-7
0.300, -1.410e-6, -8.728e-7, 5.367e-7
0.299, -1.413e-6, -8.743e-7, 5.386e-7
0.298, -1.414e-6, -8.755e-7, 5.386e-7
0.297, -1.418e-6, -8.774e-7, 5.407e-7
0.296, -1.419e-6, -8.789e-7, 5.401e-7
0.295, -1.422e-6, -8.807e-7, 5.410e-7
0.294, -1.426e-6, -8.826e-7, 5.431e-7
0.293, -1.428e-6, -8.847e-7, 5.437e-7
0.292, -1.430e-6, -8.847e-7, 5.453e-7
0.291, -1.434e-6, -8.875e-7, 5.465e-7
0.290, -1.436e-6, -8.884e-7, 5.477e-7
0.289, -1.441e-6, -8.920e-7, 5.489e-7
0.288, -1.443e-6, -8.911e-7, 5.517e-7
0.287, -1.445e-6, -8.942e-7, 5.511e-7
0.286, -1.449e-6, -8.969e-7, 5.517e-7
0.285, -1.449e-6, -8.963e-7, 5.532e-7
0.284, -1.453e-6, -8.997e-7, 5.538e-7
0.283, -1.457e-6, -9.006e-7, 5.563e-7
0.282, -1.459e-6, -9.018e-7, 5.569e-7
0.281, -1.461e-6, -9.027e-7, 5.587e-7
0.280, -1.463e-6, -9.045e-7, 5.581e-7
0.279, -1.465e-6, -9.067e-7, 5.587e-7
0.278, -1.469e-6, -9.076e-7, 5.611e-7
0.277, -1.474e-6, -9.109e-7, 5.633e-7
0.276, -1.475e-6, -9.109e-7, 5.639e-7
0.275, -1.478e-6, -9.119e-7, 5.666e-7
0.274, -1.481e-6, -9.134e-7, 5.672e-7
0.273, -1.483e-6, -9.155e-7, 5.678e-7
0.272, -1.486e-6, -9.167e-7, 5.694e-7
0.271, -1.485e-6, -9.167e-7, 5.685e-7
0.270, -1.493e-6, -9.204e-7, 5.724e-7
0.269, -1.491e-6, -9.201e-7, 5.709e-7
0.268, -1.496e-6, -9.222e-7, 5.739e-7
0.267, -1.499e-6, -9.232e-7, 5.761e-7
0.266, -1.500e-6, -9.222e-7, 5.773e-7
0.265, -1.501e-6, -9.244e-7, 5.770e-7
0.264, -1.503e-6, -9.259e-7, 5.770e-7
0.263, -1.505e-6, -9.271e-7, 5.782e-7
0.262, -1.507e-6, -9.274e-7, 5.797e-7
0.261, -1.510e-6, -9.293e-7, 5.807e-7
0.260, -1.512e-6, -9.293e-7, 5.828e-7
0.259, -1.514e-6, -9.317e-7, 5.825e-7
0.258, -1.518e-6, -9.323e-7, 5.859e-7
0.257, -1.518e-6, -9.329e-7, 5.852e-7
0.256, -1.522e-6, -9.341e-7, 5.877e-7
0.255, -1.524e-6, -9.354e-7, 5.883e-7
0.254, -1.525e-6, -9.351e-7, 5.895e-7
0.253, -1.525e-6, -9.363e-7, 5.889e-7
0.252, -1.529e-6, -9.366e-7, 5.920e-7
0.251, -1.527e-6, -9.363e-7, 5.904e-7
0.250, -1.532e-6, -9.387e-7, 5.932e-7
0.249, -1.532e-6, -9.372e-7, 5.944e-7
0.248, -1.536e-6, -9.405e-7, 5.956e-7
0.247, -1.536e-6, -9.396e-7, 5.959e-7
0.246, -1.538e-6, -9.399e-7, 5.978e-7
0.245, -1.541e-6, -9.412e-7, 5.996e-7
0.244, -1.542e-6, -9.415e-7, 6.008e-7
0.243, -1.544e-6, -9.430e-7, 6.008e-7
0.242, -1.546e-6, -9.430e-7, 6.026e-7
0.241, -1.544e-6, -9.433e-7, 6.011e-7
0.240, -1.549e-6, -9.454e-7, 6.039e-7
0.239, -1.551e-6, -9.442e-7, 6.066e-7
0.238, -1.552e-6, -9.445e-7, 6.072e-7
0.237, -1.552e-6, -9.448e-7, 6.075e-7
0.236, -1.554e-6, -9.448e-7, 6.097e-7
0.235, -1.555e-6, -9.460e-7, 6.087e-7
0.234, -1.555e-6, -9.436e-7, 6.115e-7
0.233, -1.556e-6, -9.457e-7, 6.103e-7
0.232, -1.558e-6, -9.451e-7, 6.127e-7
0.231, -1.558e-6, -9.454e-7, 6.124e-7
0.230, -1.560e-6, -9.454e-7, 6.148e-7
0.229, -1.560e-6, -9.457e-7, 6.139e-7
0.228, -1.562e-6, -9.457e-7, 6.167e-7
0.227, -1.563e-6, -9.457e-7, 6.173e-7
0.226, -1.563e-6, -9.463e-7, 6.167e-7
0.225, -1.565e-6, -9.460e-7, 6.194e-7
0.224, -1.566e-6, -9.476e-7, 6.188e-7
0.223, -1.567e-6, -9.476e-7, 6.191e-7
0.222, -1.569e-6, -9.454e-7, 6.231e-7
0.221, -1.567e-6, -9.448e-7, 6.225e-7
0.220, -1.568e-6, -9.460e-7, 6.222e-7
0.219, -1.569e-6, -9.451e-7, 6.243e-7
0.218, -1.568e-6, -9.436e-7, 6.240e-7
0.217, -1.573e-6, -9.473e-7, 6.261e-7
0.216, -1.571e-6, -9.448e-7, 6.264e-7
0.215, -1.570e-6, -9.439e-7, 6.264e-7
0.214, -1.570e-6, -9.427e-7, 6.277e-7
0.213, -1.575e-6, -9.436e-7, 6.313e-7
0.212, -1.574e-6, -9.427e-7, 6.310e-7
0.211, -1.573e-6, -9.427e-7, 6.307e-7
0.210, -1.574e-6, -9.412e-7, 6.328e-7
0.209, -1.575e-6, -9.415e-7, 6.331e-7
0.208, -1.573e-6, -9.409e-7, 6.319e-7
0.207, -1.575e-6, -9.409e-7, 6.338e-7
0.206, -1.575e-6, -9.399e-7, 6.347e-7
0.205, -1.574e-6, -9.390e-7, 6.350e-7
0.204, -1.574e-6, -9.393e-7, 6.350e-7
0.203, -1.574e-6, -9.375e-7, 6.362e-7
0.202, -1.574e-6, -9.381e-7, 6.359e-7
0.201, -1.576e-6, -9.369e-7, 6.386e-7
0.200, -1.574e-6, -9.354e-7, 6.383e-7
0.199, -1.571e-6, -9.332e-7, 6.380e-7
0.198, -1.574e-6, -9.344e-7, 6.396e-7
0.197, -1.573e-6, -9.326e-7, 6.408e-7
0.196, -1.575e-6, -9.332e-7, 6.417e-7
0.195, -1.573e-6, -9.317e-7, 6.411e-7
0.194, -1.573e-6, -9.299e-7, 6.432e-7
0.193, -1.573e-6, -9.290e-7, 6.438e-7
0.192, -1.573e-6, -9.296e-7, 6.432e-7
0.191, -1.569e-6, -9.259e-7, 6.435e-7
0.190, -1.572e-6, -9.280e-7, 6.435e-7
0.189, -1.572e-6, -9.262e-7, 6.454e-7
0.188, -1.570e-6, -9.241e-7, 6.460e-7
0.187, -1.567e-6, -9.229e-7, 6.441e-7
0.186, -1.569e-6, -9.235e-7, 6.454e-7
0.185, -1.566e-6, -9.207e-7, 6.454e-7
0.184, -1.569e-6, -9.222e-7, 6.466e-7
0.183, -1.567e-6, -9.186e-7, 6.487e-7
0.182, -1.564e-6, -9.177e-7, 6.466e-7
0.181, -1.561e-6, -9.177e-7, 6.438e-7
0.180, -1.563e-6, -9.152e-7, 6.475e-7
0.179, -1.562e-6, -9.137e-7, 6.484e-7
0.178, -1.562e-6, -9.137e-7, 6.484e-7
0.177, -1.562e-6, -9.122e-7, 6.496e-7
0.176, -1.561e-6, -9.109e-7, 6.502e-7
0.175, -1.557e-6, -9.091e-7, 6.481e-7
0.174, -1.556e-6, -9.082e-7, 6.475e-7
0.173, -1.557e-6, -9.067e-7, 6.502e-7
0.172, -1.555e-6, -9.067e-7, 6.487e-7
0.171, -1.553e-6, -9.036e-7, 6.490e-7
0.170, -1.552e-6, -9.021e-7, 6.496e-7
0.169, -1.549e-6, -9.006e-7, 6.487e-7
0.168, -1.550e-6, -9.000e-7, 6.496e-7
0.167, -1.550e-6, -8.987e-7, 6.515e-7
0.166, -1.544e-6, -8.963e-7, 6.475e-7
0.165, -1.546e-6, -8.969e-7, 6.493e-7
0.164, -1.543e-6, -8.936e-7, 6.499e-7
0.163, -1.542e-6, -8.929e-7, 6.493e-7
0.162, -1.541e-6, -8.908e-7, 6.499e-7
0.161, -1.541e-6, -8.896e-7, 6.518e-7
0.160, -1.538e-6, -8.878e-7, 6.502e-7
0.159, -1.535e-6, -8.871e-7, 6.481e-7
0.158, -1.535e-6, -8.850e-7, 6.496e-7
0.157, -1.532e-6, -8.838e-7, 6.484e-7
0.156, -1.531e-6, -8.826e-7, 6.481e-7
0.155, -1.529e-6, -8.798e-7, 6.490e-7
0.154, -1.528e-6, -8.792e-7, 6.490e-7
0.153, -1.526e-6, -8.780e-7, 6.478e-7
0.152, -1.523e-6, -8.759e-7, 6.475e-7
0.151, -1.522e-6, -8.743e-7, 6.475e-7
0.150, -1.523e-6, -8.743e-7, 6.490e-7
0.149, -1.520e-6, -8.719e-7, 6.484e-7
0.148, -1.514e-6, -8.691e-7, 6.447e-7
0.147, -1.515e-6, -8.685e-7, 6.466e-7
0.146, -1.508e-6, -8.649e-7, 6.432e-7
0.145, -1.510e-6, -8.637e-7, 6.463e-7
0.144, -1.509e-6, -8.630e-7, 6.457e-7
0.143, -1.507e-6, -8.603e-7, 6.463e-7
0.142, -1.504e-6, -8.600e-7, 6.435e-7
0.141, -1.503e-6, -8.594e-7, 6.432e-7
0.140, -1.501e-6, -8.569e-7, 6.441e-7
0.139, -1.498e-6, -8.551e-7, 6.432e-7
0.138, -1.498e-6, -8.536e-7, 6.444e-7
0.137, -1.494e-6, -8.511e-7, 6.432e-7
0.136, -1.491e-6, -8.508e-7, 6.405e-7
0.135, -1.489e-6, -8.484e-7, 6.411e-7
0.134, -1.486e-6, -8.456e-7, 6.405e-7
0.133, -1.484e-6, -8.447e-7, 6.393e-7
0.132, -1.484e-6, -8.444e-7, 6.399e-7
0.131, -1.480e-6, -8.411e-7, 6.386e-7
0.130, -1.478e-6, -8.417e-7, 6.359e-7
0.129, -1.479e-6, -8.398e-7, 6.389e-7
0.128, -1.475e-6, -8.380e-7, 6.374e-7
0.127, -1.472e-6, -8.365e-7, 6.359e-7
0.126, -1.468e-6, -8.337e-7, 6.344e-7
0.125, -1.467e-6, -8.322e-7, 6.344e-7
0.124, -1.464e-6, -8.301e-7, 6.338e-7
0.123, -1.462e-6, -8.301e-7, 6.316e-7
0.122, -1.460e-6, -8.283e-7, 6.313e-7
0.121, -1.455e-6, -8.255e-7, 6.298e-7
0.120, -1.454e-6, -8.237e-7, 6.307e-7
0.119, -1.451e-6, -8.215e-7, 6.298e-7
0.118, -1.451e-6, -8.215e-7, 6.298e-7
0.117, -1.449e-6, -8.209e-7, 6.277e-7
0.116, -1.447e-6, -8.197e-7, 6.277e-7
0.115, -1.443e-6, -8.173e-7, 6.261e-7
0.114, -1.439e-6, -8.145e-7, 6.246e-7
0.113, -1.438e-6, -8.139e-7, 6.243e-7
0.112, -1.432e-6, -8.115e-7, 6.206e-7
0.111, -1.435e-6, -8.121e-7, 6.228e-7
0.110, -1.431e-6, -8.090e-7, 6.219e-7
0.109, -1.428e-6, -8.078e-7, 6.203e-7
0.108, -1.426e-6, -8.078e-7, 6.182e-7
0.107, -1.423e-6, -8.054e-7, 6.179e-7
0.106, -1.419e-6, -8.026e-7, 6.164e-7
0.105, -1.419e-6, -8.026e-7, 6.167e-7
0.104, -1.417e-6, -8.017e-7, 6.148e-7
0.103, -1.415e-6, -7.999e-7, 6.151e-7
0.102, -1.413e-6, -7.999e-7, 6.127e-7
0.101, -1.413e-6, -7.980e-7, 6.145e-7
0.100, -1.408e-6, -7.968e-7, 6.112e-7
0.099, -1.405e-6, -7.953e-7, 6.097e-7
0.098, -1.403e-6, -7.925e-7, 6.106e-7
0.097, -1.401e-6, -7.935e-7, 6.075e-7
0.096, -1.395e-6, -7.901e-7, 6.054e-7
0.095, -1.395e-6, -7.889e-7, 6.063e-7
0.094, -1.392e-6, -7.877e-7, 6.042e-7
0.093, -1.391e-6, -7.864e-7, 6.042e-7
0.092, -1.389e-6, -7.855e-7, 6.035e-7
0.091, -1.385e-6, -7.837e-7, 6.014e-7
0.090, -1.382e-6, -7.822e-7, 5.999e-7
0.089, -1.382e-6, -7.822e-7, 5.996e-7
0.088, -1.378e-6, -7.819e-7, 5.965e-7
0.087, -1.377e-6, -7.800e-7, 5.965e-7
0.086, -1.373e-6, -7.779e-7, 5.953e-7
0.085, -1.370e-6, -7.770e-7, 5.929e-7
0.084, -1.369e-6, -7.758e-7, 5.932e-7
0.083, -1.366e-6, -7.752e-7, 5.913e-7
0.082, -1.365e-6, -7.739e-7, 5.913e-7
0.081, -1.361e-6, -7.727e-7, 5.886e-7
0.080, -1.361e-6, -7.715e-7, 5.892e-7
0.079, -1.358e-6, -7.709e-7, 5.871e-7
0.078, -1.356e-6, -7.691e-7, 5.871e-7
0.077, -1.356e-6, -7.669e-7, 5.886e-7
0.076, -1.352e-6, -7.675e-7, 5.843e-7
0.075, -1.348e-6, -7.660e-7, 5.825e-7
0.074, -1.346e-6, -7.642e-7, 5.816e-7
0.073, -1.344e-6, -7.636e-7, 5.801e-7
0.072, -1.341e-6, -7.629e-7, 5.782e-7
0.071, -1.339e-6, -7.611e-7, 5.782e-7
0.070, -1.340e-6, -7.614e-7, 5.788e-7
0.069, -1.335e-6, -7.587e-7, 5.761e-7
0.068, -1.331e-6, -7.578e-7, 5.736e-7
0.067, -1.331e-6, -7.581e-7, 5.733e-7
0.066, -1.327e-6, -7.565e-7, 5.706e-7
0.065, -1.330e-6, -7.565e-7, 5.736e-7
0.064, -1.324e-6, -7.550e-7, 5.691e-7
0.063, -1.323e-6, -7.532e-7, 5.697e-7
0.062, -1.323e-6, -7.529e-7, 5.697e-7
0.061, -1.320e-6, -7.514e-7, 5.681e-7
0.060, -1.315e-6, -7.504e-7, 5.648e-7
0.059, -1.314e-6, -7.495e-7, 5.645e-7
0.058, -1.312e-6, -7.489e-7, 5.630e-7
0.057, -1.312e-6, -7.489e-7, 5.630e-7
0.056, -1.310e-6, -7.480e-7, 5.624e-7
0.055, -1.305e-6, -7.465e-7, 5.587e-7
0.054, -1.304e-6, -7.452e-7, 5.587e-7
0.053, -1.302e-6, -7.443e-7, 5.578e-7
0.052, -1.298e-6, -7.425e-7, 5.553e-7
0.051, -1.297e-6, -7.428e-7, 5.541e-7
0.050, -1.297e-6, -7.434e-7, 5.535e-7
0.049, -1.294e-6, -7.413e-7, 5.529e-7
0.048, -1.294e-6, -7.422e-7, 5.523e-7
0.047, -1.290e-6, -7.385e-7, 5.517e-7
0.046, -1.289e-6, -7.398e-7, 5.489e-7
0.045, -1.286e-6, -7.373e-7, 5.486e-7
0.044, -1.288e-6, -7.379e-7, 5.505e-7
0.043, -1.283e-6, -7.370e-7, 5.459e-7
0.042, -1.283e-6, -7.373e-7, 5.453e-7
0.041, -1.281e-6, -7.355e-7, 5.456e-7
0.040, -1.278e-6, -7.346e-7, 5.437e-7
0.039, -1.277e-6, -7.340e-7, 5.434e-7
0.038, -1.277e-6, -7.337e-7, 5.431e-7
0.037, -1.275e-6, -7.333e-7, 5.416e-7
0.036, -1.271e-6, -7.321e-7, 5.392e-7
0.035, -1.270e-6, -7.306e-7, 5.398e-7
0.034, -1.272e-6, -7.318e-7, 5.398e-7
0.033, -1.269e-6, -7.312e-7, 5.382e-7
0.032, -1.267e-6, -7.297e-7, 5.370e-7
0.031, -1.263e-6, -7.279e-7, 5.355e-7
0.030, -1.263e-6, -7.276e-7, 5.355e-7
0.029, -1.260e-6, -7.257e-7, 5.346e-7
0.028, -1.258e-6, -7.263e-7, 5.321e-7
0.027, -1.256e-6, -7.266e-7, 5.297e-7
0.026, -1.255e-6, -7.230e-7, 5.318e-7
0.025, -1.256e-6, -7.248e-7, 5.315e-7
0.024, -1.253e-6, -7.248e-7, 5.282e-7
0.023, -1.254e-6, -7.248e-7, 5.288e-7
0.022, -1.250e-6, -7.221e-7, 5.276e-7
0.021, -1.249e-6, -7.224e-7, 5.266e-7
0.020, -1.248e-6, -7.221e-7, 5.263e-7
0.019, -1.245e-6, -7.199e-7, 5.251e-7
0.018, -1.247e-6, -7.208e-7, 5.257e-7
0.017, -1.243e-6, -7.187e-7, 5.239e-7
0.016, -1.239e-6, -7.181e-7, 5.205e-7
0.015, -1.241e-6, -7.175e-7, 5.239e-7
0.014, -1.240e-6, -7.175e-7, 5.224e-7
0.013, -1.239e-6, -7.172e-7, 5.215e-7
0.012, -1.235e-6, -7.166e-7, 5.187e-7
0.011, -1.236e-6, -7.150e-7, 5.205e-7
0.010, -1.234e-6, -7.153e-7, 5.184e-7
0.009, -1.232e-6, -7.147e-7, 5.175e-7
0.008, -1.233e-6, -7.150e-7, 5.178e-7
0.007, -1.229e-6, -7.126e-7, 5.169e-7
0.006, -1.230e-6, -7.135e-7, 5.169e-7
0.005, -1.229e-6, -7.129e-7, 5.160e-7
0.004, -1.226e-6, -7.111e-7, 5.151e-7
0.003, -1.225e-6, -7.123e-7, 5.129e-7
0.002, -1.222e-6, -7.099e-7, 5.126e-7
0.001, -1.222e-6, -7.089e-7, 5.135e-7
-0.000, -1.222e-6, -7.105e-7, 5.117e-7
-0.001, -1.222e-6, -7.108e-7, 5.108e-7
-0.002, -1.219e-6, -7.083e-7, 5.108e-7
-0.003, -1.219e-6, -7.074e-7, 5.117e-7
-0.004, -1.218e-6, -7.074e-7, 5.111e-7
-0.005, -1.216e-6, -7.068e-7, 5.089e-7
-0.006, -1.213e-6, -7.059e-7, 5.074e-7
-0.007, -1.214e-6, -7.062e-7, 5.074e-7
-0.008, -1.213e-6, -7.056e-7, 5.071e-7
-0.009, -1.213e-6, -7.053e-7, 5.074e-7
-0.010, -1.210e-6, -7.028e-7, 5.071e-7
-0.011, -1.209e-6, -7.050e-7, 5.044e-7
-0.012, -1.210e-6, -7.034e-7, 5.062e-7
-0.013, -1.207e-6, -7.022e-7, 5.050e-7
-0.014, -1.208e-6, -7.028e-7, 5.047e-7
-0.015, -1.207e-6, -7.025e-7, 5.044e-7
-0.016, -1.205e-6, -7.013e-7, 5.038e-7
-0.017, -1.202e-6, -6.995e-7, 5.028e-7
-0.018, -1.204e-6, -7.010e-7, 5.032e-7
-0.019, -1.203e-6, -6.992e-7, 5.041e-7
-0.020, -1.202e-6, -6.986e-7, 5.032e-7
-0.021, -1.199e-6, -6.980e-7, 5.013e-7
-0.022, -1.200e-6, -6.967e-7, 5.032e-7
-0.023, -1.198e-6, -6.964e-7, 5.016e-7
-0.024, -1.197e-6, -6.955e-7, 5.013e-7
-0.025, -1.196e-6, -6.967e-7, 4.992e-7
-0.026, -1.195e-6, -6.958e-7, 4.992e-7
-0.027, -1.192e-6, -6.937e-7, 4.983e-7
-0.028, -1.193e-6, -6.934e-7, 4.998e-7
-0.029, -1.193e-6, -6.934e-7, 4.995e-7
-0.030, -1.190e-6, -6.928e-7, 4.974e-7
-0.031, -1.190e-6, -6.928e-7, 4.977e-7
-0.032, -1.190e-6, -6.918e-7, 4.977e-7
-0.033, -1.187e-6, -6.906e-7, 4.961e-7
-0.034, -1.186e-6, -6.906e-7, 4.952e-7
-0.035, -1.187e-6, -6.903e-7, 4.964e-7
-0.036, -1.188e-6, -6.912e-7, 4.964e-7
-0.037, -1.184e-6, -6.888e-7, 4.952e-7
-0.038, -1.184e-6, -6.879e-7, 4.958e-7
-0.039, -1.183e-6, -6.888e-7, 4.943e-7
-0.040, -1.183e-6, -6.885e-7, 4.946e-7
-0.041, -1.179e-6, -6.867e-7, 4.925e-7
-0.042, -1.182e-6, -6.864e-7, 4.952e-7
-0.043, -1.179e-6, -6.848e-7, 4.943e-7
-0.044, -1.179e-6, -6.851e-7, 4.937e-7
-0.045, -1.178e-6, -6.848e-7, 4.928e-7
-0.046, -1.177e-6, -6.833e-7, 4.937e-7
-0.047, -1.174e-6, -6.827e-7, 4.912e-7
-0.048, -1.175e-6, -6.827e-7, 4.925e-7
-0.049, -1.174e-6, -6.809e-7, 4.931e-7
-0.050, -1.172e-6, -6.812e-7, 4.906e-7
