Feb. 28, 2018   11:26:43
Square Wave Voltammetry
File: c:\users\electrochemist\desktop\2018\28022018_unbuffered_9,2\12_e6_9,2_0118_ph5,08_1.txt
Data Source:  Experiment
Instrument Model:  CHI1040A
Header: 
Note: 

Init E (V) = 0.5
Final E (V) = -0.05
Incr E (V) = 0.001
Amplitude (V) = 0.1
Frequency (Hz) = 150
Quiet Time (sec) = 0
Sensitivity (A/V) = 1e-6

Difference:

Forward:

Reverse:
Ep = 0.164V
ip = 1.456e-7A
Ah = 1.377e-8VA

Potential/V, Diff(i/A), For(i/A), Rev(i/A)

0.499, -8.526e-7, -2.103e-7, 6.423e-7
0.498, -1.053e-6, -5.026e-7, 5.505e-7
0.497, -1.044e-6, -5.231e-7, 5.209e-7
0.496, -1.034e-6, -5.286e-7, 5.050e-7
0.495, -1.024e-6, -5.329e-7, 4.906e-7
0.494, -1.017e-6, -5.353e-7, 4.818e-7
0.493, -1.013e-6, -5.362e-7, 4.772e-7
0.492, -1.009e-6, -5.411e-7, 4.678e-7
0.491, -1.008e-6, -5.423e-7, 4.659e-7
0.490, -1.002e-6, -5.405e-7, 4.620e-7
0.489, -1.003e-6, -5.454e-7, 4.574e-7
0.488, -1.004e-6, -5.472e-7, 4.568e-7
0.487, -9.988e-7, -5.463e-7, 4.525e-7
0.486, -9.957e-7, -5.481e-7, 4.476e-7
0.485, -9.988e-7, -5.502e-7, 4.485e-7
0.484, -9.954e-7, -5.484e-7, 4.470e-7
0.483, -9.942e-7, -5.512e-7, 4.430e-7
0.482, -9.979e-7, -5.557e-7, 4.421e-7
0.481, -9.954e-7, -5.539e-7, 4.415e-7
0.480, -9.951e-7, -5.557e-7, 4.394e-7
0.479, -9.988e-7, -5.573e-7, 4.415e-7
0.478, -9.963e-7, -5.573e-7, 4.391e-7
0.477, -9.963e-7, -5.594e-7, 4.369e-7
0.476, -1.001e-6, -5.640e-7, 4.366e-7
0.475, -9.970e-7, -5.603e-7, 4.366e-7
0.474, -9.963e-7, -5.628e-7, 4.336e-7
0.473, -9.973e-7, -5.637e-7, 4.336e-7
0.472, -1.000e-6, -5.649e-7, 4.351e-7
0.471, -9.979e-7, -5.652e-7, 4.327e-7
0.470, -1.002e-6, -5.679e-7, 4.342e-7
0.469, -1.001e-6, -5.676e-7, 4.330e-7
0.468, -1.001e-6, -5.698e-7, 4.308e-7
0.467, -1.004e-6, -5.704e-7, 4.333e-7
0.466, -1.003e-6, -5.710e-7, 4.324e-7
0.465, -1.002e-6, -5.734e-7, 4.287e-7
0.464, -1.007e-6, -5.762e-7, 4.308e-7
0.463, -1.007e-6, -5.744e-7, 4.324e-7
0.462, -1.007e-6, -5.762e-7, 4.308e-7
0.461, -1.009e-6, -5.780e-7, 4.305e-7
0.460, -1.013e-6, -5.805e-7, 4.327e-7
0.459, -1.010e-6, -5.808e-7, 4.290e-7
0.458, -1.013e-6, -5.823e-7, 4.311e-7
0.457, -1.016e-6, -5.829e-7, 4.336e-7
0.456, -1.015e-6, -5.847e-7, 4.299e-7
0.455, -1.019e-6, -5.884e-7, 4.308e-7
0.454, -1.019e-6, -5.866e-7, 4.321e-7
0.453, -1.019e-6, -5.905e-7, 4.287e-7
0.452, -1.022e-6, -5.911e-7, 4.311e-7
0.451, -1.023e-6, -5.918e-7, 4.308e-7
0.450, -1.023e-6, -5.936e-7, 4.296e-7
0.449, -1.024e-6, -5.930e-7, 4.314e-7
0.448, -1.027e-6, -5.939e-7, 4.327e-7
0.447, -1.027e-6, -5.975e-7, 4.290e-7
0.446, -1.031e-6, -5.988e-7, 4.317e-7
0.445, -1.034e-6, -5.994e-7, 4.345e-7
0.444, -1.032e-6, -6.015e-7, 4.305e-7
0.443, -1.032e-6, -6.024e-7, 4.296e-7
0.442, -1.034e-6, -6.024e-7, 4.317e-7
0.441, -1.036e-6, -6.061e-7, 4.302e-7
0.440, -1.040e-6, -6.058e-7, 4.339e-7
0.439, -1.041e-6, -6.073e-7, 4.333e-7
0.438, -1.041e-6, -6.104e-7, 4.308e-7
0.437, -1.045e-6, -6.113e-7, 4.342e-7
0.436, -1.045e-6, -6.125e-7, 4.330e-7
0.435, -1.045e-6, -6.128e-7, 4.327e-7
0.434, -1.050e-6, -6.159e-7, 4.342e-7
0.433, -1.052e-6, -6.174e-7, 4.345e-7
0.432, -1.051e-6, -6.171e-7, 4.336e-7
0.431, -1.056e-6, -6.204e-7, 4.351e-7
0.430, -1.054e-6, -6.186e-7, 4.354e-7
0.429, -1.058e-6, -6.226e-7, 4.351e-7
0.428, -1.060e-6, -6.256e-7, 4.348e-7
0.427, -1.062e-6, -6.241e-7, 4.375e-7
0.426, -1.063e-6, -6.272e-7, 4.357e-7
0.425, -1.067e-6, -6.308e-7, 4.363e-7
0.424, -1.067e-6, -6.293e-7, 4.372e-7
0.423, -1.070e-6, -6.320e-7, 4.375e-7
0.422, -1.074e-6, -6.363e-7, 4.375e-7
0.421, -1.076e-6, -6.363e-7, 4.394e-7
0.420, -1.075e-6, -6.363e-7, 4.391e-7
0.419, -1.079e-6, -6.409e-7, 4.382e-7
0.418, -1.082e-6, -6.400e-7, 4.421e-7
0.417, -1.080e-6, -6.418e-7, 4.385e-7
0.416, -1.085e-6, -6.442e-7, 4.412e-7
0.415, -1.088e-6, -6.448e-7, 4.433e-7
0.414, -1.089e-6, -6.479e-7, 4.409e-7
0.413, -1.093e-6, -6.494e-7, 4.433e-7
0.412, -1.094e-6, -6.503e-7, 4.440e-7
0.411, -1.096e-6, -6.519e-7, 4.443e-7
0.410, -1.101e-6, -6.558e-7, 4.449e-7
0.409, -1.100e-6, -6.558e-7, 4.446e-7
0.408, -1.103e-6, -6.577e-7, 4.449e-7
0.407, -1.106e-6, -6.595e-7, 4.461e-7
0.406, -1.106e-6, -6.601e-7, 4.461e-7
0.405, -1.109e-6, -6.629e-7, 4.458e-7
0.404, -1.111e-6, -6.647e-7, 4.464e-7
0.403, -1.114e-6, -6.659e-7, 4.476e-7
0.402, -1.114e-6, -6.680e-7, 4.458e-7
0.401, -1.120e-6, -6.708e-7, 4.494e-7
0.400, -1.121e-6, -6.714e-7, 4.494e-7
0.399, -1.125e-6, -6.757e-7, 4.491e-7
0.398, -1.128e-6, -6.769e-7, 4.513e-7
0.397, -1.131e-6, -6.772e-7, 4.534e-7
0.396, -1.130e-6, -6.802e-7, 4.494e-7
0.395, -1.135e-6, -6.821e-7, 4.525e-7
0.394, -1.136e-6, -6.815e-7, 4.543e-7
0.393, -1.137e-6, -6.845e-7, 4.528e-7
0.392, -1.142e-6, -6.888e-7, 4.534e-7
0.391, -1.143e-6, -6.882e-7, 4.552e-7
0.390, -1.144e-6, -6.900e-7, 4.543e-7
0.389, -1.150e-6, -6.921e-7, 4.574e-7
0.388, -1.151e-6, -6.937e-7, 4.571e-7
0.387, -1.155e-6, -6.976e-7, 4.571e-7
0.386, -1.155e-6, -6.979e-7, 4.571e-7
0.385, -1.156e-6, -6.976e-7, 4.583e-7
0.384, -1.159e-6, -7.013e-7, 4.577e-7
0.383, -1.165e-6, -7.041e-7, 4.613e-7
0.382, -1.168e-6, -7.062e-7, 4.620e-7
0.381, -1.171e-6, -7.089e-7, 4.620e-7
0.380, -1.173e-6, -7.095e-7, 4.632e-7
0.379, -1.175e-6, -7.108e-7, 4.638e-7
0.378, -1.178e-6, -7.147e-7, 4.629e-7
0.377, -1.181e-6, -7.175e-7, 4.635e-7
0.376, -1.184e-6, -7.172e-7, 4.665e-7
0.375, -1.185e-6, -7.199e-7, 4.653e-7
0.374, -1.188e-6, -7.217e-7, 4.659e-7
0.373, -1.192e-6, -7.230e-7, 4.690e-7
0.372, -1.195e-6, -7.260e-7, 4.687e-7
0.371, -1.198e-6, -7.272e-7, 4.708e-7
0.370, -1.198e-6, -7.285e-7, 4.693e-7
0.369, -1.202e-6, -7.321e-7, 4.702e-7
0.368, -1.208e-6, -7.361e-7, 4.714e-7
0.367, -1.209e-6, -7.364e-7, 4.729e-7
0.366, -1.210e-6, -7.376e-7, 4.726e-7
0.365, -1.214e-6, -7.407e-7, 4.729e-7
0.364, -1.218e-6, -7.413e-7, 4.763e-7
0.363, -1.215e-6, -7.440e-7, 4.711e-7
0.362, -1.222e-6, -7.456e-7, 4.763e-7
0.361, -1.224e-6, -7.465e-7, 4.772e-7
0.360, -1.229e-6, -7.514e-7, 4.775e-7
0.359, -1.233e-6, -7.526e-7, 4.803e-7
0.358, -1.235e-6, -7.532e-7, 4.818e-7
0.357, -1.237e-6, -7.568e-7, 4.797e-7
0.356, -1.240e-6, -7.590e-7, 4.812e-7
0.355, -1.242e-6, -7.593e-7, 4.830e-7
0.354, -1.245e-6, -7.636e-7, 4.818e-7
0.353, -1.249e-6, -7.651e-7, 4.839e-7
0.352, -1.252e-6, -7.663e-7, 4.855e-7
0.351, -1.255e-6, -7.703e-7, 4.842e-7
0.350, -1.260e-6, -7.727e-7, 4.876e-7
0.349, -1.261e-6, -7.721e-7, 4.891e-7
0.348, -1.266e-6, -7.761e-7, 4.897e-7
0.347, -1.267e-6, -7.776e-7, 4.897e-7
0.346, -1.271e-6, -7.794e-7, 4.916e-7
0.345, -1.273e-6, -7.816e-7, 4.913e-7
0.344, -1.276e-6, -7.834e-7, 4.922e-7
0.343, -1.279e-6, -7.849e-7, 4.940e-7
0.342, -1.280e-6, -7.877e-7, 4.919e-7
0.341, -1.283e-6, -7.886e-7, 4.946e-7
0.340, -1.287e-6, -7.910e-7, 4.964e-7
0.339, -1.291e-6, -7.965e-7, 4.949e-7
0.338, -1.296e-6, -7.983e-7, 4.980e-7
0.337, -1.296e-6, -7.980e-7, 4.980e-7
0.336, -1.302e-6, -8.017e-7, 5.001e-7
0.335, -1.305e-6, -8.041e-7, 5.010e-7
0.334, -1.307e-6, -8.051e-7, 5.019e-7
0.333, -1.308e-6, -8.066e-7, 5.013e-7
0.332, -1.313e-6, -8.099e-7, 5.035e-7
0.331, -1.315e-6, -8.102e-7, 5.050e-7
0.330, -1.316e-6, -8.118e-7, 5.044e-7
0.329, -1.323e-6, -8.160e-7, 5.068e-7
0.328, -1.325e-6, -8.176e-7, 5.074e-7
0.327, -1.328e-6, -8.203e-7, 5.074e-7
0.326, -1.332e-6, -8.231e-7, 5.090e-7
0.325, -1.335e-6, -8.225e-7, 5.123e-7
0.324, -1.338e-6, -8.264e-7, 5.117e-7
0.323, -1.339e-6, -8.289e-7, 5.105e-7
0.322, -1.343e-6, -8.292e-7, 5.141e-7
0.321, -1.345e-6, -8.313e-7, 5.132e-7
0.320, -1.352e-6, -8.350e-7, 5.166e-7
0.319, -1.352e-6, -8.347e-7, 5.172e-7
0.318, -1.352e-6, -8.362e-7, 5.160e-7
0.317, -1.359e-6, -8.398e-7, 5.190e-7
0.316, -1.362e-6, -8.405e-7, 5.215e-7
0.315, -1.363e-6, -8.435e-7, 5.196e-7
0.314, -1.369e-6, -8.472e-7, 5.221e-7
0.313, -1.370e-6, -8.469e-7, 5.236e-7
0.312, -1.372e-6, -8.478e-7, 5.242e-7
0.311, -1.380e-6, -8.533e-7, 5.267e-7
0.310, -1.381e-6, -8.536e-7, 5.270e-7
0.309, -1.380e-6, -8.551e-7, 5.245e-7
0.308, -1.387e-6, -8.582e-7, 5.285e-7
0.307, -1.390e-6, -8.603e-7, 5.294e-7
0.306, -1.390e-6, -8.606e-7, 5.297e-7
0.305, -1.394e-6, -8.630e-7, 5.312e-7
0.304, -1.397e-6, -8.636e-7, 5.337e-7
0.303, -1.400e-6, -8.664e-7, 5.340e-7
0.302, -1.405e-6, -8.691e-7, 5.355e-7
0.301, -1.406e-6, -8.701e-7, 5.358e-7
0.300, -1.408e-6, -8.713e-7, 5.370e-7
0.299, -1.413e-6, -8.749e-7, 5.382e-7
0.298, -1.414e-6, -8.740e-7, 5.401e-7
0.297, -1.416e-6, -8.762e-7, 5.395e-7
0.296, -1.421e-6, -8.789e-7, 5.419e-7
0.295, -1.424e-6, -8.807e-7, 5.431e-7
0.294, -1.425e-6, -8.823e-7, 5.425e-7
0.293, -1.429e-6, -8.838e-7, 5.450e-7
0.292, -1.433e-6, -8.859e-7, 5.474e-7
0.291, -1.434e-6, -8.868e-7, 5.474e-7
0.290, -1.438e-6, -8.890e-7, 5.486e-7
0.289, -1.439e-6, -8.890e-7, 5.501e-7
0.288, -1.442e-6, -8.908e-7, 5.514e-7
0.287, -1.445e-6, -8.948e-7, 5.505e-7
0.286, -1.447e-6, -8.929e-7, 5.541e-7
0.285, -1.451e-6, -8.972e-7, 5.538e-7
0.284, -1.452e-6, -8.975e-7, 5.541e-7
0.283, -1.457e-6, -8.990e-7, 5.575e-7
0.282, -1.460e-6, -9.021e-7, 5.578e-7
0.281, -1.459e-6, -9.006e-7, 5.581e-7
0.280, -1.461e-6, -9.024e-7, 5.584e-7
0.279, -1.465e-6, -9.042e-7, 5.605e-7
0.278, -1.469e-6, -9.073e-7, 5.617e-7
0.277, -1.471e-6, -9.079e-7, 5.633e-7
0.276, -1.473e-6, -9.091e-7, 5.636e-7
0.275, -1.478e-6, -9.113e-7, 5.666e-7
0.274, -1.478e-6, -9.113e-7, 5.672e-7
0.273, -1.482e-6, -9.131e-7, 5.688e-7
0.272, -1.484e-6, -9.152e-7, 5.685e-7
0.271, -1.487e-6, -9.155e-7, 5.715e-7
0.270, -1.489e-6, -9.171e-7, 5.718e-7
0.269, -1.493e-6, -9.192e-7, 5.733e-7
0.268, -1.494e-6, -9.186e-7, 5.752e-7
0.267, -1.492e-6, -9.192e-7, 5.730e-7
0.266, -1.497e-6, -9.210e-7, 5.758e-7
0.265, -1.499e-6, -9.222e-7, 5.767e-7
0.264, -1.500e-6, -9.228e-7, 5.767e-7
0.263, -1.507e-6, -9.256e-7, 5.810e-7
0.262, -1.506e-6, -9.250e-7, 5.807e-7
0.261, -1.507e-6, -9.265e-7, 5.807e-7
0.260, -1.510e-6, -9.262e-7, 5.837e-7
0.259, -1.511e-6, -9.277e-7, 5.837e-7
0.258, -1.513e-6, -9.296e-7, 5.837e-7
0.257, -1.515e-6, -9.302e-7, 5.852e-7
0.256, -1.518e-6, -9.302e-7, 5.877e-7
0.255, -1.521e-6, -9.329e-7, 5.883e-7
0.254, -1.522e-6, -9.335e-7, 5.889e-7
0.253, -1.523e-6, -9.320e-7, 5.907e-7
0.252, -1.524e-6, -9.338e-7, 5.904e-7
0.251, -1.529e-6, -9.357e-7, 5.935e-7
0.250, -1.527e-6, -9.348e-7, 5.926e-7
0.249, -1.532e-6, -9.363e-7, 5.953e-7
0.248, -1.531e-6, -9.366e-7, 5.947e-7
0.247, -1.533e-6, -9.369e-7, 5.962e-7
0.246, -1.536e-6, -9.381e-7, 5.974e-7
0.245, -1.537e-6, -9.372e-7, 6.002e-7
0.244, -1.539e-6, -9.390e-7, 5.999e-7
0.243, -1.540e-6, -9.384e-7, 6.011e-7
0.242, -1.543e-6, -9.399e-7, 6.029e-7
0.241, -1.546e-6, -9.402e-7, 6.054e-7
0.240, -1.547e-6, -9.415e-7, 6.051e-7
0.239, -1.547e-6, -9.421e-7, 6.045e-7
0.238, -1.547e-6, -9.396e-7, 6.078e-7
0.237, -1.546e-6, -9.399e-7, 6.060e-7
0.236, -1.549e-6, -9.418e-7, 6.075e-7
0.235, -1.549e-6, -9.393e-7, 6.093e-7
0.234, -1.553e-6, -9.415e-7, 6.112e-7
0.233, -1.551e-6, -9.409e-7, 6.100e-7
0.232, -1.552e-6, -9.409e-7, 6.112e-7
0.231, -1.553e-6, -9.418e-7, 6.115e-7
0.230, -1.556e-6, -9.418e-7, 6.142e-7
0.229, -1.557e-6, -9.418e-7, 6.151e-7
0.228, -1.557e-6, -9.427e-7, 6.139e-7
0.227, -1.559e-6, -9.421e-7, 6.173e-7
0.226, -1.560e-6, -9.412e-7, 6.188e-7
0.225, -1.559e-6, -9.424e-7, 6.170e-7
0.224, -1.562e-6, -9.427e-7, 6.197e-7
0.223, -1.561e-6, -9.402e-7, 6.212e-7
0.222, -1.564e-6, -9.433e-7, 6.206e-7
0.221, -1.565e-6, -9.421e-7, 6.234e-7
0.220, -1.564e-6, -9.405e-7, 6.237e-7
0.219, -1.567e-6, -9.424e-7, 6.246e-7
0.218, -1.567e-6, -9.409e-7, 6.258e-7
0.217, -1.567e-6, -9.399e-7, 6.274e-7
0.216, -1.565e-6, -9.409e-7, 6.246e-7
0.215, -1.567e-6, -9.393e-7, 6.277e-7
0.214, -1.568e-6, -9.387e-7, 6.295e-7
0.213, -1.566e-6, -9.378e-7, 6.283e-7
0.212, -1.569e-6, -9.393e-7, 6.292e-7
0.211, -1.568e-6, -9.369e-7, 6.313e-7
0.210, -1.569e-6, -9.375e-7, 6.310e-7
0.209, -1.568e-6, -9.363e-7, 6.316e-7
0.208, -1.568e-6, -9.351e-7, 6.331e-7
0.207, -1.570e-6, -9.360e-7, 6.341e-7
0.206, -1.568e-6, -9.351e-7, 6.325e-7
0.205, -1.569e-6, -9.338e-7, 6.353e-7
0.204, -1.569e-6, -9.335e-7, 6.356e-7
0.203, -1.570e-6, -9.351e-7, 6.350e-7
0.202, -1.565e-6, -9.302e-7, 6.350e-7
0.201, -1.565e-6, -9.290e-7, 6.359e-7
0.200, -1.567e-6, -9.293e-7, 6.374e-7
0.199, -1.566e-6, -9.293e-7, 6.371e-7
0.198, -1.565e-6, -9.286e-7, 6.365e-7
0.197, -1.565e-6, -9.268e-7, 6.380e-7
0.196, -1.568e-6, -9.274e-7, 6.405e-7
0.195, -1.567e-6, -9.262e-7, 6.408e-7
0.194, -1.566e-6, -9.262e-7, 6.399e-7
0.193, -1.562e-6, -9.232e-7, 6.389e-7
0.192, -1.563e-6, -9.225e-7, 6.408e-7
0.191, -1.563e-6, -9.225e-7, 6.402e-7
0.190, -1.564e-6, -9.219e-7, 6.417e-7
0.189, -1.561e-6, -9.195e-7, 6.411e-7
0.188, -1.561e-6, -9.198e-7, 6.417e-7
0.187, -1.558e-6, -9.174e-7, 6.411e-7
0.186, -1.560e-6, -9.161e-7, 6.435e-7
0.185, -1.559e-6, -9.155e-7, 6.435e-7
0.184, -1.558e-6, -9.143e-7, 6.441e-7
0.183, -1.557e-6, -9.125e-7, 6.441e-7
0.182, -1.556e-6, -9.122e-7, 6.441e-7
0.181, -1.558e-6, -9.109e-7, 6.469e-7
0.180, -1.552e-6, -9.073e-7, 6.451e-7
0.179, -1.554e-6, -9.073e-7, 6.469e-7
0.178, -1.554e-6, -9.070e-7, 6.469e-7
0.177, -1.550e-6, -9.052e-7, 6.444e-7
0.176, -1.551e-6, -9.036e-7, 6.469e-7
0.175, -1.551e-6, -9.033e-7, 6.478e-7
0.174, -1.549e-6, -9.018e-7, 6.469e-7
0.173, -1.547e-6, -9.006e-7, 6.469e-7
0.172, -1.546e-6, -8.990e-7, 6.466e-7
0.171, -1.544e-6, -8.978e-7, 6.466e-7
0.170, -1.543e-6, -8.966e-7, 6.469e-7
0.169, -1.540e-6, -8.936e-7, 6.463e-7
0.168, -1.540e-6, -8.936e-7, 6.469e-7
0.167, -1.539e-6, -8.917e-7, 6.472e-7
0.166, -1.539e-6, -8.905e-7, 6.481e-7
0.165, -1.536e-6, -8.902e-7, 6.460e-7
0.164, -1.536e-6, -8.871e-7, 6.493e-7
0.163, -1.532e-6, -8.856e-7, 6.466e-7
0.162, -1.532e-6, -8.847e-7, 6.472e-7
0.161, -1.531e-6, -8.835e-7, 6.472e-7
0.160, -1.530e-6, -8.826e-7, 6.472e-7
0.159, -1.525e-6, -8.789e-7, 6.463e-7
0.158, -1.526e-6, -8.789e-7, 6.475e-7
0.157, -1.524e-6, -8.774e-7, 6.466e-7
0.156, -1.522e-6, -8.749e-7, 6.466e-7
0.155, -1.518e-6, -8.743e-7, 6.441e-7
0.154, -1.518e-6, -8.725e-7, 6.457e-7
0.153, -1.515e-6, -8.691e-7, 6.457e-7
0.152, -1.514e-6, -8.682e-7, 6.457e-7
0.151, -1.511e-6, -8.670e-7, 6.438e-7
0.150, -1.511e-6, -8.661e-7, 6.444e-7
0.149, -1.506e-6, -8.633e-7, 6.426e-7
0.148, -1.506e-6, -8.615e-7, 6.441e-7
0.147, -1.504e-6, -8.600e-7, 6.441e-7
0.146, -1.502e-6, -8.588e-7, 6.435e-7
0.145, -1.500e-6, -8.579e-7, 6.426e-7
0.144, -1.495e-6, -8.545e-7, 6.408e-7
0.143, -1.495e-6, -8.542e-7, 6.408e-7
0.142, -1.493e-6, -8.524e-7, 6.408e-7
0.141, -1.491e-6, -8.502e-7, 6.408e-7
0.140, -1.487e-6, -8.496e-7, 6.377e-7
0.139, -1.487e-6, -8.481e-7, 6.393e-7
0.138, -1.486e-6, -8.472e-7, 6.386e-7
0.137, -1.483e-6, -8.447e-7, 6.386e-7
0.136, -1.481e-6, -8.441e-7, 6.368e-7
0.135, -1.478e-6, -8.414e-7, 6.362e-7
0.134, -1.475e-6, -8.383e-7, 6.362e-7
0.133, -1.474e-6, -8.380e-7, 6.356e-7
0.132, -1.471e-6, -8.368e-7, 6.338e-7
0.131, -1.469e-6, -8.350e-7, 6.341e-7
0.130, -1.465e-6, -8.325e-7, 6.328e-7
0.129, -1.463e-6, -8.304e-7, 6.325e-7
0.128, -1.463e-6, -8.304e-7, 6.322e-7
0.127, -1.460e-6, -8.286e-7, 6.319e-7
0.126, -1.455e-6, -8.261e-7, 6.292e-7
0.125, -1.454e-6, -8.258e-7, 6.286e-7
0.124, -1.453e-6, -8.240e-7, 6.295e-7
0.123, -1.451e-6, -8.215e-7, 6.292e-7
0.122, -1.451e-6, -8.221e-7, 6.286e-7
0.121, -1.445e-6, -8.194e-7, 6.252e-7
0.120, -1.444e-6, -8.164e-7, 6.274e-7
0.119, -1.441e-6, -8.164e-7, 6.246e-7
0.118, -1.439e-6, -8.148e-7, 6.237e-7
0.117, -1.436e-6, -8.130e-7, 6.228e-7
0.116, -1.435e-6, -8.124e-7, 6.225e-7
0.115, -1.432e-6, -8.102e-7, 6.222e-7
0.114, -1.428e-6, -8.081e-7, 6.203e-7
0.113, -1.428e-6, -8.084e-7, 6.197e-7
0.112, -1.426e-6, -8.063e-7, 6.197e-7
0.111, -1.424e-6, -8.054e-7, 6.188e-7
0.110, -1.423e-6, -8.051e-7, 6.179e-7
0.109, -1.419e-6, -8.035e-7, 6.158e-7
0.108, -1.416e-6, -8.011e-7, 6.145e-7
0.107, -1.413e-6, -7.983e-7, 6.142e-7
0.106, -1.409e-6, -7.962e-7, 6.127e-7
0.105, -1.408e-6, -7.959e-7, 6.121e-7
0.104, -1.408e-6, -7.962e-7, 6.118e-7
0.103, -1.404e-6, -7.938e-7, 6.106e-7
0.102, -1.399e-6, -7.916e-7, 6.078e-7
0.101, -1.398e-6, -7.910e-7, 6.069e-7
0.100, -1.397e-6, -7.901e-7, 6.072e-7
0.099, -1.395e-6, -7.892e-7, 6.057e-7
0.098, -1.393e-6, -7.874e-7, 6.054e-7
0.097, -1.388e-6, -7.855e-7, 6.023e-7
0.096, -1.387e-6, -7.843e-7, 6.023e-7
0.095, -1.387e-6, -7.837e-7, 6.029e-7
0.094, -1.382e-6, -7.797e-7, 6.026e-7
0.093, -1.379e-6, -7.803e-7, 5.990e-7
0.092, -1.376e-6, -7.803e-7, 5.953e-7
0.091, -1.377e-6, -7.791e-7, 5.974e-7
0.090, -1.373e-6, -7.767e-7, 5.965e-7
0.089, -1.371e-6, -7.767e-7, 5.941e-7
0.088, -1.370e-6, -7.748e-7, 5.947e-7
0.087, -1.365e-6, -7.721e-7, 5.929e-7
0.086, -1.365e-6, -7.733e-7, 5.913e-7
0.085, -1.362e-6, -7.703e-7, 5.920e-7
0.084, -1.359e-6, -7.697e-7, 5.895e-7
0.083, -1.355e-6, -7.681e-7, 5.865e-7
0.082, -1.354e-6, -7.681e-7, 5.858e-7
0.081, -1.353e-6, -7.669e-7, 5.862e-7
0.080, -1.350e-6, -7.660e-7, 5.840e-7
0.079, -1.347e-6, -7.633e-7, 5.834e-7
0.078, -1.347e-6, -7.639e-7, 5.828e-7
0.077, -1.343e-6, -7.623e-7, 5.804e-7
0.076, -1.342e-6, -7.623e-7, 5.794e-7
0.075, -1.335e-6, -7.590e-7, 5.761e-7
0.074, -1.336e-6, -7.590e-7, 5.767e-7
0.073, -1.335e-6, -7.587e-7, 5.767e-7
0.072, -1.331e-6, -7.565e-7, 5.743e-7
0.071, -1.330e-6, -7.565e-7, 5.736e-7
0.070, -1.327e-6, -7.541e-7, 5.724e-7
0.069, -1.325e-6, -7.541e-7, 5.709e-7
0.068, -1.323e-6, -7.547e-7, 5.688e-7
0.067, -1.322e-6, -7.532e-7, 5.691e-7
0.066, -1.322e-6, -7.526e-7, 5.694e-7
0.065, -1.320e-6, -7.523e-7, 5.675e-7
0.064, -1.315e-6, -7.495e-7, 5.657e-7
0.063, -1.314e-6, -7.504e-7, 5.639e-7
0.062, -1.312e-6, -7.483e-7, 5.633e-7
0.061, -1.311e-6, -7.480e-7, 5.627e-7
0.060, -1.309e-6, -7.462e-7, 5.627e-7
0.059, -1.308e-6, -7.468e-7, 5.608e-7
0.058, -1.304e-6, -7.452e-7, 5.584e-7
0.057, -1.303e-6, -7.443e-7, 5.584e-7
0.056, -1.299e-6, -7.440e-7, 5.553e-7
0.055, -1.298e-6, -7.419e-7, 5.562e-7
0.054, -1.296e-6, -7.410e-7, 5.547e-7
0.053, -1.295e-6, -7.419e-7, 5.532e-7
0.052, -1.291e-6, -7.398e-7, 5.511e-7
0.051, -1.290e-6, -7.391e-7, 5.508e-7
0.050, -1.287e-6, -7.379e-7, 5.492e-7
0.049, -1.285e-6, -7.367e-7, 5.486e-7
0.048, -1.282e-6, -7.355e-7, 5.468e-7
0.047, -1.284e-6, -7.361e-7, 5.480e-7
0.046, -1.284e-6, -7.358e-7, 5.480e-7
0.045, -1.278e-6, -7.340e-7, 5.443e-7
0.044, -1.281e-6, -7.355e-7, 5.453e-7
0.043, -1.277e-6, -7.327e-7, 5.440e-7
0.042, -1.273e-6, -7.309e-7, 5.425e-7
0.041, -1.271e-6, -7.306e-7, 5.407e-7
0.040, -1.273e-6, -7.321e-7, 5.410e-7
0.039, -1.268e-6, -7.300e-7, 5.382e-7
0.038, -1.269e-6, -7.291e-7, 5.398e-7
0.037, -1.268e-6, -7.297e-7, 5.379e-7
0.036, -1.265e-6, -7.279e-7, 5.367e-7
0.035, -1.264e-6, -7.282e-7, 5.358e-7
0.034, -1.263e-6, -7.279e-7, 5.349e-7
0.033, -1.260e-6, -7.266e-7, 5.337e-7
0.032, -1.260e-6, -7.269e-7, 5.328e-7
0.031, -1.259e-6, -7.263e-7, 5.324e-7
0.030, -1.255e-6, -7.245e-7, 5.303e-7
0.029, -1.252e-6, -7.227e-7, 5.297e-7
0.028, -1.253e-6, -7.239e-7, 5.294e-7
0.027, -1.252e-6, -7.236e-7, 5.282e-7
0.026, -1.248e-6, -7.214e-7, 5.270e-7
0.025, -1.249e-6, -7.218e-7, 5.276e-7
0.024, -1.246e-6, -7.196e-7, 5.260e-7
0.023, -1.245e-6, -7.205e-7, 5.245e-7
0.022, -1.243e-6, -7.199e-7, 5.233e-7
0.021, -1.243e-6, -7.199e-7, 5.227e-7
0.020, -1.242e-6, -7.190e-7, 5.227e-7
0.019, -1.241e-6, -7.193e-7, 5.218e-7
0.018, -1.240e-6, -7.181e-7, 5.215e-7
0.017, -1.235e-6, -7.160e-7, 5.193e-7
0.016, -1.236e-6, -7.169e-7, 5.187e-7
0.015, -1.234e-6, -7.166e-7, 5.178e-7
0.014, -1.234e-6, -7.172e-7, 5.166e-7
0.013, -1.234e-6, -7.153e-7, 5.184e-7
0.012, -1.232e-6, -7.144e-7, 5.178e-7
0.011, -1.229e-6, -7.144e-7, 5.151e-7
0.010, -1.229e-6, -7.129e-7, 5.166e-7
0.009, -1.227e-6, -7.120e-7, 5.154e-7
0.008, -1.228e-6, -7.138e-7, 5.141e-7
0.007, -1.225e-6, -7.108e-7, 5.144e-7
0.006, -1.224e-6, -7.099e-7, 5.141e-7
0.005, -1.222e-6, -7.108e-7, 5.114e-7
0.004, -1.223e-6, -7.105e-7, 5.123e-7
0.003, -1.218e-6, -7.080e-7, 5.105e-7
0.002, -1.218e-6, -7.083e-7, 5.093e-7
0.001, -1.218e-6, -7.089e-7, 5.096e-7
-0.000, -1.217e-6, -7.080e-7, 5.089e-7
-0.001, -1.218e-6, -7.089e-7, 5.086e-7
-0.002, -1.215e-6, -7.065e-7, 5.080e-7
-0.003, -1.212e-6, -7.050e-7, 5.071e-7
-0.004, -1.213e-6, -7.059e-7, 5.071e-7
-0.005, -1.213e-6, -7.053e-7, 5.077e-7
-0.006, -1.212e-6, -7.056e-7, 5.062e-7
-0.007, -1.208e-6, -7.041e-7, 5.044e-7
-0.008, -1.210e-6, -7.044e-7, 5.059e-7
-0.009, -1.211e-6, -7.034e-7, 5.074e-7
-0.010, -1.206e-6, -7.028e-7, 5.032e-7
-0.011, -1.205e-6, -7.031e-7, 5.016e-7
-0.012, -1.206e-6, -7.013e-7, 5.047e-7
-0.013, -1.204e-6, -7.010e-7, 5.025e-7
-0.014, -1.203e-6, -7.004e-7, 5.025e-7
-0.015, -1.203e-6, -7.004e-7, 5.022e-7
-0.016, -1.201e-6, -6.998e-7, 5.010e-7
-0.017, -1.200e-6, -6.989e-7, 5.010e-7
-0.018, -1.198e-6, -6.983e-7, 5.001e-7
-0.019, -1.200e-6, -6.989e-7, 5.007e-7
-0.020, -1.196e-6, -6.958e-7, 5.004e-7
-0.021, -1.198e-6, -6.973e-7, 5.004e-7
-0.022, -1.195e-6, -6.958e-7, 4.992e-7
-0.023, -1.193e-6, -6.958e-7, 4.967e-7
-0.024, -1.192e-6, -6.940e-7, 4.980e-7
-0.025, -1.193e-6, -6.952e-7, 4.983e-7
-0.026, -1.193e-6, -6.943e-7, 4.983e-7
-0.027, -1.190e-6, -6.928e-7, 4.970e-7
-0.028, -1.190e-6, -6.943e-7, 4.961e-7
-0.029, -1.190e-6, -6.937e-7, 4.961e-7
-0.030, -1.187e-6, -6.918e-7, 4.955e-7
-0.031, -1.186e-6, -6.925e-7, 4.937e-7
-0.032, -1.186e-6, -6.922e-7, 4.940e-7
-0.033, -1.184e-6, -6.900e-7, 4.943e-7
-0.034, -1.186e-6, -6.897e-7, 4.958e-7
-0.035, -1.185e-6, -6.897e-7, 4.955e-7
-0.036, -1.184e-6, -6.900e-7, 4.937e-7
-0.037, -1.181e-6, -6.888e-7, 4.925e-7
-0.038, -1.182e-6, -6.882e-7, 4.943e-7
-0.039, -1.182e-6, -6.873e-7, 4.949e-7
-0.040, -1.179e-6, -6.867e-7, 4.919e-7
-0.041, -1.180e-6, -6.864e-7, 4.937e-7
-0.042, -1.178e-6, -6.848e-7, 4.928e-7
-0.043, -1.179e-6, -6.867e-7, 4.919e-7
-0.044, -1.178e-6, -6.851e-7, 4.931e-7
-0.045, -1.175e-6, -6.836e-7, 4.912e-7
-0.046, -1.175e-6, -6.836e-7, 4.916e-7
-0.047, -1.175e-6, -6.830e-7, 4.925e-7
-0.048, -1.173e-6, -6.815e-7, 4.916e-7
-0.049, -1.174e-6, -6.824e-7, 4.916e-7
-0.050, -1.172e-6, -6.803e-7, 4.912e-7
