Feb. 28, 2018   11:26:57
Square Wave Voltammetry
File: c:\users\electrochemist\desktop\2018\28022018_unbuffered_9,2\12_e6_9,2_0118_ph5,08_4.txt
Data Source:  Experiment
Instrument Model:  CHI1040A
Header: 
Note: 

Init E (V) = 0.5
Final E (V) = -0.05
Incr E (V) = 0.001
Amplitude (V) = 0.1
Frequency (Hz) = 150
Quiet Time (sec) = 0
Sensitivity (A/V) = 1e-6

Difference:

Forward:

Reverse:
Ep = 0.152V
ip = 6.912e-8A
Ah = 5.765e-9VA

Potential/V, Diff(i/A), For(i/A), Rev(i/A)

0.499, -8.020e-7, -2.094e-7, 5.926e-7
0.498, -1.014e-6, -4.996e-7, 5.144e-7
0.497, -1.007e-6, -5.173e-7, 4.894e-7
0.496, -9.979e-7, -5.246e-7, 4.733e-7
0.495, -9.948e-7, -5.283e-7, 4.665e-7
0.494, -9.905e-7, -5.295e-7, 4.610e-7
0.493, -9.844e-7, -5.319e-7, 4.525e-7
0.492, -9.875e-7, -5.353e-7, 4.522e-7
0.491, -9.823e-7, -5.350e-7, 4.473e-7
0.490, -9.789e-7, -5.390e-7, 4.400e-7
0.489, -9.832e-7, -5.411e-7, 4.421e-7
0.488, -9.799e-7, -5.402e-7, 4.397e-7
0.487, -9.808e-7, -5.438e-7, 4.369e-7
0.486, -9.814e-7, -5.438e-7, 4.375e-7
0.485, -9.799e-7, -5.451e-7, 4.348e-7
0.484, -9.814e-7, -5.475e-7, 4.339e-7
0.483, -9.799e-7, -5.481e-7, 4.317e-7
0.482, -9.789e-7, -5.478e-7, 4.311e-7
0.481, -9.786e-7, -5.502e-7, 4.284e-7
0.480, -9.811e-7, -5.524e-7, 4.287e-7
0.479, -9.799e-7, -5.506e-7, 4.293e-7
0.478, -9.805e-7, -5.548e-7, 4.256e-7
0.477, -9.826e-7, -5.554e-7, 4.272e-7
0.476, -9.829e-7, -5.548e-7, 4.281e-7
0.475, -9.820e-7, -5.576e-7, 4.244e-7
0.474, -9.872e-7, -5.594e-7, 4.278e-7
0.473, -9.860e-7, -5.594e-7, 4.266e-7
0.472, -9.860e-7, -5.618e-7, 4.241e-7
0.471, -9.872e-7, -5.640e-7, 4.232e-7
0.470, -9.863e-7, -5.612e-7, 4.250e-7
0.469, -9.854e-7, -5.640e-7, 4.214e-7
0.468, -9.915e-7, -5.655e-7, 4.260e-7
0.467, -9.896e-7, -5.652e-7, 4.244e-7
0.466, -9.896e-7, -5.679e-7, 4.217e-7
0.465, -9.942e-7, -5.692e-7, 4.250e-7
0.464, -9.936e-7, -5.698e-7, 4.238e-7
0.463, -9.930e-7, -5.713e-7, 4.217e-7
0.462, -9.960e-7, -5.737e-7, 4.223e-7
0.461, -9.963e-7, -5.731e-7, 4.232e-7
0.460, -9.982e-7, -5.756e-7, 4.226e-7
0.459, -1.004e-6, -5.774e-7, 4.269e-7
0.458, -1.003e-6, -5.777e-7, 4.256e-7
0.457, -1.002e-6, -5.792e-7, 4.223e-7
0.456, -1.007e-6, -5.817e-7, 4.253e-7
0.455, -1.006e-6, -5.814e-7, 4.250e-7
0.454, -1.009e-6, -5.844e-7, 4.244e-7
0.453, -1.009e-6, -5.850e-7, 4.241e-7
0.452, -1.010e-6, -5.847e-7, 4.256e-7
0.451, -1.011e-6, -5.884e-7, 4.226e-7
0.450, -1.013e-6, -5.896e-7, 4.235e-7
0.449, -1.015e-6, -5.890e-7, 4.263e-7
0.448, -1.018e-6, -5.939e-7, 4.244e-7
0.447, -1.021e-6, -5.948e-7, 4.263e-7
0.446, -1.017e-6, -5.930e-7, 4.238e-7
0.445, -1.021e-6, -5.951e-7, 4.256e-7
0.444, -1.023e-6, -5.969e-7, 4.263e-7
0.443, -1.025e-6, -5.975e-7, 4.272e-7
0.442, -1.024e-6, -5.985e-7, 4.256e-7
0.441, -1.029e-6, -6.015e-7, 4.275e-7
0.440, -1.028e-6, -6.003e-7, 4.278e-7
0.439, -1.030e-6, -6.040e-7, 4.256e-7
0.438, -1.034e-6, -6.061e-7, 4.284e-7
0.437, -1.034e-6, -6.052e-7, 4.287e-7
0.436, -1.035e-6, -6.091e-7, 4.263e-7
0.435, -1.041e-6, -6.110e-7, 4.299e-7
0.434, -1.040e-6, -6.091e-7, 4.305e-7
0.433, -1.042e-6, -6.131e-7, 4.284e-7
0.432, -1.046e-6, -6.177e-7, 4.287e-7
0.431, -1.046e-6, -6.149e-7, 4.311e-7
0.430, -1.049e-6, -6.183e-7, 4.302e-7
0.429, -1.052e-6, -6.198e-7, 4.324e-7
0.428, -1.053e-6, -6.220e-7, 4.311e-7
0.427, -1.052e-6, -6.226e-7, 4.299e-7
0.426, -1.059e-6, -6.241e-7, 4.345e-7
0.425, -1.059e-6, -6.247e-7, 4.345e-7
0.424, -1.061e-6, -6.293e-7, 4.317e-7
0.423, -1.062e-6, -6.290e-7, 4.327e-7
0.422, -1.064e-6, -6.296e-7, 4.345e-7
0.421, -1.067e-6, -6.329e-7, 4.339e-7
0.420, -1.071e-6, -6.342e-7, 4.366e-7
0.419, -1.070e-6, -6.342e-7, 4.357e-7
0.418, -1.070e-6, -6.366e-7, 4.333e-7
0.417, -1.077e-6, -6.403e-7, 4.366e-7
0.416, -1.077e-6, -6.391e-7, 4.375e-7
0.415, -1.080e-6, -6.430e-7, 4.372e-7
0.414, -1.084e-6, -6.452e-7, 4.385e-7
0.413, -1.084e-6, -6.448e-7, 4.391e-7
0.412, -1.085e-6, -6.482e-7, 4.369e-7
0.411, -1.089e-6, -6.503e-7, 4.385e-7
0.410, -1.089e-6, -6.485e-7, 4.406e-7
0.409, -1.091e-6, -6.522e-7, 4.388e-7
0.408, -1.095e-6, -6.543e-7, 4.409e-7
0.407, -1.096e-6, -6.546e-7, 4.409e-7
0.406, -1.102e-6, -6.598e-7, 4.421e-7
0.405, -1.103e-6, -6.604e-7, 4.427e-7
0.404, -1.107e-6, -6.616e-7, 4.458e-7
0.403, -1.108e-6, -6.632e-7, 4.449e-7
0.402, -1.110e-6, -6.665e-7, 4.430e-7
0.401, -1.111e-6, -6.659e-7, 4.449e-7
0.400, -1.115e-6, -6.699e-7, 4.449e-7
0.399, -1.118e-6, -6.714e-7, 4.470e-7
0.398, -1.119e-6, -6.708e-7, 4.482e-7
0.397, -1.121e-6, -6.760e-7, 4.452e-7
0.396, -1.126e-6, -6.772e-7, 4.488e-7
0.395, -1.125e-6, -6.757e-7, 4.491e-7
0.394, -1.129e-6, -6.806e-7, 4.485e-7
0.393, -1.131e-6, -6.812e-7, 4.501e-7
0.392, -1.135e-6, -6.839e-7, 4.510e-7
0.391, -1.136e-6, -6.867e-7, 4.491e-7
0.390, -1.141e-6, -6.891e-7, 4.516e-7
0.389, -1.141e-6, -6.876e-7, 4.531e-7
0.388, -1.144e-6, -6.925e-7, 4.516e-7
0.387, -1.147e-6, -6.937e-7, 4.534e-7
0.386, -1.150e-6, -6.937e-7, 4.562e-7
0.385, -1.150e-6, -6.964e-7, 4.540e-7
0.384, -1.156e-6, -7.007e-7, 4.549e-7
0.383, -1.154e-6, -6.983e-7, 4.562e-7
0.382, -1.159e-6, -7.031e-7, 4.559e-7
0.381, -1.163e-6, -7.065e-7, 4.568e-7
0.380, -1.165e-6, -7.062e-7, 4.586e-7
0.379, -1.167e-6, -7.092e-7, 4.574e-7
0.378, -1.171e-6, -7.114e-7, 4.595e-7
0.377, -1.173e-6, -7.126e-7, 4.604e-7
0.376, -1.176e-6, -7.156e-7, 4.607e-7
0.375, -1.180e-6, -7.178e-7, 4.623e-7
0.374, -1.181e-6, -7.181e-7, 4.626e-7
0.373, -1.185e-6, -7.211e-7, 4.638e-7
0.372, -1.190e-6, -7.245e-7, 4.650e-7
0.371, -1.187e-6, -7.230e-7, 4.641e-7
0.370, -1.194e-6, -7.291e-7, 4.650e-7
0.369, -1.197e-6, -7.306e-7, 4.665e-7
0.368, -1.199e-6, -7.303e-7, 4.684e-7
0.367, -1.201e-6, -7.330e-7, 4.684e-7
0.366, -1.205e-6, -7.364e-7, 4.690e-7
0.365, -1.208e-6, -7.364e-7, 4.714e-7
0.364, -1.211e-6, -7.404e-7, 4.705e-7
0.363, -1.215e-6, -7.431e-7, 4.717e-7
0.362, -1.217e-6, -7.437e-7, 4.729e-7
0.361, -1.219e-6, -7.468e-7, 4.723e-7
0.360, -1.222e-6, -7.480e-7, 4.742e-7
0.359, -1.224e-6, -7.489e-7, 4.754e-7
0.358, -1.228e-6, -7.538e-7, 4.742e-7
0.357, -1.232e-6, -7.556e-7, 4.766e-7
0.356, -1.233e-6, -7.550e-7, 4.784e-7
0.355, -1.236e-6, -7.578e-7, 4.784e-7
0.354, -1.243e-6, -7.623e-7, 4.809e-7
0.353, -1.244e-6, -7.626e-7, 4.818e-7
0.352, -1.245e-6, -7.660e-7, 4.787e-7
0.351, -1.250e-6, -7.678e-7, 4.821e-7
0.350, -1.251e-6, -7.681e-7, 4.827e-7
0.349, -1.255e-6, -7.718e-7, 4.827e-7
0.348, -1.260e-6, -7.758e-7, 4.842e-7
0.347, -1.262e-6, -7.758e-7, 4.867e-7
0.346, -1.265e-6, -7.791e-7, 4.855e-7
0.345, -1.269e-6, -7.810e-7, 4.876e-7
0.344, -1.272e-6, -7.810e-7, 4.909e-7
0.343, -1.273e-6, -7.858e-7, 4.873e-7
0.342, -1.278e-6, -7.874e-7, 4.906e-7
0.341, -1.281e-6, -7.871e-7, 4.937e-7
0.340, -1.279e-6, -7.901e-7, 4.885e-7
0.339, -1.289e-6, -7.938e-7, 4.949e-7
0.338, -1.287e-6, -7.935e-7, 4.940e-7
0.337, -1.293e-6, -7.990e-7, 4.943e-7
0.336, -1.297e-6, -8.002e-7, 4.967e-7
0.335, -1.298e-6, -7.999e-7, 4.980e-7
0.334, -1.299e-6, -8.029e-7, 4.958e-7
0.333, -1.305e-6, -8.078e-7, 4.977e-7
0.332, -1.309e-6, -8.084e-7, 5.010e-7
0.331, -1.311e-6, -8.115e-7, 4.998e-7
0.330, -1.314e-6, -8.118e-7, 5.022e-7
0.329, -1.317e-6, -8.133e-7, 5.035e-7
0.328, -1.320e-6, -8.154e-7, 5.041e-7
0.327, -1.323e-6, -8.176e-7, 5.056e-7
0.326, -1.326e-6, -8.197e-7, 5.059e-7
0.325, -1.330e-6, -8.234e-7, 5.062e-7
0.324, -1.333e-6, -8.249e-7, 5.080e-7
0.323, -1.337e-6, -8.264e-7, 5.108e-7
0.322, -1.338e-6, -8.289e-7, 5.090e-7
0.321, -1.343e-6, -8.319e-7, 5.114e-7
0.320, -1.347e-6, -8.334e-7, 5.138e-7
0.319, -1.348e-6, -8.356e-7, 5.123e-7
0.318, -1.355e-6, -8.392e-7, 5.154e-7
0.317, -1.354e-6, -8.374e-7, 5.169e-7
0.316, -1.357e-6, -8.411e-7, 5.157e-7
0.315, -1.362e-6, -8.432e-7, 5.184e-7
0.314, -1.365e-6, -8.447e-7, 5.199e-7
0.313, -1.363e-6, -8.463e-7, 5.169e-7
0.312, -1.372e-6, -8.502e-7, 5.221e-7
0.311, -1.374e-6, -8.502e-7, 5.233e-7
0.310, -1.377e-6, -8.536e-7, 5.239e-7
0.309, -1.380e-6, -8.557e-7, 5.239e-7
0.308, -1.385e-6, -8.563e-7, 5.285e-7
0.307, -1.386e-6, -8.594e-7, 5.270e-7
0.306, -1.391e-6, -8.630e-7, 5.282e-7
0.305, -1.391e-6, -8.600e-7, 5.309e-7
0.304, -1.393e-6, -8.646e-7, 5.282e-7
0.303, -1.400e-6, -8.685e-7, 5.312e-7
0.302, -1.400e-6, -8.673e-7, 5.331e-7
0.301, -1.403e-6, -8.691e-7, 5.334e-7
0.300, -1.408e-6, -8.731e-7, 5.346e-7
0.299, -1.410e-6, -8.728e-7, 5.370e-7
0.298, -1.412e-6, -8.755e-7, 5.364e-7
0.297, -1.415e-6, -8.771e-7, 5.376e-7
0.296, -1.417e-6, -8.777e-7, 5.395e-7
0.295, -1.421e-6, -8.801e-7, 5.404e-7
0.294, -1.424e-6, -8.835e-7, 5.410e-7
0.293, -1.427e-6, -8.835e-7, 5.434e-7
0.292, -1.427e-6, -8.853e-7, 5.419e-7
0.291, -1.435e-6, -8.896e-7, 5.450e-7
0.290, -1.433e-6, -8.878e-7, 5.456e-7
0.289, -1.437e-6, -8.914e-7, 5.453e-7
0.288, -1.442e-6, -8.936e-7, 5.489e-7
0.287, -1.446e-6, -8.951e-7, 5.514e-7
0.286, -1.446e-6, -8.957e-7, 5.505e-7
0.285, -1.449e-6, -8.975e-7, 5.517e-7
0.284, -1.454e-6, -8.978e-7, 5.559e-7
0.283, -1.451e-6, -8.994e-7, 5.517e-7
0.282, -1.458e-6, -9.030e-7, 5.550e-7
0.281, -1.458e-6, -9.015e-7, 5.569e-7
0.280, -1.462e-6, -9.052e-7, 5.569e-7
0.279, -1.464e-6, -9.067e-7, 5.572e-7
0.278, -1.470e-6, -9.082e-7, 5.620e-7
0.277, -1.468e-6, -9.085e-7, 5.590e-7
0.276, -1.474e-6, -9.109e-7, 5.627e-7
0.275, -1.475e-6, -9.122e-7, 5.633e-7
0.274, -1.476e-6, -9.128e-7, 5.633e-7
0.273, -1.481e-6, -9.167e-7, 5.639e-7
0.272, -1.485e-6, -9.161e-7, 5.688e-7
0.271, -1.486e-6, -9.192e-7, 5.663e-7
0.270, -1.488e-6, -9.192e-7, 5.691e-7
0.269, -1.491e-6, -9.192e-7, 5.718e-7
0.268, -1.492e-6, -9.210e-7, 5.712e-7
0.267, -1.497e-6, -9.241e-7, 5.730e-7
0.266, -1.498e-6, -9.232e-7, 5.749e-7
0.265, -1.499e-6, -9.250e-7, 5.736e-7
0.264, -1.503e-6, -9.265e-7, 5.764e-7
0.263, -1.504e-6, -9.268e-7, 5.773e-7
0.262, -1.505e-6, -9.274e-7, 5.776e-7
0.261, -1.510e-6, -9.302e-7, 5.794e-7
0.260, -1.509e-6, -9.280e-7, 5.810e-7
0.259, -1.510e-6, -9.320e-7, 5.779e-7
0.258, -1.515e-6, -9.320e-7, 5.828e-7
0.257, -1.517e-6, -9.320e-7, 5.849e-7
0.256, -1.518e-6, -9.338e-7, 5.840e-7
0.255, -1.522e-6, -9.360e-7, 5.865e-7
0.254, -1.523e-6, -9.344e-7, 5.883e-7
0.253, -1.522e-6, -9.360e-7, 5.859e-7
0.252, -1.527e-6, -9.378e-7, 5.889e-7
0.251, -1.530e-6, -9.384e-7, 5.920e-7
0.250, -1.529e-6, -9.378e-7, 5.913e-7
0.249, -1.531e-6, -9.384e-7, 5.929e-7
0.248, -1.533e-6, -9.402e-7, 5.932e-7
0.247, -1.535e-6, -9.402e-7, 5.950e-7
0.246, -1.540e-6, -9.436e-7, 5.959e-7
0.245, -1.542e-6, -9.421e-7, 5.999e-7
0.244, -1.538e-6, -9.424e-7, 5.959e-7
0.243, -1.543e-6, -9.445e-7, 5.984e-7
0.242, -1.545e-6, -9.445e-7, 6.008e-7
0.241, -1.541e-6, -9.418e-7, 5.990e-7
0.240, -1.549e-6, -9.457e-7, 6.029e-7
0.239, -1.550e-6, -9.457e-7, 6.045e-7
0.238, -1.549e-6, -9.445e-7, 6.042e-7
0.237, -1.553e-6, -9.467e-7, 6.063e-7
0.236, -1.551e-6, -9.439e-7, 6.075e-7
0.235, -1.554e-6, -9.476e-7, 6.069e-7
0.234, -1.559e-6, -9.482e-7, 6.106e-7
0.233, -1.559e-6, -9.470e-7, 6.124e-7
0.232, -1.558e-6, -9.482e-7, 6.103e-7
0.231, -1.561e-6, -9.491e-7, 6.121e-7
0.230, -1.559e-6, -9.457e-7, 6.133e-7
0.229, -1.559e-6, -9.463e-7, 6.124e-7
0.228, -1.562e-6, -9.485e-7, 6.139e-7
0.227, -1.563e-6, -9.470e-7, 6.161e-7
0.226, -1.563e-6, -9.473e-7, 6.161e-7
0.225, -1.566e-6, -9.488e-7, 6.173e-7
0.224, -1.570e-6, -9.491e-7, 6.206e-7
0.223, -1.569e-6, -9.476e-7, 6.209e-7
0.222, -1.568e-6, -9.476e-7, 6.206e-7
0.221, -1.568e-6, -9.460e-7, 6.219e-7
0.220, -1.570e-6, -9.473e-7, 6.225e-7
0.219, -1.571e-6, -9.473e-7, 6.237e-7
0.218, -1.572e-6, -9.473e-7, 6.246e-7
0.217, -1.572e-6, -9.482e-7, 6.237e-7
0.216, -1.575e-6, -9.494e-7, 6.258e-7
0.215, -1.576e-6, -9.479e-7, 6.283e-7
0.214, -1.573e-6, -9.463e-7, 6.264e-7
0.213, -1.575e-6, -9.467e-7, 6.283e-7
0.212, -1.576e-6, -9.445e-7, 6.316e-7
0.211, -1.575e-6, -9.454e-7, 6.298e-7
0.210, -1.577e-6, -9.457e-7, 6.316e-7
0.209, -1.576e-6, -9.433e-7, 6.325e-7
0.208, -1.576e-6, -9.436e-7, 6.328e-7
0.207, -1.577e-6, -9.427e-7, 6.344e-7
0.206, -1.576e-6, -9.409e-7, 6.353e-7
0.205, -1.575e-6, -9.418e-7, 6.331e-7
0.204, -1.579e-6, -9.424e-7, 6.371e-7
0.203, -1.576e-6, -9.393e-7, 6.371e-7
0.202, -1.576e-6, -9.390e-7, 6.368e-7
0.201, -1.578e-6, -9.399e-7, 6.380e-7
0.200, -1.575e-6, -9.369e-7, 6.377e-7
0.199, -1.575e-6, -9.375e-7, 6.374e-7
0.198, -1.577e-6, -9.378e-7, 6.393e-7
0.197, -1.578e-6, -9.360e-7, 6.423e-7
0.196, -1.575e-6, -9.351e-7, 6.396e-7
0.195, -1.577e-6, -9.363e-7, 6.411e-7
0.194, -1.577e-6, -9.344e-7, 6.426e-7
0.193, -1.574e-6, -9.326e-7, 6.417e-7
0.192, -1.574e-6, -9.311e-7, 6.426e-7
0.191, -1.575e-6, -9.320e-7, 6.426e-7
0.190, -1.572e-6, -9.293e-7, 6.426e-7
0.189, -1.574e-6, -9.286e-7, 6.454e-7
0.188, -1.572e-6, -9.265e-7, 6.460e-7
0.187, -1.573e-6, -9.277e-7, 6.451e-7
0.186, -1.572e-6, -9.271e-7, 6.444e-7
0.185, -1.569e-6, -9.244e-7, 6.451e-7
0.184, -1.570e-6, -9.244e-7, 6.457e-7
0.183, -1.569e-6, -9.225e-7, 6.463e-7
0.182, -1.570e-6, -9.222e-7, 6.481e-7
0.181, -1.568e-6, -9.210e-7, 6.469e-7
0.180, -1.567e-6, -9.195e-7, 6.472e-7
0.179, -1.566e-6, -9.189e-7, 6.472e-7
0.178, -1.565e-6, -9.183e-7, 6.472e-7
0.177, -1.565e-6, -9.167e-7, 6.487e-7
0.176, -1.563e-6, -9.128e-7, 6.502e-7
0.175, -1.563e-6, -9.143e-7, 6.490e-7
0.174, -1.561e-6, -9.113e-7, 6.496e-7
0.173, -1.562e-6, -9.106e-7, 6.512e-7
0.172, -1.558e-6, -9.094e-7, 6.481e-7
0.171, -1.558e-6, -9.085e-7, 6.490e-7
0.170, -1.558e-6, -9.079e-7, 6.499e-7
0.169, -1.555e-6, -9.052e-7, 6.496e-7
0.168, -1.555e-6, -9.055e-7, 6.499e-7
0.167, -1.553e-6, -9.015e-7, 6.515e-7
0.166, -1.550e-6, -9.006e-7, 6.490e-7
0.165, -1.551e-6, -9.015e-7, 6.496e-7
0.164, -1.549e-6, -8.990e-7, 6.496e-7
0.163, -1.546e-6, -8.978e-7, 6.484e-7
0.162, -1.545e-6, -8.954e-7, 6.496e-7
0.161, -1.543e-6, -8.926e-7, 6.508e-7
0.160, -1.543e-6, -8.923e-7, 6.502e-7
0.159, -1.542e-6, -8.923e-7, 6.493e-7
0.158, -1.542e-6, -8.905e-7, 6.512e-7
0.157, -1.539e-6, -8.887e-7, 6.502e-7
0.156, -1.537e-6, -8.871e-7, 6.502e-7
0.155, -1.536e-6, -8.859e-7, 6.499e-7
0.154, -1.532e-6, -8.823e-7, 6.493e-7
0.153, -1.531e-6, -8.817e-7, 6.490e-7
0.152, -1.531e-6, -8.792e-7, 6.518e-7
0.151, -1.525e-6, -8.777e-7, 6.478e-7
0.150, -1.525e-6, -8.774e-7, 6.481e-7
0.149, -1.523e-6, -8.756e-7, 6.475e-7
0.148, -1.522e-6, -8.737e-7, 6.487e-7
0.147, -1.521e-6, -8.734e-7, 6.475e-7
0.146, -1.518e-6, -8.704e-7, 6.481e-7
0.145, -1.516e-6, -8.698e-7, 6.460e-7
0.144, -1.515e-6, -8.679e-7, 6.472e-7
0.143, -1.513e-6, -8.655e-7, 6.475e-7
0.142, -1.510e-6, -8.643e-7, 6.454e-7
0.141, -1.509e-6, -8.627e-7, 6.463e-7
0.140, -1.507e-6, -8.609e-7, 6.463e-7
0.139, -1.503e-6, -8.588e-7, 6.441e-7
0.138, -1.503e-6, -8.597e-7, 6.432e-7
0.137, -1.502e-6, -8.575e-7, 6.441e-7
0.136, -1.498e-6, -8.545e-7, 6.432e-7
0.135, -1.496e-6, -8.533e-7, 6.423e-7
0.134, -1.493e-6, -8.508e-7, 6.426e-7
0.133, -1.491e-6, -8.505e-7, 6.402e-7
0.132, -1.489e-6, -8.484e-7, 6.405e-7
0.131, -1.489e-6, -8.478e-7, 6.414e-7
0.130, -1.483e-6, -8.444e-7, 6.386e-7
0.129, -1.480e-6, -8.432e-7, 6.371e-7
0.128, -1.480e-6, -8.426e-7, 6.374e-7
0.127, -1.477e-6, -8.402e-7, 6.365e-7
0.126, -1.475e-6, -8.389e-7, 6.359e-7
0.125, -1.475e-6, -8.371e-7, 6.374e-7
0.124, -1.471e-6, -8.368e-7, 6.341e-7
0.123, -1.470e-6, -8.353e-7, 6.344e-7
0.122, -1.468e-6, -8.328e-7, 6.356e-7
0.121, -1.463e-6, -8.313e-7, 6.319e-7
0.120, -1.462e-6, -8.301e-7, 6.319e-7
0.119, -1.460e-6, -8.292e-7, 6.310e-7
0.118, -1.457e-6, -8.264e-7, 6.304e-7
0.117, -1.455e-6, -8.252e-7, 6.301e-7
0.116, -1.450e-6, -8.225e-7, 6.280e-7
0.115, -1.448e-6, -8.209e-7, 6.267e-7
0.114, -1.449e-6, -8.221e-7, 6.267e-7
0.113, -1.449e-6, -8.197e-7, 6.292e-7
0.112, -1.443e-6, -8.176e-7, 6.252e-7
0.111, -1.441e-6, -8.160e-7, 6.252e-7
0.110, -1.437e-6, -8.142e-7, 6.231e-7
0.109, -1.436e-6, -8.121e-7, 6.237e-7
0.108, -1.434e-6, -8.115e-7, 6.225e-7
0.107, -1.432e-6, -8.118e-7, 6.200e-7
0.106, -1.427e-6, -8.084e-7, 6.182e-7
0.105, -1.426e-6, -8.084e-7, 6.179e-7
0.104, -1.424e-6, -8.057e-7, 6.188e-7
0.103, -1.420e-6, -8.038e-7, 6.164e-7
0.102, -1.421e-6, -8.044e-7, 6.167e-7
0.101, -1.418e-6, -8.023e-7, 6.158e-7
0.100, -1.413e-6, -8.002e-7, 6.133e-7
0.099, -1.413e-6, -7.996e-7, 6.133e-7
0.098, -1.410e-6, -7.996e-7, 6.100e-7
0.097, -1.406e-6, -7.950e-7, 6.109e-7
0.096, -1.405e-6, -7.959e-7, 6.090e-7
0.095, -1.403e-6, -7.950e-7, 6.084e-7
0.094, -1.401e-6, -7.935e-7, 6.072e-7
0.093, -1.399e-6, -7.925e-7, 6.063e-7
0.092, -1.396e-6, -7.904e-7, 6.057e-7
0.091, -1.392e-6, -7.871e-7, 6.045e-7
0.090, -1.391e-6, -7.877e-7, 6.029e-7
0.089, -1.386e-6, -7.868e-7, 5.996e-7
0.088, -1.385e-6, -7.852e-7, 6.002e-7
0.087, -1.382e-6, -7.834e-7, 5.990e-7
0.086, -1.380e-6, -7.822e-7, 5.974e-7
0.085, -1.378e-6, -7.816e-7, 5.965e-7
0.084, -1.377e-6, -7.800e-7, 5.965e-7
0.083, -1.373e-6, -7.782e-7, 5.947e-7
0.082, -1.371e-6, -7.785e-7, 5.926e-7
0.081, -1.370e-6, -7.770e-7, 5.932e-7
0.080, -1.368e-6, -7.758e-7, 5.923e-7
0.079, -1.363e-6, -7.739e-7, 5.886e-7
0.078, -1.363e-6, -7.748e-7, 5.880e-7
0.077, -1.360e-6, -7.712e-7, 5.892e-7
0.076, -1.360e-6, -7.715e-7, 5.883e-7
0.075, -1.358e-6, -7.709e-7, 5.868e-7
0.074, -1.354e-6, -7.675e-7, 5.865e-7
0.073, -1.353e-6, -7.684e-7, 5.843e-7
0.072, -1.348e-6, -7.666e-7, 5.816e-7
0.071, -1.345e-6, -7.648e-7, 5.807e-7
0.070, -1.345e-6, -7.654e-7, 5.791e-7
0.069, -1.342e-6, -7.645e-7, 5.776e-7
0.068, -1.339e-6, -7.614e-7, 5.779e-7
0.067, -1.337e-6, -7.602e-7, 5.767e-7
0.066, -1.335e-6, -7.608e-7, 5.739e-7
0.065, -1.335e-6, -7.596e-7, 5.752e-7
0.064, -1.334e-6, -7.599e-7, 5.736e-7
0.063, -1.329e-6, -7.578e-7, 5.712e-7
0.062, -1.327e-6, -7.559e-7, 5.706e-7
0.061, -1.329e-6, -7.572e-7, 5.715e-7
0.060, -1.325e-6, -7.565e-7, 5.688e-7
0.059, -1.320e-6, -7.535e-7, 5.666e-7
0.058, -1.319e-6, -7.523e-7, 5.663e-7
0.057, -1.316e-6, -7.514e-7, 5.648e-7
0.056, -1.317e-6, -7.523e-7, 5.645e-7
0.055, -1.313e-6, -7.504e-7, 5.630e-7
0.054, -1.311e-6, -7.492e-7, 5.617e-7
0.053, -1.310e-6, -7.492e-7, 5.605e-7
0.052, -1.307e-6, -7.477e-7, 5.596e-7
0.051, -1.305e-6, -7.468e-7, 5.581e-7
0.050, -1.304e-6, -7.468e-7, 5.572e-7
0.049, -1.301e-6, -7.452e-7, 5.556e-7
0.048, -1.299e-6, -7.446e-7, 5.541e-7
0.047, -1.298e-6, -7.431e-7, 5.550e-7
0.046, -1.297e-6, -7.425e-7, 5.544e-7
0.045, -1.292e-6, -7.416e-7, 5.508e-7
0.044, -1.294e-6, -7.419e-7, 5.526e-7
0.043, -1.290e-6, -7.395e-7, 5.505e-7
0.042, -1.287e-6, -7.382e-7, 5.483e-7
0.041, -1.289e-6, -7.404e-7, 5.486e-7
0.040, -1.287e-6, -7.395e-7, 5.471e-7
0.039, -1.281e-6, -7.376e-7, 5.437e-7
0.038, -1.281e-6, -7.364e-7, 5.450e-7
0.037, -1.279e-6, -7.352e-7, 5.437e-7
0.036, -1.279e-6, -7.349e-7, 5.437e-7
0.035, -1.276e-6, -7.330e-7, 5.434e-7
0.034, -1.274e-6, -7.330e-7, 5.410e-7
0.033, -1.275e-6, -7.349e-7, 5.398e-7
0.032, -1.273e-6, -7.337e-7, 5.395e-7
0.031, -1.271e-6, -7.315e-7, 5.395e-7
0.030, -1.266e-6, -7.303e-7, 5.361e-7
0.029, -1.267e-6, -7.300e-7, 5.370e-7
0.028, -1.264e-6, -7.288e-7, 5.349e-7
0.027, -1.262e-6, -7.279e-7, 5.346e-7
0.026, -1.263e-6, -7.279e-7, 5.352e-7
0.025, -1.259e-6, -7.269e-7, 5.318e-7
0.024, -1.260e-6, -7.272e-7, 5.331e-7
0.023, -1.259e-6, -7.257e-7, 5.334e-7
0.022, -1.255e-6, -7.245e-7, 5.300e-7
0.021, -1.253e-6, -7.251e-7, 5.276e-7
0.020, -1.254e-6, -7.242e-7, 5.294e-7
0.019, -1.252e-6, -7.236e-7, 5.285e-7
0.018, -1.248e-6, -7.236e-7, 5.248e-7
0.017, -1.249e-6, -7.221e-7, 5.270e-7
0.016, -1.248e-6, -7.224e-7, 5.257e-7
0.015, -1.246e-6, -7.218e-7, 5.239e-7
0.014, -1.245e-6, -7.199e-7, 5.248e-7
0.013, -1.243e-6, -7.193e-7, 5.239e-7
0.012, -1.242e-6, -7.199e-7, 5.221e-7
0.011, -1.240e-6, -7.181e-7, 5.224e-7
0.010, -1.239e-6, -7.184e-7, 5.202e-7
0.009, -1.238e-6, -7.175e-7, 5.209e-7
0.008, -1.238e-6, -7.181e-7, 5.199e-7
0.007, -1.235e-6, -7.160e-7, 5.193e-7
0.006, -1.234e-6, -7.153e-7, 5.187e-7
0.005, -1.231e-6, -7.144e-7, 5.166e-7
0.004, -1.231e-6, -7.135e-7, 5.172e-7
0.003, -1.229e-6, -7.141e-7, 5.151e-7
0.002, -1.229e-6, -7.141e-7, 5.154e-7
0.001, -1.228e-6, -7.138e-7, 5.144e-7
-0.000, -1.226e-6, -7.114e-7, 5.144e-7
-0.001, -1.226e-6, -7.114e-7, 5.141e-7
-0.002, -1.227e-6, -7.120e-7, 5.154e-7
-0.003, -1.222e-6, -7.099e-7, 5.126e-7
-0.004, -1.222e-6, -7.099e-7, 5.123e-7
-0.005, -1.220e-6, -7.083e-7, 5.120e-7
-0.006, -1.219e-6, -7.089e-7, 5.102e-7
-0.007, -1.215e-6, -7.071e-7, 5.083e-7
-0.008, -1.217e-6, -7.065e-7, 5.102e-7
-0.009, -1.215e-6, -7.077e-7, 5.068e-7
-0.010, -1.216e-6, -7.065e-7, 5.093e-7
-0.011, -1.213e-6, -7.053e-7, 5.080e-7
-0.012, -1.210e-6, -7.047e-7, 5.056e-7
-0.013, -1.212e-6, -7.050e-7, 5.074e-7
-0.014, -1.210e-6, -7.037e-7, 5.059e-7
-0.015, -1.208e-6, -7.031e-7, 5.047e-7
-0.016, -1.209e-6, -7.034e-7, 5.056e-7
-0.017, -1.206e-6, -7.025e-7, 5.038e-7
-0.018, -1.206e-6, -7.022e-7, 5.041e-7
-0.019, -1.205e-6, -7.013e-7, 5.041e-7
-0.020, -1.203e-6, -6.989e-7, 5.038e-7
-0.021, -1.201e-6, -6.995e-7, 5.013e-7
-0.022, -1.202e-6, -6.995e-7, 5.022e-7
-0.023, -1.200e-6, -6.980e-7, 5.025e-7
-0.024, -1.198e-6, -6.980e-7, 5.004e-7
-0.025, -1.200e-6, -6.973e-7, 5.022e-7
-0.026, -1.197e-6, -6.967e-7, 4.998e-7
-0.027, -1.197e-6, -6.970e-7, 4.998e-7
-0.028, -1.197e-6, -6.970e-7, 4.998e-7
-0.029, -1.196e-6, -6.958e-7, 5.001e-7
-0.030, -1.193e-6, -6.946e-7, 4.983e-7
-0.031, -1.194e-6, -6.943e-7, 4.995e-7
-0.032, -1.191e-6, -6.928e-7, 4.983e-7
-0.033, -1.191e-6, -6.934e-7, 4.980e-7
-0.034, -1.190e-6, -6.931e-7, 4.974e-7
-0.035, -1.190e-6, -6.918e-7, 4.977e-7
-0.036, -1.190e-6, -6.909e-7, 4.986e-7
-0.037, -1.188e-6, -6.909e-7, 4.970e-7
-0.038, -1.187e-6, -6.903e-7, 4.970e-7
-0.039, -1.186e-6, -6.888e-7, 4.974e-7
-0.040, -1.185e-6, -6.897e-7, 4.955e-7
-0.041, -1.183e-6, -6.879e-7, 4.955e-7
-0.042, -1.185e-6, -6.888e-7, 4.958e-7
-0.043, -1.182e-6, -6.873e-7, 4.949e-7
-0.044, -1.183e-6, -6.867e-7, 4.961e-7
-0.045, -1.182e-6, -6.864e-7, 4.955e-7
-0.046, -1.179e-6, -6.854e-7, 4.937e-7
-0.047, -1.179e-6, -6.857e-7, 4.937e-7
-0.048, -1.177e-6, -6.839e-7, 4.928e-7
-0.049, -1.177e-6, -6.842e-7, 4.928e-7
-0.050, -1.177e-6, -6.833e-7, 4.934e-7
