Feb. 28, 2018   11:27:02
Square Wave Voltammetry
File: c:\users\electrochemist\desktop\2018\28022018_unbuffered_9,2\12_e6_9,2_0118_ph5,08_5.txt
Data Source:  Experiment
Instrument Model:  CHI1040A
Header: 
Note: 

Init E (V) = 0.5
Final E (V) = -0.05
Incr E (V) = 0.001
Amplitude (V) = 0.1
Frequency (Hz) = 150
Quiet Time (sec) = 0
Sensitivity (A/V) = 1e-6

Difference:

Forward:

Reverse:

Potential/V, Diff(i/A), For(i/A), Rev(i/A)

0.499, -7.965e-7, -2.054e-7, 5.910e-7
0.498, -1.011e-6, -4.999e-7, 5.114e-7
0.497, -1.004e-6, -5.164e-7, 4.873e-7
0.496, -1.000e-6, -5.243e-7, 4.757e-7
0.495, -9.908e-7, -5.274e-7, 4.635e-7
0.494, -9.866e-7, -5.295e-7, 4.571e-7
0.493, -9.872e-7, -5.335e-7, 4.537e-7
0.492, -9.835e-7, -5.329e-7, 4.507e-7
0.491, -9.805e-7, -5.356e-7, 4.449e-7
0.490, -9.823e-7, -5.380e-7, 4.443e-7
0.489, -9.793e-7, -5.380e-7, 4.412e-7
0.488, -9.802e-7, -5.414e-7, 4.388e-7
0.487, -9.802e-7, -5.426e-7, 4.375e-7
0.486, -9.768e-7, -5.411e-7, 4.357e-7
0.485, -9.796e-7, -5.454e-7, 4.342e-7
0.484, -9.799e-7, -5.475e-7, 4.324e-7
0.483, -9.780e-7, -5.463e-7, 4.317e-7
0.482, -9.780e-7, -5.481e-7, 4.299e-7
0.481, -9.796e-7, -5.499e-7, 4.296e-7
0.480, -9.793e-7, -5.515e-7, 4.278e-7
0.479, -9.802e-7, -5.512e-7, 4.290e-7
0.478, -9.814e-7, -5.530e-7, 4.284e-7
0.477, -9.820e-7, -5.551e-7, 4.269e-7
0.476, -9.817e-7, -5.557e-7, 4.260e-7
0.475, -9.829e-7, -5.567e-7, 4.263e-7
0.474, -9.817e-7, -5.567e-7, 4.250e-7
0.473, -9.841e-7, -5.591e-7, 4.250e-7
0.472, -9.844e-7, -5.603e-7, 4.241e-7
0.471, -9.851e-7, -5.612e-7, 4.238e-7
0.470, -9.863e-7, -5.622e-7, 4.241e-7
0.469, -9.884e-7, -5.643e-7, 4.241e-7
0.468, -9.857e-7, -5.634e-7, 4.223e-7
0.467, -9.896e-7, -5.655e-7, 4.241e-7
0.466, -9.924e-7, -5.686e-7, 4.238e-7
0.465, -9.930e-7, -5.695e-7, 4.235e-7
0.464, -9.918e-7, -5.704e-7, 4.214e-7
0.463, -9.948e-7, -5.710e-7, 4.238e-7
0.462, -9.948e-7, -5.719e-7, 4.229e-7
0.461, -9.966e-7, -5.741e-7, 4.226e-7
0.460, -9.985e-7, -5.762e-7, 4.223e-7
0.459, -9.994e-7, -5.759e-7, 4.235e-7
0.458, -1.005e-6, -5.808e-7, 4.247e-7
0.457, -1.002e-6, -5.805e-7, 4.220e-7
0.456, -1.003e-6, -5.802e-7, 4.226e-7
0.455, -1.004e-6, -5.814e-7, 4.229e-7
0.454, -1.008e-6, -5.838e-7, 4.244e-7
0.453, -1.008e-6, -5.847e-7, 4.232e-7
0.452, -1.008e-6, -5.841e-7, 4.238e-7
0.451, -1.011e-6, -5.869e-7, 4.238e-7
0.450, -1.015e-6, -5.890e-7, 4.256e-7
0.449, -1.015e-6, -5.893e-7, 4.256e-7
0.448, -1.017e-6, -5.914e-7, 4.256e-7
0.447, -1.018e-6, -5.927e-7, 4.250e-7
0.446, -1.020e-6, -5.954e-7, 4.250e-7
0.445, -1.020e-6, -5.948e-7, 4.250e-7
0.444, -1.022e-6, -5.969e-7, 4.253e-7
0.443, -1.024e-6, -5.997e-7, 4.238e-7
0.442, -1.028e-6, -6.006e-7, 4.272e-7
0.441, -1.027e-6, -6.000e-7, 4.275e-7
0.440, -1.029e-6, -6.024e-7, 4.263e-7
0.439, -1.033e-6, -6.058e-7, 4.272e-7
0.438, -1.032e-6, -6.049e-7, 4.272e-7
0.437, -1.035e-6, -6.082e-7, 4.272e-7
0.436, -1.038e-6, -6.095e-7, 4.287e-7
0.435, -1.038e-6, -6.098e-7, 4.287e-7
0.434, -1.039e-6, -6.091e-7, 4.299e-7
0.433, -1.044e-6, -6.134e-7, 4.302e-7
0.432, -1.043e-6, -6.143e-7, 4.290e-7
0.431, -1.046e-6, -6.162e-7, 4.296e-7
0.430, -1.049e-6, -6.180e-7, 4.305e-7
0.429, -1.049e-6, -6.183e-7, 4.308e-7
0.428, -1.052e-6, -6.223e-7, 4.302e-7
0.427, -1.055e-6, -6.244e-7, 4.308e-7
0.426, -1.057e-6, -6.241e-7, 4.333e-7
0.425, -1.058e-6, -6.275e-7, 4.305e-7
0.424, -1.060e-6, -6.287e-7, 4.311e-7
0.423, -1.063e-6, -6.293e-7, 4.336e-7
0.422, -1.064e-6, -6.305e-7, 4.336e-7
0.421, -1.066e-6, -6.326e-7, 4.333e-7
0.420, -1.066e-6, -6.333e-7, 4.330e-7
0.419, -1.068e-6, -6.342e-7, 4.342e-7
0.418, -1.072e-6, -6.363e-7, 4.360e-7
0.417, -1.076e-6, -6.391e-7, 4.372e-7
0.416, -1.076e-6, -6.406e-7, 4.357e-7
0.415, -1.081e-6, -6.436e-7, 4.372e-7
0.414, -1.082e-6, -6.455e-7, 4.363e-7
0.413, -1.085e-6, -6.461e-7, 4.385e-7
0.412, -1.087e-6, -6.479e-7, 4.391e-7
0.411, -1.087e-6, -6.476e-7, 4.397e-7
0.410, -1.088e-6, -6.497e-7, 4.382e-7
0.409, -1.092e-6, -6.519e-7, 4.403e-7
0.408, -1.097e-6, -6.543e-7, 4.427e-7
0.407, -1.097e-6, -6.561e-7, 4.412e-7
0.406, -1.102e-6, -6.583e-7, 4.440e-7
0.405, -1.103e-6, -6.604e-7, 4.424e-7
0.404, -1.103e-6, -6.616e-7, 4.418e-7
0.403, -1.109e-6, -6.647e-7, 4.443e-7
0.402, -1.109e-6, -6.647e-7, 4.440e-7
0.401, -1.110e-6, -6.665e-7, 4.433e-7
0.400, -1.115e-6, -6.693e-7, 4.461e-7
0.399, -1.118e-6, -6.711e-7, 4.467e-7
0.398, -1.118e-6, -6.729e-7, 4.452e-7
0.397, -1.121e-6, -6.757e-7, 4.452e-7
0.396, -1.124e-6, -6.766e-7, 4.473e-7
0.395, -1.126e-6, -6.790e-7, 4.473e-7
0.394, -1.130e-6, -6.793e-7, 4.507e-7
0.393, -1.129e-6, -6.806e-7, 4.485e-7
0.392, -1.133e-6, -6.842e-7, 4.491e-7
0.391, -1.138e-6, -6.879e-7, 4.504e-7
0.390, -1.138e-6, -6.867e-7, 4.513e-7
0.389, -1.141e-6, -6.906e-7, 4.504e-7
0.388, -1.146e-6, -6.918e-7, 4.537e-7
0.387, -1.146e-6, -6.925e-7, 4.537e-7
0.386, -1.151e-6, -6.976e-7, 4.531e-7
0.385, -1.151e-6, -6.973e-7, 4.540e-7
0.384, -1.156e-6, -6.998e-7, 4.562e-7
0.383, -1.158e-6, -7.022e-7, 4.559e-7
0.382, -1.156e-6, -7.010e-7, 4.552e-7
0.381, -1.164e-6, -7.059e-7, 4.577e-7
0.380, -1.168e-6, -7.080e-7, 4.598e-7
0.379, -1.170e-6, -7.108e-7, 4.592e-7
0.378, -1.172e-6, -7.111e-7, 4.613e-7
0.377, -1.175e-6, -7.138e-7, 4.613e-7
0.376, -1.178e-6, -7.156e-7, 4.620e-7
0.375, -1.178e-6, -7.156e-7, 4.626e-7
0.374, -1.179e-6, -7.187e-7, 4.601e-7
0.373, -1.185e-6, -7.211e-7, 4.638e-7
0.372, -1.189e-6, -7.236e-7, 4.653e-7
0.371, -1.190e-6, -7.260e-7, 4.641e-7
0.370, -1.196e-6, -7.282e-7, 4.678e-7
0.369, -1.199e-6, -7.303e-7, 4.684e-7
0.368, -1.200e-6, -7.327e-7, 4.671e-7
0.367, -1.202e-6, -7.337e-7, 4.687e-7
0.366, -1.205e-6, -7.343e-7, 4.705e-7
0.365, -1.206e-6, -7.370e-7, 4.690e-7
0.364, -1.211e-6, -7.410e-7, 4.699e-7
0.363, -1.212e-6, -7.410e-7, 4.708e-7
0.362, -1.215e-6, -7.437e-7, 4.717e-7
0.361, -1.220e-6, -7.471e-7, 4.729e-7
0.360, -1.221e-6, -7.477e-7, 4.729e-7
0.359, -1.227e-6, -7.517e-7, 4.754e-7
0.358, -1.227e-6, -7.520e-7, 4.751e-7
0.357, -1.233e-6, -7.538e-7, 4.787e-7
0.356, -1.232e-6, -7.568e-7, 4.754e-7
0.355, -1.237e-6, -7.584e-7, 4.784e-7
0.354, -1.242e-6, -7.617e-7, 4.806e-7
0.353, -1.241e-6, -7.626e-7, 4.784e-7
0.352, -1.247e-6, -7.654e-7, 4.815e-7
0.351, -1.249e-6, -7.666e-7, 4.824e-7
0.350, -1.254e-6, -7.706e-7, 4.830e-7
0.349, -1.258e-6, -7.727e-7, 4.848e-7
0.348, -1.258e-6, -7.736e-7, 4.848e-7
0.347, -1.262e-6, -7.770e-7, 4.848e-7
0.346, -1.266e-6, -7.782e-7, 4.879e-7
0.345, -1.270e-6, -7.816e-7, 4.888e-7
0.344, -1.272e-6, -7.831e-7, 4.885e-7
0.343, -1.276e-6, -7.852e-7, 4.913e-7
0.342, -1.279e-6, -7.883e-7, 4.906e-7
0.341, -1.281e-6, -7.901e-7, 4.909e-7
0.340, -1.283e-6, -7.919e-7, 4.916e-7
0.339, -1.285e-6, -7.922e-7, 4.931e-7
0.338, -1.286e-6, -7.941e-7, 4.916e-7
0.337, -1.293e-6, -7.986e-7, 4.940e-7
0.336, -1.296e-6, -7.993e-7, 4.964e-7
0.335, -1.297e-6, -8.002e-7, 4.964e-7
0.334, -1.301e-6, -8.035e-7, 4.980e-7
0.333, -1.305e-6, -8.054e-7, 4.995e-7
0.332, -1.310e-6, -8.087e-7, 5.010e-7
0.331, -1.310e-6, -8.102e-7, 5.001e-7
0.330, -1.314e-6, -8.124e-7, 5.016e-7
0.329, -1.318e-6, -8.139e-7, 5.041e-7
0.328, -1.319e-6, -8.145e-7, 5.041e-7
0.327, -1.323e-6, -8.179e-7, 5.056e-7
0.326, -1.325e-6, -8.194e-7, 5.053e-7
0.325, -1.331e-6, -8.237e-7, 5.071e-7
0.324, -1.334e-6, -8.249e-7, 5.086e-7
0.323, -1.336e-6, -8.273e-7, 5.090e-7
0.322, -1.339e-6, -8.279e-7, 5.108e-7
0.321, -1.343e-6, -8.310e-7, 5.117e-7
0.320, -1.346e-6, -8.328e-7, 5.129e-7
0.319, -1.352e-6, -8.365e-7, 5.151e-7
0.318, -1.353e-6, -8.374e-7, 5.160e-7
0.317, -1.356e-6, -8.398e-7, 5.160e-7
0.316, -1.358e-6, -8.414e-7, 5.169e-7
0.315, -1.361e-6, -8.429e-7, 5.178e-7
0.314, -1.363e-6, -8.450e-7, 5.178e-7
0.313, -1.369e-6, -8.487e-7, 5.205e-7
0.312, -1.370e-6, -8.481e-7, 5.215e-7
0.311, -1.373e-6, -8.499e-7, 5.233e-7
0.310, -1.376e-6, -8.530e-7, 5.227e-7
0.309, -1.380e-6, -8.542e-7, 5.257e-7
0.308, -1.382e-6, -8.572e-7, 5.245e-7
0.307, -1.387e-6, -8.594e-7, 5.273e-7
0.306, -1.388e-6, -8.597e-7, 5.288e-7
0.305, -1.391e-6, -8.633e-7, 5.279e-7
0.304, -1.395e-6, -8.655e-7, 5.300e-7
0.303, -1.399e-6, -8.655e-7, 5.331e-7
0.302, -1.397e-6, -8.670e-7, 5.300e-7
0.301, -1.403e-6, -8.710e-7, 5.324e-7
0.300, -1.407e-6, -8.713e-7, 5.358e-7
0.299, -1.409e-6, -8.740e-7, 5.346e-7
0.298, -1.410e-6, -8.740e-7, 5.355e-7
0.297, -1.415e-6, -8.765e-7, 5.386e-7
0.296, -1.417e-6, -8.786e-7, 5.386e-7
0.295, -1.422e-6, -8.810e-7, 5.413e-7
0.294, -1.424e-6, -8.823e-7, 5.416e-7
0.293, -1.427e-6, -8.838e-7, 5.428e-7
0.292, -1.430e-6, -8.868e-7, 5.431e-7
0.291, -1.433e-6, -8.875e-7, 5.453e-7
0.290, -1.435e-6, -8.893e-7, 5.453e-7
0.289, -1.438e-6, -8.911e-7, 5.468e-7
0.288, -1.441e-6, -8.917e-7, 5.492e-7
0.287, -1.443e-6, -8.945e-7, 5.489e-7
0.286, -1.445e-6, -8.957e-7, 5.489e-7
0.285, -1.449e-6, -8.987e-7, 5.505e-7
0.284, -1.452e-6, -8.997e-7, 5.523e-7
0.283, -1.455e-6, -9.009e-7, 5.541e-7
0.282, -1.458e-6, -9.021e-7, 5.556e-7
0.281, -1.458e-6, -9.033e-7, 5.547e-7
0.280, -1.462e-6, -9.048e-7, 5.572e-7
0.279, -1.465e-6, -9.067e-7, 5.584e-7
0.278, -1.467e-6, -9.079e-7, 5.593e-7
0.277, -1.471e-6, -9.100e-7, 5.611e-7
0.276, -1.475e-6, -9.113e-7, 5.633e-7
0.275, -1.473e-6, -9.116e-7, 5.617e-7
0.274, -1.482e-6, -9.149e-7, 5.666e-7
0.273, -1.482e-6, -9.140e-7, 5.678e-7
0.272, -1.482e-6, -9.161e-7, 5.663e-7
0.271, -1.489e-6, -9.198e-7, 5.694e-7
0.270, -1.489e-6, -9.201e-7, 5.694e-7
0.269, -1.492e-6, -9.216e-7, 5.703e-7
0.268, -1.489e-6, -9.192e-7, 5.700e-7
0.267, -1.498e-6, -9.225e-7, 5.752e-7
0.266, -1.499e-6, -9.253e-7, 5.733e-7
0.265, -1.501e-6, -9.259e-7, 5.749e-7
0.264, -1.499e-6, -9.244e-7, 5.749e-7
0.263, -1.503e-6, -9.268e-7, 5.758e-7
0.262, -1.509e-6, -9.299e-7, 5.788e-7
0.261, -1.510e-6, -9.311e-7, 5.788e-7
0.260, -1.511e-6, -9.317e-7, 5.794e-7
0.259, -1.514e-6, -9.326e-7, 5.816e-7
0.258, -1.514e-6, -9.311e-7, 5.825e-7
0.257, -1.515e-6, -9.326e-7, 5.825e-7
0.256, -1.518e-6, -9.341e-7, 5.837e-7
0.255, -1.520e-6, -9.338e-7, 5.865e-7
0.254, -1.525e-6, -9.375e-7, 5.877e-7
0.253, -1.527e-6, -9.369e-7, 5.904e-7
0.252, -1.529e-6, -9.393e-7, 5.895e-7
0.251, -1.532e-6, -9.390e-7, 5.926e-7
0.250, -1.533e-6, -9.412e-7, 5.913e-7
0.249, -1.530e-6, -9.384e-7, 5.916e-7
0.248, -1.535e-6, -9.409e-7, 5.941e-7
0.247, -1.537e-6, -9.412e-7, 5.956e-7
0.246, -1.538e-6, -9.415e-7, 5.968e-7
0.245, -1.540e-6, -9.427e-7, 5.968e-7
0.244, -1.543e-6, -9.448e-7, 5.981e-7
0.243, -1.544e-6, -9.433e-7, 6.005e-7
0.242, -1.545e-6, -9.451e-7, 6.002e-7
0.241, -1.547e-6, -9.460e-7, 6.014e-7
0.240, -1.547e-6, -9.448e-7, 6.026e-7
0.239, -1.548e-6, -9.460e-7, 6.023e-7
0.238, -1.550e-6, -9.470e-7, 6.026e-7
0.237, -1.552e-6, -9.451e-7, 6.066e-7
0.236, -1.554e-6, -9.473e-7, 6.063e-7
0.235, -1.556e-6, -9.476e-7, 6.084e-7
0.234, -1.558e-6, -9.476e-7, 6.100e-7
0.233, -1.558e-6, -9.494e-7, 6.090e-7
0.232, -1.559e-6, -9.482e-7, 6.106e-7
0.231, -1.561e-6, -9.485e-7, 6.121e-7
0.230, -1.561e-6, -9.494e-7, 6.115e-7
0.229, -1.565e-6, -9.503e-7, 6.151e-7
0.228, -1.563e-6, -9.482e-7, 6.148e-7
0.227, -1.565e-6, -9.494e-7, 6.161e-7
0.226, -1.569e-6, -9.500e-7, 6.185e-7
0.225, -1.567e-6, -9.494e-7, 6.176e-7
0.224, -1.565e-6, -9.479e-7, 6.176e-7
0.223, -1.569e-6, -9.491e-7, 6.197e-7
0.222, -1.568e-6, -9.476e-7, 6.203e-7
0.221, -1.569e-6, -9.485e-7, 6.203e-7
0.220, -1.574e-6, -9.500e-7, 6.240e-7
0.219, -1.571e-6, -9.479e-7, 6.231e-7
0.218, -1.573e-6, -9.494e-7, 6.237e-7
0.217, -1.572e-6, -9.479e-7, 6.246e-7
0.216, -1.575e-6, -9.476e-7, 6.277e-7
0.215, -1.575e-6, -9.467e-7, 6.283e-7
0.214, -1.576e-6, -9.482e-7, 6.283e-7
0.213, -1.575e-6, -9.457e-7, 6.292e-7
0.212, -1.575e-6, -9.439e-7, 6.307e-7
0.211, -1.576e-6, -9.463e-7, 6.295e-7
0.210, -1.579e-6, -9.457e-7, 6.328e-7
0.209, -1.577e-6, -9.457e-7, 6.313e-7
0.208, -1.578e-6, -9.445e-7, 6.331e-7
0.207, -1.578e-6, -9.445e-7, 6.338e-7
0.206, -1.577e-6, -9.445e-7, 6.325e-7
0.205, -1.579e-6, -9.442e-7, 6.353e-7
0.204, -1.579e-6, -9.430e-7, 6.365e-7
0.203, -1.576e-6, -9.424e-7, 6.338e-7
0.202, -1.577e-6, -9.409e-7, 6.359e-7
0.201, -1.579e-6, -9.396e-7, 6.389e-7
0.200, -1.579e-6, -9.387e-7, 6.402e-7
0.199, -1.578e-6, -9.399e-7, 6.380e-7
0.198, -1.579e-6, -9.381e-7, 6.408e-7
0.197, -1.577e-6, -9.378e-7, 6.396e-7
0.196, -1.579e-6, -9.375e-7, 6.417e-7
0.195, -1.579e-6, -9.366e-7, 6.420e-7
0.194, -1.578e-6, -9.363e-7, 6.417e-7
0.193, -1.577e-6, -9.351e-7, 6.420e-7
0.192, -1.576e-6, -9.329e-7, 6.429e-7
0.191, -1.576e-6, -9.335e-7, 6.426e-7
0.190, -1.578e-6, -9.329e-7, 6.454e-7
0.189, -1.576e-6, -9.302e-7, 6.457e-7
0.188, -1.574e-6, -9.293e-7, 6.451e-7
0.187, -1.576e-6, -9.296e-7, 6.463e-7
0.186, -1.576e-6, -9.271e-7, 6.487e-7
0.185, -1.573e-6, -9.262e-7, 6.466e-7
0.184, -1.572e-6, -9.256e-7, 6.463e-7
0.183, -1.573e-6, -9.247e-7, 6.481e-7
0.182, -1.571e-6, -9.238e-7, 6.469e-7
0.181, -1.570e-6, -9.222e-7, 6.481e-7
0.180, -1.569e-6, -9.210e-7, 6.478e-7
0.179, -1.566e-6, -9.180e-7, 6.478e-7
0.178, -1.571e-6, -9.183e-7, 6.524e-7
0.177, -1.566e-6, -9.164e-7, 6.496e-7
0.176, -1.566e-6, -9.158e-7, 6.499e-7
0.175, -1.564e-6, -9.143e-7, 6.499e-7
0.174, -1.562e-6, -9.134e-7, 6.484e-7
0.173, -1.562e-6, -9.119e-7, 6.505e-7
0.172, -1.561e-6, -9.113e-7, 6.499e-7
0.171, -1.560e-6, -9.091e-7, 6.505e-7
0.170, -1.560e-6, -9.085e-7, 6.512e-7
0.169, -1.558e-6, -9.082e-7, 6.502e-7
0.168, -1.556e-6, -9.042e-7, 6.518e-7
0.167, -1.553e-6, -9.036e-7, 6.496e-7
0.166, -1.556e-6, -9.036e-7, 6.524e-7
0.165, -1.552e-6, -9.009e-7, 6.515e-7
0.164, -1.549e-6, -8.990e-7, 6.499e-7
0.163, -1.550e-6, -8.987e-7, 6.508e-7
0.162, -1.548e-6, -8.963e-7, 6.518e-7
0.161, -1.547e-6, -8.963e-7, 6.505e-7
0.160, -1.543e-6, -8.942e-7, 6.487e-7
0.159, -1.544e-6, -8.926e-7, 6.512e-7
0.158, -1.540e-6, -8.902e-7, 6.499e-7
0.157, -1.542e-6, -8.902e-7, 6.515e-7
0.156, -1.538e-6, -8.881e-7, 6.496e-7
0.155, -1.536e-6, -8.865e-7, 6.496e-7
0.154, -1.532e-6, -8.838e-7, 6.484e-7
0.153, -1.533e-6, -8.820e-7, 6.512e-7
0.152, -1.529e-6, -8.798e-7, 6.487e-7
0.151, -1.533e-6, -8.813e-7, 6.512e-7
0.150, -1.527e-6, -8.780e-7, 6.490e-7
0.149, -1.524e-6, -8.768e-7, 6.475e-7
0.148, -1.525e-6, -8.771e-7, 6.475e-7
0.147, -1.523e-6, -8.728e-7, 6.499e-7
0.146, -1.520e-6, -8.713e-7, 6.484e-7
0.145, -1.518e-6, -8.716e-7, 6.460e-7
0.144, -1.518e-6, -8.691e-7, 6.484e-7
0.143, -1.512e-6, -8.670e-7, 6.451e-7
0.142, -1.511e-6, -8.661e-7, 6.444e-7
0.141, -1.514e-6, -8.658e-7, 6.478e-7
0.140, -1.507e-6, -8.630e-7, 6.438e-7
0.139, -1.508e-6, -8.627e-7, 6.454e-7
0.138, -1.505e-6, -8.591e-7, 6.457e-7
0.137, -1.502e-6, -8.566e-7, 6.451e-7
0.136, -1.501e-6, -8.572e-7, 6.438e-7
0.135, -1.499e-6, -8.557e-7, 6.429e-7
0.134, -1.493e-6, -8.533e-7, 6.402e-7
0.133, -1.495e-6, -8.527e-7, 6.426e-7
0.132, -1.493e-6, -8.505e-7, 6.420e-7
0.131, -1.490e-6, -8.496e-7, 6.402e-7
0.130, -1.488e-6, -8.487e-7, 6.393e-7
0.129, -1.485e-6, -8.453e-7, 6.393e-7
0.128, -1.480e-6, -8.423e-7, 6.374e-7
0.127, -1.479e-6, -8.417e-7, 6.374e-7
0.126, -1.476e-6, -8.386e-7, 6.371e-7
0.125, -1.475e-6, -8.386e-7, 6.368e-7
0.124, -1.474e-6, -8.377e-7, 6.359e-7
0.123, -1.474e-6, -8.371e-7, 6.368e-7
0.122, -1.468e-6, -8.353e-7, 6.322e-7
0.121, -1.468e-6, -8.341e-7, 6.335e-7
0.120, -1.466e-6, -8.331e-7, 6.331e-7
0.119, -1.461e-6, -8.298e-7, 6.310e-7
0.118, -1.458e-6, -8.289e-7, 6.295e-7
0.117, -1.458e-6, -8.276e-7, 6.307e-7
0.116, -1.455e-6, -8.246e-7, 6.301e-7
0.115, -1.453e-6, -8.246e-7, 6.283e-7
0.114, -1.452e-6, -8.231e-7, 6.289e-7
0.113, -1.446e-6, -8.203e-7, 6.261e-7
0.112, -1.447e-6, -8.206e-7, 6.267e-7
0.111, -1.444e-6, -8.179e-7, 6.261e-7
0.110, -1.437e-6, -8.148e-7, 6.225e-7
0.109, -1.440e-6, -8.160e-7, 6.237e-7
0.108, -1.436e-6, -8.130e-7, 6.228e-7
0.107, -1.432e-6, -8.106e-7, 6.216e-7
0.106, -1.429e-6, -8.096e-7, 6.197e-7
0.105, -1.428e-6, -8.075e-7, 6.206e-7
0.104, -1.426e-6, -8.078e-7, 6.185e-7
0.103, -1.424e-6, -8.060e-7, 6.179e-7
0.102, -1.421e-6, -8.038e-7, 6.167e-7
0.101, -1.418e-6, -8.032e-7, 6.145e-7
0.100, -1.417e-6, -8.017e-7, 6.151e-7
0.099, -1.415e-6, -8.011e-7, 6.136e-7
0.098, -1.410e-6, -7.990e-7, 6.115e-7
0.097, -1.409e-6, -7.983e-7, 6.106e-7
0.096, -1.409e-6, -7.971e-7, 6.115e-7
0.095, -1.406e-6, -7.962e-7, 6.093e-7
0.094, -1.403e-6, -7.944e-7, 6.081e-7
0.093, -1.400e-6, -7.907e-7, 6.093e-7
0.092, -1.396e-6, -7.916e-7, 6.045e-7
0.091, -1.395e-6, -7.907e-7, 6.042e-7
0.090, -1.394e-6, -7.883e-7, 6.057e-7
0.089, -1.388e-6, -7.861e-7, 6.020e-7
0.088, -1.388e-6, -7.864e-7, 6.017e-7
0.087, -1.386e-6, -7.852e-7, 6.005e-7
0.086, -1.382e-6, -7.837e-7, 5.981e-7
0.085, -1.381e-6, -7.822e-7, 5.984e-7
0.084, -1.379e-6, -7.819e-7, 5.968e-7
0.083, -1.374e-6, -7.791e-7, 5.947e-7
0.082, -1.372e-6, -7.785e-7, 5.938e-7
0.081, -1.371e-6, -7.785e-7, 5.923e-7
0.080, -1.369e-6, -7.761e-7, 5.926e-7
0.079, -1.367e-6, -7.755e-7, 5.920e-7
0.078, -1.364e-6, -7.742e-7, 5.895e-7
0.077, -1.361e-6, -7.727e-7, 5.880e-7
0.076, -1.359e-6, -7.724e-7, 5.871e-7
0.075, -1.357e-6, -7.706e-7, 5.865e-7
0.074, -1.355e-6, -7.700e-7, 5.852e-7
0.073, -1.353e-6, -7.703e-7, 5.825e-7
0.072, -1.352e-6, -7.678e-7, 5.843e-7
0.071, -1.347e-6, -7.660e-7, 5.810e-7
0.070, -1.347e-6, -7.654e-7, 5.819e-7
0.069, -1.343e-6, -7.645e-7, 5.788e-7
0.068, -1.341e-6, -7.639e-7, 5.770e-7
0.067, -1.340e-6, -7.629e-7, 5.773e-7
0.066, -1.338e-6, -7.608e-7, 5.767e-7
0.065, -1.337e-6, -7.611e-7, 5.758e-7
0.064, -1.331e-6, -7.587e-7, 5.721e-7
0.063, -1.330e-6, -7.578e-7, 5.721e-7
0.062, -1.330e-6, -7.572e-7, 5.727e-7
0.061, -1.327e-6, -7.565e-7, 5.703e-7
0.060, -1.326e-6, -7.559e-7, 5.700e-7
0.059, -1.322e-6, -7.547e-7, 5.672e-7
0.058, -1.321e-6, -7.550e-7, 5.660e-7
0.057, -1.320e-6, -7.547e-7, 5.654e-7
0.056, -1.318e-6, -7.517e-7, 5.663e-7
0.055, -1.315e-6, -7.507e-7, 5.639e-7
0.054, -1.312e-6, -7.501e-7, 5.620e-7
0.053, -1.311e-6, -7.486e-7, 5.620e-7
0.052, -1.307e-6, -7.477e-7, 5.593e-7
0.051, -1.305e-6, -7.477e-7, 5.578e-7
0.050, -1.304e-6, -7.471e-7, 5.572e-7
0.049, -1.303e-6, -7.465e-7, 5.566e-7
0.048, -1.301e-6, -7.452e-7, 5.553e-7
0.047, -1.300e-6, -7.449e-7, 5.553e-7
0.046, -1.296e-6, -7.434e-7, 5.526e-7
0.045, -1.296e-6, -7.422e-7, 5.535e-7
0.044, -1.296e-6, -7.428e-7, 5.529e-7
0.043, -1.293e-6, -7.425e-7, 5.508e-7
0.042, -1.289e-6, -7.410e-7, 5.480e-7
0.041, -1.287e-6, -7.385e-7, 5.486e-7
0.040, -1.288e-6, -7.395e-7, 5.483e-7
0.039, -1.285e-6, -7.379e-7, 5.474e-7
0.038, -1.282e-6, -7.367e-7, 5.453e-7
0.037, -1.282e-6, -7.370e-7, 5.453e-7
0.036, -1.281e-6, -7.352e-7, 5.456e-7
0.035, -1.276e-6, -7.352e-7, 5.410e-7
0.034, -1.275e-6, -7.330e-7, 5.416e-7
0.033, -1.275e-6, -7.333e-7, 5.419e-7
0.032, -1.273e-6, -7.330e-7, 5.398e-7
0.031, -1.270e-6, -7.312e-7, 5.392e-7
0.030, -1.269e-6, -7.321e-7, 5.367e-7
0.029, -1.268e-6, -7.306e-7, 5.376e-7
0.028, -1.265e-6, -7.300e-7, 5.346e-7
0.027, -1.265e-6, -7.300e-7, 5.352e-7
0.026, -1.263e-6, -7.279e-7, 5.349e-7
0.025, -1.261e-6, -7.279e-7, 5.328e-7
0.024, -1.261e-6, -7.291e-7, 5.318e-7
0.023, -1.258e-6, -7.254e-7, 5.328e-7
0.022, -1.255e-6, -7.263e-7, 5.288e-7
0.021, -1.255e-6, -7.251e-7, 5.294e-7
0.020, -1.254e-6, -7.239e-7, 5.297e-7
0.019, -1.252e-6, -7.239e-7, 5.282e-7
0.018, -1.252e-6, -7.248e-7, 5.270e-7
0.017, -1.249e-6, -7.221e-7, 5.273e-7
0.016, -1.247e-6, -7.214e-7, 5.257e-7
0.015, -1.244e-6, -7.199e-7, 5.245e-7
0.014, -1.245e-6, -7.208e-7, 5.242e-7
0.013, -1.244e-6, -7.199e-7, 5.245e-7
0.012, -1.242e-6, -7.208e-7, 5.215e-7
0.011, -1.242e-6, -7.190e-7, 5.230e-7
0.010, -1.239e-6, -7.172e-7, 5.218e-7
0.009, -1.237e-6, -7.181e-7, 5.190e-7
0.008, -1.234e-6, -7.157e-7, 5.187e-7
0.007, -1.234e-6, -7.153e-7, 5.190e-7
0.006, -1.233e-6, -7.157e-7, 5.175e-7
0.005, -1.233e-6, -7.153e-7, 5.175e-7
0.004, -1.229e-6, -7.123e-7, 5.166e-7
0.003, -1.231e-6, -7.163e-7, 5.144e-7
0.002, -1.229e-6, -7.135e-7, 5.157e-7
0.001, -1.229e-6, -7.135e-7, 5.160e-7
-0.000, -1.226e-6, -7.126e-7, 5.138e-7
-0.001, -1.225e-6, -7.117e-7, 5.129e-7
-0.002, -1.224e-6, -7.108e-7, 5.135e-7
-0.003, -1.224e-6, -7.102e-7, 5.135e-7
-0.004, -1.221e-6, -7.105e-7, 5.108e-7
-0.005, -1.221e-6, -7.099e-7, 5.114e-7
-0.006, -1.219e-6, -7.080e-7, 5.108e-7
-0.007, -1.218e-6, -7.065e-7, 5.111e-7
-0.008, -1.216e-6, -7.062e-7, 5.096e-7
-0.009, -1.215e-6, -7.071e-7, 5.083e-7
-0.010, -1.213e-6, -7.059e-7, 5.074e-7
-0.011, -1.215e-6, -7.056e-7, 5.089e-7
-0.012, -1.212e-6, -7.050e-7, 5.068e-7
-0.013, -1.212e-6, -7.044e-7, 5.077e-7
-0.014, -1.208e-6, -7.034e-7, 5.050e-7
-0.015, -1.211e-6, -7.050e-7, 5.059e-7
-0.016, -1.209e-6, -7.031e-7, 5.056e-7
-0.017, -1.204e-6, -7.016e-7, 5.025e-7
-0.018, -1.208e-6, -7.044e-7, 5.035e-7
-0.019, -1.207e-6, -7.016e-7, 5.053e-7
-0.020, -1.203e-6, -7.007e-7, 5.019e-7
-0.021, -1.203e-6, -7.013e-7, 5.016e-7
-0.022, -1.201e-6, -6.983e-7, 5.032e-7
-0.023, -1.200e-6, -6.989e-7, 5.013e-7
-0.024, -1.199e-6, -6.973e-7, 5.013e-7
-0.025, -1.200e-6, -6.983e-7, 5.013e-7
-0.026, -1.198e-6, -6.973e-7, 5.007e-7
-0.027, -1.196e-6, -6.964e-7, 4.995e-7
-0.028, -1.195e-6, -6.955e-7, 4.992e-7
-0.029, -1.195e-6, -6.967e-7, 4.986e-7
-0.030, -1.196e-6, -6.955e-7, 5.001e-7
-0.031, -1.193e-6, -6.943e-7, 4.989e-7
-0.032, -1.191e-6, -6.925e-7, 4.989e-7
-0.033, -1.192e-6, -6.937e-7, 4.980e-7
-0.034, -1.189e-6, -6.912e-7, 4.980e-7
-0.035, -1.190e-6, -6.918e-7, 4.980e-7
-0.036, -1.189e-6, -6.925e-7, 4.961e-7
-0.037, -1.186e-6, -6.909e-7, 4.952e-7
-0.038, -1.185e-6, -6.888e-7, 4.961e-7
-0.039, -1.184e-6, -6.888e-7, 4.952e-7
-0.040, -1.184e-6, -6.885e-7, 4.952e-7
-0.041, -1.183e-6, -6.885e-7, 4.949e-7
-0.042, -1.182e-6, -6.879e-7, 4.946e-7
-0.043, -1.182e-6, -6.861e-7, 4.961e-7
-0.044, -1.179e-6, -6.851e-7, 4.940e-7
-0.045, -1.180e-6, -6.867e-7, 4.934e-7
-0.046, -1.178e-6, -6.845e-7, 4.937e-7
-0.047, -1.179e-6, -6.854e-7, 4.934e-7
-0.048, -1.177e-6, -6.845e-7, 4.925e-7
-0.049, -1.177e-6, -6.839e-7, 4.928e-7
-0.050, -1.175e-6, -6.827e-7, 4.919e-7
