Mar. 20, 2018   11:52:33
Square Wave Voltammetry
File: c:\users\electrochemist\desktop\2018\20032018_unbufarray_unpap\12_g4_ph5,00_5.txt
Data Source:  Experiment
Instrument Model:  CHI1040A
Header: 
Note: 

Init E (V) = 0.7
Final E (V) = -0.4
Incr E (V) = 0.001
Amplitude (V) = 0.1
Frequency (Hz) = 152
Quiet Time (sec) = 2
Sensitivity (A/V) = 1e-5

Difference:

Forward:

Reverse:
Ep = 0.106V
ip = 6.106e-10A
Ah = 2.136e-11VA

Potential/V, Diff(i/A), For(i/A), Rev(i/A)

0.699, -6.042e-7, -1.929e-7, 4.113e-7
0.698, -7.293e-7, -3.485e-7, 3.808e-7
0.697, -7.293e-7, -3.546e-7, 3.747e-7
0.696, -7.263e-7, -3.577e-7, 3.686e-7
0.695, -7.263e-7, -3.607e-7, 3.656e-7
0.694, -7.263e-7, -3.607e-7, 3.656e-7
0.693, -7.263e-7, -3.607e-7, 3.656e-7
0.692, -7.263e-7, -3.607e-7, 3.656e-7
0.691, -7.263e-7, -3.607e-7, 3.656e-7
0.690, -7.202e-7, -3.607e-7, 3.594e-7
0.689, -7.202e-7, -3.607e-7, 3.594e-7
0.688, -7.202e-7, -3.607e-7, 3.594e-7
0.687, -7.202e-7, -3.607e-7, 3.594e-7
0.686, -7.232e-7, -3.638e-7, 3.594e-7
0.685, -7.232e-7, -3.638e-7, 3.594e-7
0.684, -7.202e-7, -3.638e-7, 3.564e-7
0.683, -7.232e-7, -3.638e-7, 3.594e-7
0.682, -7.171e-7, -3.638e-7, 3.533e-7
0.681, -7.202e-7, -3.638e-7, 3.564e-7
0.680, -7.171e-7, -3.607e-7, 3.564e-7
0.679, -7.171e-7, -3.638e-7, 3.533e-7
0.678, -7.171e-7, -3.638e-7, 3.533e-7
0.677, -7.171e-7, -3.607e-7, 3.564e-7
0.676, -7.171e-7, -3.638e-7, 3.533e-7
0.675, -7.171e-7, -3.638e-7, 3.533e-7
0.674, -7.171e-7, -3.638e-7, 3.533e-7
0.673, -7.171e-7, -3.638e-7, 3.533e-7
0.672, -7.141e-7, -3.638e-7, 3.503e-7
0.671, -7.141e-7, -3.607e-7, 3.533e-7
0.670, -7.171e-7, -3.668e-7, 3.503e-7
0.669, -7.141e-7, -3.638e-7, 3.503e-7
0.668, -7.141e-7, -3.638e-7, 3.503e-7
0.667, -7.110e-7, -3.638e-7, 3.472e-7
0.666, -7.110e-7, -3.638e-7, 3.472e-7
0.665, -7.110e-7, -3.607e-7, 3.503e-7
0.664, -7.110e-7, -3.638e-7, 3.472e-7
0.663, -7.141e-7, -3.638e-7, 3.503e-7
0.662, -7.141e-7, -3.638e-7, 3.503e-7
0.661, -7.110e-7, -3.638e-7, 3.472e-7
0.660, -7.110e-7, -3.638e-7, 3.472e-7
0.659, -7.141e-7, -3.668e-7, 3.472e-7
0.658, -7.141e-7, -3.668e-7, 3.472e-7
0.657, -7.110e-7, -3.638e-7, 3.472e-7
0.656, -7.110e-7, -3.668e-7, 3.442e-7
0.655, -7.141e-7, -3.668e-7, 3.472e-7
0.654, -7.110e-7, -3.638e-7, 3.472e-7
0.653, -7.080e-7, -3.638e-7, 3.442e-7
0.652, -7.110e-7, -3.668e-7, 3.442e-7
0.651, -7.049e-7, -3.607e-7, 3.442e-7
0.650, -7.080e-7, -3.638e-7, 3.442e-7
0.649, -7.080e-7, -3.638e-7, 3.442e-7
0.648, -7.080e-7, -3.638e-7, 3.442e-7
0.647, -7.080e-7, -3.668e-7, 3.411e-7
0.646, -7.110e-7, -3.668e-7, 3.442e-7
0.645, -7.080e-7, -3.668e-7, 3.411e-7
0.644, -7.110e-7, -3.668e-7, 3.442e-7
0.643, -7.049e-7, -3.638e-7, 3.411e-7
0.642, -7.080e-7, -3.668e-7, 3.411e-7
0.641, -7.110e-7, -3.668e-7, 3.442e-7
0.640, -7.110e-7, -3.668e-7, 3.442e-7
0.639, -7.080e-7, -3.668e-7, 3.411e-7
0.638, -7.080e-7, -3.638e-7, 3.442e-7
0.637, -7.080e-7, -3.668e-7, 3.411e-7
0.636, -7.110e-7, -3.699e-7, 3.411e-7
0.635, -7.049e-7, -3.638e-7, 3.411e-7
0.634, -7.019e-7, -3.638e-7, 3.381e-7
0.633, -7.110e-7, -3.699e-7, 3.411e-7
0.632, -7.110e-7, -3.668e-7, 3.442e-7
0.631, -7.080e-7, -3.668e-7, 3.411e-7
0.630, -7.080e-7, -3.668e-7, 3.411e-7
0.629, -7.080e-7, -3.668e-7, 3.411e-7
0.628, -7.049e-7, -3.668e-7, 3.381e-7
0.627, -7.080e-7, -3.699e-7, 3.381e-7
0.626, -7.049e-7, -3.668e-7, 3.381e-7
0.625, -7.049e-7, -3.668e-7, 3.381e-7
0.624, -7.110e-7, -3.699e-7, 3.411e-7
0.623, -7.080e-7, -3.668e-7, 3.411e-7
0.622, -7.080e-7, -3.699e-7, 3.381e-7
0.621, -7.110e-7, -3.699e-7, 3.411e-7
0.620, -7.080e-7, -3.668e-7, 3.411e-7
0.619, -7.080e-7, -3.699e-7, 3.381e-7
0.618, -7.110e-7, -3.699e-7, 3.411e-7
0.617, -7.110e-7, -3.699e-7, 3.411e-7
0.616, -7.080e-7, -3.699e-7, 3.381e-7
0.615, -7.049e-7, -3.668e-7, 3.381e-7
0.614, -7.110e-7, -3.699e-7, 3.411e-7
0.613, -7.110e-7, -3.729e-7, 3.381e-7
0.612, -7.110e-7, -3.699e-7, 3.411e-7
0.611, -7.110e-7, -3.729e-7, 3.381e-7
0.610, -7.141e-7, -3.729e-7, 3.411e-7
0.609, -7.110e-7, -3.729e-7, 3.381e-7
0.608, -7.141e-7, -3.729e-7, 3.411e-7
0.607, -7.110e-7, -3.729e-7, 3.381e-7
0.606, -7.110e-7, -3.729e-7, 3.381e-7
0.605, -7.110e-7, -3.729e-7, 3.381e-7
0.604, -7.110e-7, -3.699e-7, 3.411e-7
0.603, -7.110e-7, -3.729e-7, 3.381e-7
0.602, -7.141e-7, -3.729e-7, 3.411e-7
0.601, -7.141e-7, -3.729e-7, 3.411e-7
0.600, -7.110e-7, -3.729e-7, 3.381e-7
0.599, -7.171e-7, -3.760e-7, 3.411e-7
0.598, -7.141e-7, -3.729e-7, 3.411e-7
0.597, -7.110e-7, -3.729e-7, 3.381e-7
0.596, -7.171e-7, -3.760e-7, 3.411e-7
0.595, -7.110e-7, -3.729e-7, 3.381e-7
0.594, -7.110e-7, -3.729e-7, 3.381e-7
0.593, -7.141e-7, -3.760e-7, 3.381e-7
0.592, -7.171e-7, -3.760e-7, 3.411e-7
0.591, -7.141e-7, -3.760e-7, 3.381e-7
0.590, -7.141e-7, -3.760e-7, 3.381e-7
0.589, -7.141e-7, -3.729e-7, 3.411e-7
0.588, -7.171e-7, -3.790e-7, 3.381e-7
0.587, -7.171e-7, -3.790e-7, 3.381e-7
0.586, -7.110e-7, -3.729e-7, 3.381e-7
0.585, -7.141e-7, -3.760e-7, 3.381e-7
0.584, -7.141e-7, -3.760e-7, 3.381e-7
0.583, -7.141e-7, -3.760e-7, 3.381e-7
0.582, -7.141e-7, -3.760e-7, 3.381e-7
0.581, -7.171e-7, -3.790e-7, 3.381e-7
0.580, -7.141e-7, -3.760e-7, 3.381e-7
0.579, -7.171e-7, -3.790e-7, 3.381e-7
0.578, -7.171e-7, -3.790e-7, 3.381e-7
0.577, -7.171e-7, -3.790e-7, 3.381e-7
0.576, -7.171e-7, -3.790e-7, 3.381e-7
0.575, -7.171e-7, -3.790e-7, 3.381e-7
0.574, -7.171e-7, -3.790e-7, 3.381e-7
0.573, -7.171e-7, -3.790e-7, 3.381e-7
0.572, -7.171e-7, -3.790e-7, 3.381e-7
0.571, -7.171e-7, -3.790e-7, 3.381e-7
0.570, -7.171e-7, -3.790e-7, 3.381e-7
0.569, -7.141e-7, -3.760e-7, 3.381e-7
0.568, -7.171e-7, -3.790e-7, 3.381e-7
0.567, -7.171e-7, -3.790e-7, 3.381e-7
0.566, -7.141e-7, -3.790e-7, 3.350e-7
0.565, -7.171e-7, -3.790e-7, 3.381e-7
0.564, -7.202e-7, -3.821e-7, 3.381e-7
0.563, -7.202e-7, -3.821e-7, 3.381e-7
0.562, -7.202e-7, -3.821e-7, 3.381e-7
0.561, -7.171e-7, -3.790e-7, 3.381e-7
0.560, -7.171e-7, -3.821e-7, 3.350e-7
0.559, -7.202e-7, -3.821e-7, 3.381e-7
0.558, -7.171e-7, -3.790e-7, 3.381e-7
0.557, -7.202e-7, -3.851e-7, 3.350e-7
0.556, -7.171e-7, -3.790e-7, 3.381e-7
0.555, -7.202e-7, -3.821e-7, 3.381e-7
0.554, -7.232e-7, -3.851e-7, 3.381e-7
0.553, -7.202e-7, -3.821e-7, 3.381e-7
0.552, -7.171e-7, -3.821e-7, 3.350e-7
0.551, -7.232e-7, -3.851e-7, 3.381e-7
0.550, -7.202e-7, -3.821e-7, 3.381e-7
0.549, -7.232e-7, -3.851e-7, 3.381e-7
0.548, -7.263e-7, -3.882e-7, 3.381e-7
0.547, -7.202e-7, -3.821e-7, 3.381e-7
0.546, -7.202e-7, -3.851e-7, 3.350e-7
0.545, -7.263e-7, -3.882e-7, 3.381e-7
0.544, -7.232e-7, -3.851e-7, 3.381e-7
0.543, -7.202e-7, -3.821e-7, 3.381e-7
0.542, -7.232e-7, -3.882e-7, 3.350e-7
0.541, -7.232e-7, -3.851e-7, 3.381e-7
0.540, -7.232e-7, -3.882e-7, 3.350e-7
0.539, -7.263e-7, -3.882e-7, 3.381e-7
0.538, -7.263e-7, -3.882e-7, 3.381e-7
0.537, -7.232e-7, -3.882e-7, 3.350e-7
0.536, -7.263e-7, -3.882e-7, 3.381e-7
0.535, -7.293e-7, -3.882e-7, 3.411e-7
0.534, -7.263e-7, -3.912e-7, 3.350e-7
0.533, -7.263e-7, -3.882e-7, 3.381e-7
0.532, -7.293e-7, -3.912e-7, 3.381e-7
0.531, -7.324e-7, -3.912e-7, 3.411e-7
0.530, -7.293e-7, -3.912e-7, 3.381e-7
0.529, -7.293e-7, -3.912e-7, 3.381e-7
0.528, -7.324e-7, -3.943e-7, 3.381e-7
0.527, -7.324e-7, -3.943e-7, 3.381e-7
0.526, -7.324e-7, -3.973e-7, 3.350e-7
0.525, -7.354e-7, -3.943e-7, 3.411e-7
0.524, -7.324e-7, -3.912e-7, 3.411e-7
0.523, -7.324e-7, -3.912e-7, 3.411e-7
0.522, -7.354e-7, -3.943e-7, 3.411e-7
0.521, -7.354e-7, -3.943e-7, 3.411e-7
0.520, -7.354e-7, -3.973e-7, 3.381e-7
0.519, -7.354e-7, -3.943e-7, 3.411e-7
0.518, -7.324e-7, -3.943e-7, 3.381e-7
0.517, -7.354e-7, -3.973e-7, 3.381e-7
0.516, -7.354e-7, -3.943e-7, 3.411e-7
0.515, -7.354e-7, -3.973e-7, 3.381e-7
0.514, -7.385e-7, -3.973e-7, 3.411e-7
0.513, -7.354e-7, -3.943e-7, 3.411e-7
0.512, -7.385e-7, -4.004e-7, 3.381e-7
0.511, -7.415e-7, -4.004e-7, 3.411e-7
0.510, -7.385e-7, -3.973e-7, 3.411e-7
0.509, -7.415e-7, -4.004e-7, 3.411e-7
0.508, -7.415e-7, -4.004e-7, 3.411e-7
0.507, -7.385e-7, -3.973e-7, 3.411e-7
0.506, -7.385e-7, -4.004e-7, 3.381e-7
0.505, -7.415e-7, -4.004e-7, 3.411e-7
0.504, -7.415e-7, -4.004e-7, 3.411e-7
0.503, -7.415e-7, -4.004e-7, 3.411e-7
0.502, -7.446e-7, -4.034e-7, 3.411e-7
0.501, -7.415e-7, -4.004e-7, 3.411e-7
0.500, -7.446e-7, -4.034e-7, 3.411e-7
0.499, -7.446e-7, -4.034e-7, 3.411e-7
0.498, -7.446e-7, -4.034e-7, 3.411e-7
0.497, -7.446e-7, -4.034e-7, 3.411e-7
0.496, -7.476e-7, -4.034e-7, 3.442e-7
0.495, -7.446e-7, -4.034e-7, 3.411e-7
0.494, -7.446e-7, -4.065e-7, 3.381e-7
0.493, -7.476e-7, -4.065e-7, 3.411e-7
0.492, -7.476e-7, -4.065e-7, 3.411e-7
0.491, -7.476e-7, -4.065e-7, 3.411e-7
0.490, -7.507e-7, -4.096e-7, 3.411e-7
0.489, -7.476e-7, -4.065e-7, 3.411e-7
0.488, -7.476e-7, -4.065e-7, 3.411e-7
0.487, -7.476e-7, -4.065e-7, 3.411e-7
0.486, -7.507e-7, -4.096e-7, 3.411e-7
0.485, -7.507e-7, -4.096e-7, 3.411e-7
0.484, -7.476e-7, -4.065e-7, 3.411e-7
0.483, -7.507e-7, -4.096e-7, 3.411e-7
0.482, -7.537e-7, -4.096e-7, 3.442e-7
0.481, -7.537e-7, -4.126e-7, 3.411e-7
0.480, -7.568e-7, -4.126e-7, 3.442e-7
0.479, -7.568e-7, -4.126e-7, 3.442e-7
0.478, -7.537e-7, -4.126e-7, 3.411e-7
0.477, -7.568e-7, -4.126e-7, 3.442e-7
0.476, -7.537e-7, -4.126e-7, 3.411e-7
0.475, -7.568e-7, -4.157e-7, 3.411e-7
0.474, -7.537e-7, -4.126e-7, 3.411e-7
0.473, -7.537e-7, -4.126e-7, 3.411e-7
0.472, -7.568e-7, -4.157e-7, 3.411e-7
0.471, -7.598e-7, -4.157e-7, 3.442e-7
0.470, -7.568e-7, -4.157e-7, 3.411e-7
0.469, -7.629e-7, -4.187e-7, 3.442e-7
0.468, -7.598e-7, -4.157e-7, 3.442e-7
0.467, -7.598e-7, -4.187e-7, 3.411e-7
0.466, -7.568e-7, -4.187e-7, 3.381e-7
0.465, -7.629e-7, -4.187e-7, 3.442e-7
0.464, -7.598e-7, -4.187e-7, 3.411e-7
0.463, -7.659e-7, -4.218e-7, 3.442e-7
0.462, -7.629e-7, -4.187e-7, 3.442e-7
0.461, -7.659e-7, -4.218e-7, 3.442e-7
0.460, -7.659e-7, -4.218e-7, 3.442e-7
0.459, -7.659e-7, -4.218e-7, 3.442e-7
0.458, -7.659e-7, -4.218e-7, 3.442e-7
0.457, -7.690e-7, -4.248e-7, 3.442e-7
0.456, -7.659e-7, -4.218e-7, 3.442e-7
0.455, -7.721e-7, -4.279e-7, 3.442e-7
0.454, -7.690e-7, -4.248e-7, 3.442e-7
0.453, -7.690e-7, -4.248e-7, 3.442e-7
0.452, -7.782e-7, -4.309e-7, 3.472e-7
0.451, -7.751e-7, -4.279e-7, 3.472e-7
0.450, -7.751e-7, -4.279e-7, 3.472e-7
0.449, -7.782e-7, -4.309e-7, 3.472e-7
0.448, -7.782e-7, -4.309e-7, 3.472e-7
0.447, -7.751e-7, -4.279e-7, 3.472e-7
0.446, -7.812e-7, -4.340e-7, 3.472e-7
0.445, -7.782e-7, -4.309e-7, 3.472e-7
0.444, -7.782e-7, -4.309e-7, 3.472e-7
0.443, -7.812e-7, -4.340e-7, 3.472e-7
0.442, -7.843e-7, -4.370e-7, 3.472e-7
0.441, -7.843e-7, -4.370e-7, 3.472e-7
0.440, -7.873e-7, -4.370e-7, 3.503e-7
0.439, -7.873e-7, -4.370e-7, 3.503e-7
0.438, -7.843e-7, -4.370e-7, 3.472e-7
0.437, -7.843e-7, -4.370e-7, 3.472e-7
0.436, -7.843e-7, -4.370e-7, 3.472e-7
0.435, -7.904e-7, -4.401e-7, 3.503e-7
0.434, -7.904e-7, -4.401e-7, 3.503e-7
0.433, -7.904e-7, -4.431e-7, 3.472e-7
0.432, -7.934e-7, -4.431e-7, 3.503e-7
0.431, -7.934e-7, -4.431e-7, 3.503e-7
0.430, -7.904e-7, -4.431e-7, 3.472e-7
0.429, -7.965e-7, -4.462e-7, 3.503e-7
0.428, -7.965e-7, -4.431e-7, 3.533e-7
0.427, -7.965e-7, -4.462e-7, 3.503e-7
0.426, -7.995e-7, -4.492e-7, 3.503e-7
0.425, -7.995e-7, -4.462e-7, 3.533e-7
0.424, -7.995e-7, -4.492e-7, 3.503e-7
0.423, -8.026e-7, -4.492e-7, 3.533e-7
0.422, -8.026e-7, -4.492e-7, 3.533e-7
0.421, -8.026e-7, -4.523e-7, 3.503e-7
0.420, -8.056e-7, -4.523e-7, 3.533e-7
0.419, -8.026e-7, -4.492e-7, 3.533e-7
0.418, -8.087e-7, -4.553e-7, 3.533e-7
0.417, -8.026e-7, -4.523e-7, 3.503e-7
0.416, -8.056e-7, -4.553e-7, 3.503e-7
0.415, -8.056e-7, -4.553e-7, 3.503e-7
0.414, -8.087e-7, -4.553e-7, 3.533e-7
0.413, -8.117e-7, -4.584e-7, 3.533e-7
0.412, -8.148e-7, -4.584e-7, 3.564e-7
0.411, -8.117e-7, -4.584e-7, 3.533e-7
0.410, -8.117e-7, -4.584e-7, 3.533e-7
0.409, -8.148e-7, -4.614e-7, 3.533e-7
0.408, -8.148e-7, -4.614e-7, 3.533e-7
0.407, -8.117e-7, -4.584e-7, 3.533e-7
0.406, -8.148e-7, -4.614e-7, 3.533e-7
0.405, -8.178e-7, -4.645e-7, 3.533e-7
0.404, -8.178e-7, -4.645e-7, 3.533e-7
0.403, -8.209e-7, -4.645e-7, 3.564e-7
0.402, -8.209e-7, -4.675e-7, 3.533e-7
0.401, -8.270e-7, -4.706e-7, 3.564e-7
0.400, -8.239e-7, -4.675e-7, 3.564e-7
0.399, -8.270e-7, -4.706e-7, 3.564e-7
0.398, -8.270e-7, -4.706e-7, 3.564e-7
0.397, -8.270e-7, -4.706e-7, 3.564e-7
0.396, -8.270e-7, -4.706e-7, 3.564e-7
0.395, -8.300e-7, -4.736e-7, 3.564e-7
0.394, -8.300e-7, -4.736e-7, 3.564e-7
0.393, -8.300e-7, -4.767e-7, 3.533e-7
0.392, -8.300e-7, -4.736e-7, 3.564e-7
0.391, -8.300e-7, -4.736e-7, 3.564e-7
0.390, -8.361e-7, -4.797e-7, 3.564e-7
0.389, -8.392e-7, -4.797e-7, 3.594e-7
0.388, -8.361e-7, -4.767e-7, 3.594e-7
0.387, -8.392e-7, -4.828e-7, 3.564e-7
0.386, -8.392e-7, -4.797e-7, 3.594e-7
0.385, -8.392e-7, -4.828e-7, 3.564e-7
0.384, -8.422e-7, -4.858e-7, 3.564e-7
0.383, -8.392e-7, -4.797e-7, 3.594e-7
0.382, -8.422e-7, -4.828e-7, 3.594e-7
0.381, -8.422e-7, -4.858e-7, 3.564e-7
0.380, -8.483e-7, -4.858e-7, 3.625e-7
0.379, -8.483e-7, -4.889e-7, 3.594e-7
0.378, -8.514e-7, -4.919e-7, 3.594e-7
0.377, -8.514e-7, -4.889e-7, 3.625e-7
0.376, -8.514e-7, -4.919e-7, 3.594e-7
0.375, -8.514e-7, -4.919e-7, 3.594e-7
0.374, -8.575e-7, -4.919e-7, 3.655e-7
0.373, -8.575e-7, -4.950e-7, 3.625e-7
0.372, -8.605e-7, -4.980e-7, 3.625e-7
0.371, -8.605e-7, -4.980e-7, 3.625e-7
0.370, -8.605e-7, -4.980e-7, 3.625e-7
0.369, -8.636e-7, -4.980e-7, 3.655e-7
0.368, -8.605e-7, -4.980e-7, 3.625e-7
0.367, -8.636e-7, -5.011e-7, 3.625e-7
0.366, -8.666e-7, -5.011e-7, 3.655e-7
0.365, -8.697e-7, -5.042e-7, 3.655e-7
0.364, -8.697e-7, -5.042e-7, 3.655e-7
0.363, -8.758e-7, -5.072e-7, 3.686e-7
0.362, -8.728e-7, -5.072e-7, 3.655e-7
0.361, -8.789e-7, -5.103e-7, 3.686e-7
0.360, -8.758e-7, -5.103e-7, 3.655e-7
0.359, -8.789e-7, -5.103e-7, 3.686e-7
0.358, -8.789e-7, -5.133e-7, 3.655e-7
0.357, -8.819e-7, -5.133e-7, 3.686e-7
0.356, -8.850e-7, -5.164e-7, 3.686e-7
0.355, -8.819e-7, -5.133e-7, 3.686e-7
0.354, -8.880e-7, -5.194e-7, 3.686e-7
0.353, -8.911e-7, -5.194e-7, 3.717e-7
0.352, -8.911e-7, -5.194e-7, 3.717e-7
0.351, -8.880e-7, -5.225e-7, 3.655e-7
0.350, -8.941e-7, -5.225e-7, 3.717e-7
0.349, -8.941e-7, -5.225e-7, 3.717e-7
0.348, -8.941e-7, -5.255e-7, 3.686e-7
0.347, -8.972e-7, -5.255e-7, 3.717e-7
0.346, -9.002e-7, -5.255e-7, 3.747e-7
0.345, -9.002e-7, -5.286e-7, 3.717e-7
0.344, -9.033e-7, -5.286e-7, 3.747e-7
0.343, -9.002e-7, -5.286e-7, 3.717e-7
0.342, -9.033e-7, -5.316e-7, 3.717e-7
0.341, -9.063e-7, -5.316e-7, 3.747e-7
0.340, -9.094e-7, -5.347e-7, 3.747e-7
0.339, -9.063e-7, -5.347e-7, 3.717e-7
0.338, -9.094e-7, -5.347e-7, 3.747e-7
0.337, -9.094e-7, -5.347e-7, 3.747e-7
0.336, -9.124e-7, -5.377e-7, 3.747e-7
0.335, -9.185e-7, -5.408e-7, 3.778e-7
0.334, -9.185e-7, -5.408e-7, 3.778e-7
0.333, -9.185e-7, -5.438e-7, 3.747e-7
0.332, -9.185e-7, -5.408e-7, 3.778e-7
0.331, -9.216e-7, -5.438e-7, 3.778e-7
0.330, -9.216e-7, -5.438e-7, 3.778e-7
0.329, -9.246e-7, -5.438e-7, 3.808e-7
0.328, -9.216e-7, -5.438e-7, 3.778e-7
0.327, -9.277e-7, -5.499e-7, 3.778e-7
0.326, -9.277e-7, -5.499e-7, 3.778e-7
0.325, -9.277e-7, -5.469e-7, 3.808e-7
0.324, -9.277e-7, -5.499e-7, 3.778e-7
0.323, -9.307e-7, -5.499e-7, 3.808e-7
0.322, -9.307e-7, -5.530e-7, 3.778e-7
0.321, -9.338e-7, -5.530e-7, 3.808e-7
0.320, -9.307e-7, -5.530e-7, 3.778e-7
0.319, -9.368e-7, -5.560e-7, 3.808e-7
0.318, -9.368e-7, -5.560e-7, 3.808e-7
0.317, -9.429e-7, -5.591e-7, 3.839e-7
0.316, -9.429e-7, -5.591e-7, 3.839e-7
0.315, -9.399e-7, -5.591e-7, 3.808e-7
0.314, -9.429e-7, -5.621e-7, 3.808e-7
0.313, -9.490e-7, -5.621e-7, 3.869e-7
0.312, -9.429e-7, -5.621e-7, 3.808e-7
0.311, -9.490e-7, -5.652e-7, 3.839e-7
0.310, -9.490e-7, -5.652e-7, 3.839e-7
0.309, -9.490e-7, -5.652e-7, 3.839e-7
0.308, -9.521e-7, -5.682e-7, 3.839e-7
0.307, -9.521e-7, -5.652e-7, 3.869e-7
0.306, -9.551e-7, -5.682e-7, 3.869e-7
0.305, -9.551e-7, -5.713e-7, 3.839e-7
0.304, -9.612e-7, -5.713e-7, 3.900e-7
0.303, -9.612e-7, -5.713e-7, 3.900e-7
0.302, -9.643e-7, -5.743e-7, 3.900e-7
0.301, -9.612e-7, -5.713e-7, 3.900e-7
0.300, -9.643e-7, -5.743e-7, 3.900e-7
0.299, -9.643e-7, -5.743e-7, 3.900e-7
0.298, -9.643e-7, -5.743e-7, 3.900e-7
0.297, -9.674e-7, -5.774e-7, 3.900e-7
0.296, -9.674e-7, -5.774e-7, 3.900e-7
0.295, -9.735e-7, -5.804e-7, 3.930e-7
0.294, -9.704e-7, -5.774e-7, 3.930e-7
0.293, -9.735e-7, -5.804e-7, 3.930e-7
0.292, -9.735e-7, -5.804e-7, 3.930e-7
0.291, -9.735e-7, -5.804e-7, 3.930e-7
0.290, -9.765e-7, -5.835e-7, 3.930e-7
0.289, -9.796e-7, -5.835e-7, 3.961e-7
0.288, -9.796e-7, -5.835e-7, 3.961e-7
0.287, -9.826e-7, -5.865e-7, 3.961e-7
0.286, -9.826e-7, -5.865e-7, 3.961e-7
0.285, -9.826e-7, -5.865e-7, 3.961e-7
0.284, -9.857e-7, -5.896e-7, 3.961e-7
0.283, -9.887e-7, -5.896e-7, 3.991e-7
0.282, -9.887e-7, -5.896e-7, 3.991e-7
0.281, -9.918e-7, -5.926e-7, 3.991e-7
0.280, -9.918e-7, -5.926e-7, 3.991e-7
0.279, -9.948e-7, -5.926e-7, 4.022e-7
0.278, -9.918e-7, -5.926e-7, 3.991e-7
0.277, -9.948e-7, -5.957e-7, 3.991e-7
0.276, -9.948e-7, -5.926e-7, 4.022e-7
0.275, -9.979e-7, -5.957e-7, 4.022e-7
0.274, -1.001e-6, -5.988e-7, 4.022e-7
0.273, -1.001e-6, -5.957e-7, 4.052e-7
0.272, -1.004e-6, -5.988e-7, 4.052e-7
0.271, -1.004e-6, -5.988e-7, 4.052e-7
0.270, -1.007e-6, -5.988e-7, 4.083e-7
0.269, -1.004e-6, -5.988e-7, 4.052e-7
0.268, -1.010e-6, -6.018e-7, 4.083e-7
0.267, -1.007e-6, -5.988e-7, 4.083e-7
0.266, -1.004e-6, -5.988e-7, 4.052e-7
0.265, -1.010e-6, -6.018e-7, 4.083e-7
0.264, -1.013e-6, -6.018e-7, 4.113e-7
0.263, -1.010e-6, -6.018e-7, 4.083e-7
0.262, -1.016e-6, -6.049e-7, 4.113e-7
0.261, -1.013e-6, -6.018e-7, 4.113e-7
0.260, -1.010e-6, -6.018e-7, 4.083e-7
0.259, -1.016e-6, -6.049e-7, 4.113e-7
0.258, -1.019e-6, -6.049e-7, 4.144e-7
0.257, -1.016e-6, -6.049e-7, 4.113e-7
0.256, -1.019e-6, -6.049e-7, 4.144e-7
0.255, -1.019e-6, -6.049e-7, 4.144e-7
0.254, -1.019e-6, -6.049e-7, 4.144e-7
0.253, -1.019e-6, -6.049e-7, 4.144e-7
0.252, -1.022e-6, -6.049e-7, 4.174e-7
0.251, -1.022e-6, -6.079e-7, 4.144e-7
0.250, -1.019e-6, -6.049e-7, 4.144e-7
0.249, -1.019e-6, -6.049e-7, 4.144e-7
0.248, -1.022e-6, -6.079e-7, 4.144e-7
0.247, -1.022e-6, -6.049e-7, 4.174e-7
0.246, -1.019e-6, -6.049e-7, 4.144e-7
0.245, -1.025e-6, -6.079e-7, 4.174e-7
0.244, -1.025e-6, -6.049e-7, 4.205e-7
0.243, -1.025e-6, -6.079e-7, 4.174e-7
0.242, -1.025e-6, -6.049e-7, 4.205e-7
0.241, -1.025e-6, -6.049e-7, 4.205e-7
0.240, -1.028e-6, -6.079e-7, 4.205e-7
0.239, -1.031e-6, -6.079e-7, 4.235e-7
0.238, -1.031e-6, -6.079e-7, 4.235e-7
0.237, -1.028e-6, -6.049e-7, 4.235e-7
0.236, -1.031e-6, -6.079e-7, 4.235e-7
0.235, -1.025e-6, -6.049e-7, 4.205e-7
0.234, -1.028e-6, -6.049e-7, 4.235e-7
0.233, -1.028e-6, -6.049e-7, 4.235e-7
0.232, -1.028e-6, -6.049e-7, 4.235e-7
0.231, -1.031e-6, -6.049e-7, 4.266e-7
0.230, -1.028e-6, -6.049e-7, 4.235e-7
0.229, -1.031e-6, -6.079e-7, 4.235e-7
0.228, -1.031e-6, -6.049e-7, 4.266e-7
0.227, -1.028e-6, -6.018e-7, 4.266e-7
0.226, -1.031e-6, -6.079e-7, 4.235e-7
0.225, -1.034e-6, -6.049e-7, 4.296e-7
0.224, -1.031e-6, -6.049e-7, 4.266e-7
0.223, -1.031e-6, -6.049e-7, 4.266e-7
0.222, -1.034e-6, -6.018e-7, 4.327e-7
0.221, -1.028e-6, -6.018e-7, 4.266e-7
0.220, -1.034e-6, -6.049e-7, 4.296e-7
0.219, -1.034e-6, -6.049e-7, 4.296e-7
0.218, -1.031e-6, -6.018e-7, 4.296e-7
0.217, -1.034e-6, -6.049e-7, 4.296e-7
0.216, -1.031e-6, -5.988e-7, 4.327e-7
0.215, -1.034e-6, -6.018e-7, 4.327e-7
0.214, -1.031e-6, -6.018e-7, 4.296e-7
0.213, -1.038e-6, -6.018e-7, 4.357e-7
0.212, -1.031e-6, -5.988e-7, 4.327e-7
0.211, -1.034e-6, -6.018e-7, 4.327e-7
0.210, -1.031e-6, -5.988e-7, 4.327e-7
0.209, -1.031e-6, -5.988e-7, 4.327e-7
0.208, -1.034e-6, -5.988e-7, 4.357e-7
0.207, -1.034e-6, -5.988e-7, 4.357e-7
0.206, -1.034e-6, -5.988e-7, 4.357e-7
0.205, -1.038e-6, -5.988e-7, 4.388e-7
0.204, -1.031e-6, -5.957e-7, 4.357e-7
0.203, -1.034e-6, -5.988e-7, 4.357e-7
0.202, -1.034e-6, -5.957e-7, 4.388e-7
0.201, -1.034e-6, -5.957e-7, 4.388e-7
0.200, -1.034e-6, -5.957e-7, 4.388e-7
0.199, -1.034e-6, -5.926e-7, 4.418e-7
0.198, -1.031e-6, -5.926e-7, 4.388e-7
0.197, -1.031e-6, -5.926e-7, 4.388e-7
0.196, -1.034e-6, -5.926e-7, 4.418e-7
0.195, -1.038e-6, -5.957e-7, 4.418e-7
0.194, -1.031e-6, -5.896e-7, 4.418e-7
0.193, -1.031e-6, -5.896e-7, 4.418e-7
0.192, -1.031e-6, -5.896e-7, 4.418e-7
0.191, -1.034e-6, -5.896e-7, 4.449e-7
0.190, -1.031e-6, -5.896e-7, 4.418e-7
0.189, -1.034e-6, -5.896e-7, 4.449e-7
0.188, -1.031e-6, -5.865e-7, 4.449e-7
0.187, -1.028e-6, -5.865e-7, 4.418e-7
0.186, -1.031e-6, -5.865e-7, 4.449e-7
0.185, -1.031e-6, -5.835e-7, 4.479e-7
0.184, -1.025e-6, -5.835e-7, 4.418e-7
0.183, -1.028e-6, -5.835e-7, 4.449e-7
0.182, -1.028e-6, -5.835e-7, 4.449e-7
0.181, -1.028e-6, -5.835e-7, 4.449e-7
0.180, -1.031e-6, -5.835e-7, 4.479e-7
0.179, -1.025e-6, -5.774e-7, 4.479e-7
0.178, -1.025e-6, -5.804e-7, 4.449e-7
0.177, -1.028e-6, -5.804e-7, 4.479e-7
0.176, -1.025e-6, -5.774e-7, 4.479e-7
0.175, -1.025e-6, -5.804e-7, 4.449e-7
0.174, -1.025e-6, -5.774e-7, 4.479e-7
0.173, -1.025e-6, -5.743e-7, 4.510e-7
0.172, -1.022e-6, -5.774e-7, 4.449e-7
0.171, -1.022e-6, -5.743e-7, 4.479e-7
0.170, -1.019e-6, -5.713e-7, 4.479e-7
0.169, -1.019e-6, -5.743e-7, 4.449e-7
0.168, -1.022e-6, -5.743e-7, 4.479e-7
0.167, -1.013e-6, -5.682e-7, 4.449e-7
0.166, -1.019e-6, -5.713e-7, 4.479e-7
0.165, -1.013e-6, -5.682e-7, 4.449e-7
0.164, -1.013e-6, -5.682e-7, 4.449e-7
0.163, -1.016e-6, -5.682e-7, 4.479e-7
0.162, -1.016e-6, -5.652e-7, 4.510e-7
0.161, -1.013e-6, -5.682e-7, 4.449e-7
0.160, -1.010e-6, -5.652e-7, 4.449e-7
0.159, -1.013e-6, -5.652e-7, 4.479e-7
0.158, -1.010e-6, -5.652e-7, 4.449e-7
0.157, -1.013e-6, -5.652e-7, 4.479e-7
0.156, -1.010e-6, -5.621e-7, 4.479e-7
0.155, -1.007e-6, -5.621e-7, 4.449e-7
0.154, -1.007e-6, -5.591e-7, 4.479e-7
0.153, -1.004e-6, -5.591e-7, 4.449e-7
0.152, -1.004e-6, -5.591e-7, 4.449e-7
0.151, -1.001e-6, -5.560e-7, 4.449e-7
0.150, -1.004e-6, -5.591e-7, 4.449e-7
0.149, -1.001e-6, -5.560e-7, 4.449e-7
0.148, -1.001e-6, -5.560e-7, 4.449e-7
0.147, -1.001e-6, -5.560e-7, 4.449e-7
0.146, -9.979e-7, -5.499e-7, 4.479e-7
0.145, -1.001e-6, -5.530e-7, 4.479e-7
0.144, -9.948e-7, -5.530e-7, 4.418e-7
0.143, -9.948e-7, -5.499e-7, 4.449e-7
0.142, -9.918e-7, -5.469e-7, 4.449e-7
0.141, -9.948e-7, -5.499e-7, 4.449e-7
0.140, -9.887e-7, -5.469e-7, 4.418e-7
0.139, -9.857e-7, -5.438e-7, 4.418e-7
0.138, -9.887e-7, -5.469e-7, 4.418e-7
0.137, -9.887e-7, -5.438e-7, 4.449e-7
0.136, -9.826e-7, -5.438e-7, 4.388e-7
0.135, -9.826e-7, -5.408e-7, 4.418e-7
0.134, -9.857e-7, -5.438e-7, 4.418e-7
0.133, -9.826e-7, -5.408e-7, 4.418e-7
0.132, -9.826e-7, -5.408e-7, 4.418e-7
0.131, -9.826e-7, -5.408e-7, 4.418e-7
0.130, -9.826e-7, -5.408e-7, 4.418e-7
0.129, -9.765e-7, -5.377e-7, 4.388e-7
0.128, -9.765e-7, -5.347e-7, 4.418e-7
0.127, -9.765e-7, -5.377e-7, 4.388e-7
0.126, -9.765e-7, -5.347e-7, 4.418e-7
0.125, -9.765e-7, -5.347e-7, 4.418e-7
0.124, -9.735e-7, -5.347e-7, 4.388e-7
0.123, -9.735e-7, -5.347e-7, 4.388e-7
0.122, -9.765e-7, -5.347e-7, 4.418e-7
0.121, -9.735e-7, -5.316e-7, 4.418e-7
0.120, -9.704e-7, -5.316e-7, 4.388e-7
0.119, -9.735e-7, -5.316e-7, 4.418e-7
0.118, -9.704e-7, -5.316e-7, 4.388e-7
0.117, -9.704e-7, -5.316e-7, 4.388e-7
0.116, -9.643e-7, -5.286e-7, 4.357e-7
0.115, -9.643e-7, -5.286e-7, 4.357e-7
0.114, -9.674e-7, -5.286e-7, 4.388e-7
0.113, -9.643e-7, -5.286e-7, 4.357e-7
0.112, -9.643e-7, -5.286e-7, 4.357e-7
0.111, -9.582e-7, -5.255e-7, 4.327e-7
0.110, -9.643e-7, -5.286e-7, 4.357e-7
0.109, -9.582e-7, -5.255e-7, 4.327e-7
0.108, -9.582e-7, -5.255e-7, 4.327e-7
0.107, -9.551e-7, -5.225e-7, 4.327e-7
0.106, -9.551e-7, -5.194e-7, 4.357e-7
0.105, -9.521e-7, -5.225e-7, 4.296e-7
0.104, -9.551e-7, -5.225e-7, 4.327e-7
0.103, -9.521e-7, -5.194e-7, 4.327e-7
0.102, -9.521e-7, -5.225e-7, 4.296e-7
0.101, -9.551e-7, -5.225e-7, 4.327e-7
0.100, -9.521e-7, -5.194e-7, 4.327e-7
0.099, -9.490e-7, -5.225e-7, 4.266e-7
0.098, -9.460e-7, -5.194e-7, 4.266e-7
0.097, -9.460e-7, -5.164e-7, 4.296e-7
0.096, -9.429e-7, -5.194e-7, 4.235e-7
0.095, -9.490e-7, -5.194e-7, 4.296e-7
0.094, -9.429e-7, -5.133e-7, 4.296e-7
0.093, -9.429e-7, -5.164e-7, 4.266e-7
0.092, -9.368e-7, -5.133e-7, 4.235e-7
0.091, -9.368e-7, -5.133e-7, 4.235e-7
0.090, -9.368e-7, -5.133e-7, 4.235e-7
0.089, -9.399e-7, -5.133e-7, 4.266e-7
0.088, -9.368e-7, -5.133e-7, 4.235e-7
0.087, -9.338e-7, -5.133e-7, 4.205e-7
0.086, -9.338e-7, -5.103e-7, 4.235e-7
0.085, -9.338e-7, -5.103e-7, 4.235e-7
0.084, -9.338e-7, -5.103e-7, 4.235e-7
0.083, -9.277e-7, -5.103e-7, 4.174e-7
0.082, -9.246e-7, -5.072e-7, 4.174e-7
0.081, -9.277e-7, -5.103e-7, 4.174e-7
0.080, -9.307e-7, -5.103e-7, 4.205e-7
0.079, -9.216e-7, -5.072e-7, 4.144e-7
0.078, -9.277e-7, -5.103e-7, 4.174e-7
0.077, -9.246e-7, -5.072e-7, 4.174e-7
0.076, -9.216e-7, -5.072e-7, 4.144e-7
0.075, -9.185e-7, -5.042e-7, 4.144e-7
0.074, -9.185e-7, -5.042e-7, 4.144e-7
0.073, -9.155e-7, -5.042e-7, 4.113e-7
0.072, -9.155e-7, -5.042e-7, 4.113e-7
0.071, -9.155e-7, -5.042e-7, 4.113e-7
0.070, -9.185e-7, -5.072e-7, 4.113e-7
0.069, -9.094e-7, -5.011e-7, 4.083e-7
0.068, -9.155e-7, -5.042e-7, 4.113e-7
0.067, -9.124e-7, -5.011e-7, 4.113e-7
0.066, -9.094e-7, -5.011e-7, 4.083e-7
0.065, -9.094e-7, -5.011e-7, 4.083e-7
0.064, -9.124e-7, -5.011e-7, 4.113e-7
0.063, -9.094e-7, -5.011e-7, 4.083e-7
0.062, -9.063e-7, -5.011e-7, 4.052e-7
0.061, -9.094e-7, -4.981e-7, 4.113e-7
0.060, -9.033e-7, -4.981e-7, 4.052e-7
0.059, -9.063e-7, -5.011e-7, 4.052e-7
0.058, -9.063e-7, -4.981e-7, 4.083e-7
0.057, -9.033e-7, -4.981e-7, 4.052e-7
0.056, -8.972e-7, -4.950e-7, 4.022e-7
0.055, -9.002e-7, -4.950e-7, 4.052e-7
0.054, -8.972e-7, -4.950e-7, 4.022e-7
0.053, -8.972e-7, -4.950e-7, 4.022e-7
0.052, -8.972e-7, -4.950e-7, 4.022e-7
0.051, -8.972e-7, -4.950e-7, 4.022e-7
0.050, -8.941e-7, -4.950e-7, 3.991e-7
0.049, -8.972e-7, -4.919e-7, 4.052e-7
0.048, -8.911e-7, -4.919e-7, 3.991e-7
0.047, -8.941e-7, -4.950e-7, 3.991e-7
0.046, -8.911e-7, -4.919e-7, 3.991e-7
0.045, -8.911e-7, -4.919e-7, 3.991e-7
0.044, -8.911e-7, -4.919e-7, 3.991e-7
0.043, -8.880e-7, -4.889e-7, 3.991e-7
0.042, -8.880e-7, -4.919e-7, 3.961e-7
0.041, -8.911e-7, -4.919e-7, 3.991e-7
0.040, -8.880e-7, -4.919e-7, 3.961e-7
0.039, -8.850e-7, -4.889e-7, 3.961e-7
0.038, -8.819e-7, -4.889e-7, 3.930e-7
0.037, -8.850e-7, -4.889e-7, 3.961e-7
0.036, -8.850e-7, -4.889e-7, 3.961e-7
0.035, -8.850e-7, -4.889e-7, 3.961e-7
0.034, -8.819e-7, -4.858e-7, 3.961e-7
0.033, -8.850e-7, -4.889e-7, 3.961e-7
0.032, -8.850e-7, -4.889e-7, 3.961e-7
0.031, -8.819e-7, -4.889e-7, 3.930e-7
0.030, -8.789e-7, -4.858e-7, 3.930e-7
0.029, -8.789e-7, -4.858e-7, 3.930e-7
0.028, -8.819e-7, -4.889e-7, 3.930e-7
0.027, -8.789e-7, -4.858e-7, 3.930e-7
0.026, -8.758e-7, -4.858e-7, 3.900e-7
0.025, -8.758e-7, -4.858e-7, 3.900e-7
0.024, -8.789e-7, -4.858e-7, 3.930e-7
0.023, -8.728e-7, -4.828e-7, 3.900e-7
0.022, -8.789e-7, -4.858e-7, 3.930e-7
0.021, -8.758e-7, -4.828e-7, 3.930e-7
0.020, -8.758e-7, -4.858e-7, 3.900e-7
0.019, -8.758e-7, -4.828e-7, 3.930e-7
0.018, -8.758e-7, -4.828e-7, 3.930e-7
0.017, -8.697e-7, -4.828e-7, 3.869e-7
0.016, -8.728e-7, -4.828e-7, 3.900e-7
0.015, -8.697e-7, -4.797e-7, 3.900e-7
0.014, -8.697e-7, -4.828e-7, 3.869e-7
0.013, -8.728e-7, -4.828e-7, 3.900e-7
0.012, -8.697e-7, -4.797e-7, 3.900e-7
0.011, -8.666e-7, -4.797e-7, 3.869e-7
0.010, -8.697e-7, -4.797e-7, 3.900e-7
0.009, -8.636e-7, -4.767e-7, 3.869e-7
0.008, -8.666e-7, -4.797e-7, 3.869e-7
0.007, -8.697e-7, -4.797e-7, 3.900e-7
0.006, -8.636e-7, -4.767e-7, 3.869e-7
0.005, -8.666e-7, -4.797e-7, 3.869e-7
0.004, -8.636e-7, -4.767e-7, 3.869e-7
0.003, -8.605e-7, -4.767e-7, 3.839e-7
0.002, -8.636e-7, -4.767e-7, 3.869e-7
0.001, -8.605e-7, -4.767e-7, 3.839e-7
0.000, -8.605e-7, -4.767e-7, 3.839e-7
-0.001, -8.575e-7, -4.736e-7, 3.839e-7
-0.002, -8.575e-7, -4.736e-7, 3.839e-7
-0.003, -8.575e-7, -4.736e-7, 3.839e-7
-0.004, -8.575e-7, -4.736e-7, 3.839e-7
-0.005, -8.544e-7, -4.706e-7, 3.839e-7
-0.006, -8.544e-7, -4.706e-7, 3.839e-7
-0.007, -8.544e-7, -4.706e-7, 3.839e-7
-0.008, -8.514e-7, -4.675e-7, 3.839e-7
-0.009, -8.483e-7, -4.675e-7, 3.808e-7
-0.010, -8.544e-7, -4.706e-7, 3.839e-7
-0.011, -8.483e-7, -4.675e-7, 3.808e-7
-0.012, -8.514e-7, -4.675e-7, 3.839e-7
-0.013, -8.514e-7, -4.675e-7, 3.839e-7
-0.014, -8.483e-7, -4.675e-7, 3.808e-7
-0.015, -8.483e-7, -4.675e-7, 3.808e-7
-0.016, -8.514e-7, -4.675e-7, 3.839e-7
-0.017, -8.453e-7, -4.645e-7, 3.808e-7
-0.018, -8.453e-7, -4.645e-7, 3.808e-7
-0.019, -8.453e-7, -4.645e-7, 3.808e-7
-0.020, -8.453e-7, -4.645e-7, 3.808e-7
-0.021, -8.453e-7, -4.645e-7, 3.808e-7
-0.022, -8.422e-7, -4.614e-7, 3.808e-7
-0.023, -8.422e-7, -4.645e-7, 3.778e-7
-0.024, -8.422e-7, -4.614e-7, 3.808e-7
-0.025, -8.422e-7, -4.614e-7, 3.808e-7
-0.026, -8.422e-7, -4.645e-7, 3.778e-7
-0.027, -8.392e-7, -4.584e-7, 3.808e-7
-0.028, -8.361e-7, -4.584e-7, 3.778e-7
-0.029, -8.361e-7, -4.584e-7, 3.778e-7
-0.030, -8.392e-7, -4.584e-7, 3.808e-7
-0.031, -8.361e-7, -4.584e-7, 3.778e-7
-0.032, -8.361e-7, -4.584e-7, 3.778e-7
-0.033, -8.331e-7, -4.553e-7, 3.778e-7
-0.034, -8.300e-7, -4.553e-7, 3.747e-7
-0.035, -8.300e-7, -4.553e-7, 3.747e-7
-0.036, -8.331e-7, -4.553e-7, 3.778e-7
-0.037, -8.331e-7, -4.553e-7, 3.778e-7
-0.038, -8.361e-7, -4.584e-7, 3.778e-7
-0.039, -8.361e-7, -4.553e-7, 3.808e-7
-0.040, -8.300e-7, -4.523e-7, 3.778e-7
-0.041, -8.361e-7, -4.553e-7, 3.808e-7
-0.042, -8.300e-7, -4.523e-7, 3.778e-7
-0.043, -8.331e-7, -4.553e-7, 3.778e-7
-0.044, -8.300e-7, -4.523e-7, 3.778e-7
-0.045, -8.270e-7, -4.523e-7, 3.747e-7
-0.046, -8.300e-7, -4.523e-7, 3.778e-7
-0.047, -8.300e-7, -4.523e-7, 3.778e-7
-0.048, -8.270e-7, -4.523e-7, 3.747e-7
-0.049, -8.300e-7, -4.523e-7, 3.778e-7
-0.050, -8.239e-7, -4.492e-7, 3.747e-7
-0.051, -8.239e-7, -4.492e-7, 3.747e-7
-0.052, -8.270e-7, -4.492e-7, 3.778e-7
-0.053, -8.270e-7, -4.492e-7, 3.778e-7
-0.054, -8.239e-7, -4.492e-7, 3.747e-7
-0.055, -8.239e-7, -4.462e-7, 3.778e-7
-0.056, -8.209e-7, -4.462e-7, 3.747e-7
-0.057, -8.209e-7, -4.462e-7, 3.747e-7
-0.058, -8.209e-7, -4.431e-7, 3.778e-7
-0.059, -8.209e-7, -4.462e-7, 3.747e-7
-0.060, -8.239e-7, -4.462e-7, 3.778e-7
-0.061, -8.209e-7, -4.431e-7, 3.778e-7
-0.062, -8.148e-7, -4.431e-7, 3.716e-7
-0.063, -8.239e-7, -4.462e-7, 3.778e-7
-0.064, -8.178e-7, -4.431e-7, 3.747e-7
-0.065, -8.178e-7, -4.462e-7, 3.716e-7
-0.066, -8.178e-7, -4.431e-7, 3.747e-7
-0.067, -8.178e-7, -4.401e-7, 3.778e-7
-0.068, -8.117e-7, -4.401e-7, 3.716e-7
-0.069, -8.178e-7, -4.431e-7, 3.747e-7
-0.070, -8.148e-7, -4.401e-7, 3.747e-7
-0.071, -8.117e-7, -4.401e-7, 3.716e-7
-0.072, -8.148e-7, -4.401e-7, 3.747e-7
-0.073, -8.117e-7, -4.370e-7, 3.747e-7
-0.074, -8.087e-7, -4.370e-7, 3.716e-7
-0.075, -8.087e-7, -4.370e-7, 3.716e-7
-0.076, -8.087e-7, -4.370e-7, 3.716e-7
-0.077, -8.087e-7, -4.370e-7, 3.716e-7
-0.078, -8.087e-7, -4.370e-7, 3.716e-7
-0.079, -8.056e-7, -4.340e-7, 3.716e-7
-0.080, -8.056e-7, -4.370e-7, 3.686e-7
-0.081, -8.056e-7, -4.340e-7, 3.716e-7
-0.082, -8.026e-7, -4.340e-7, 3.686e-7
-0.083, -8.056e-7, -4.340e-7, 3.716e-7
-0.084, -8.056e-7, -4.340e-7, 3.716e-7
-0.085, -8.026e-7, -4.340e-7, 3.686e-7
-0.086, -7.995e-7, -4.309e-7, 3.686e-7
-0.087, -7.995e-7, -4.309e-7, 3.686e-7
-0.088, -7.934e-7, -4.279e-7, 3.655e-7
-0.089, -7.995e-7, -4.309e-7, 3.686e-7
-0.090, -7.965e-7, -4.279e-7, 3.686e-7
-0.091, -7.934e-7, -4.279e-7, 3.655e-7
-0.092, -7.965e-7, -4.279e-7, 3.686e-7
-0.093, -7.904e-7, -4.248e-7, 3.655e-7
-0.094, -7.934e-7, -4.279e-7, 3.655e-7
-0.095, -7.904e-7, -4.248e-7, 3.655e-7
-0.096, -7.934e-7, -4.279e-7, 3.655e-7
-0.097, -7.934e-7, -4.248e-7, 3.686e-7
-0.098, -7.904e-7, -4.248e-7, 3.655e-7
-0.099, -7.904e-7, -4.248e-7, 3.655e-7
-0.100, -7.904e-7, -4.248e-7, 3.655e-7
-0.101, -7.873e-7, -4.248e-7, 3.625e-7
-0.102, -7.873e-7, -4.248e-7, 3.625e-7
-0.103, -7.873e-7, -4.218e-7, 3.655e-7
-0.104, -7.843e-7, -4.218e-7, 3.625e-7
-0.105, -7.843e-7, -4.218e-7, 3.625e-7
-0.106, -7.843e-7, -4.187e-7, 3.655e-7
-0.107, -7.812e-7, -4.187e-7, 3.625e-7
-0.108, -7.812e-7, -4.187e-7, 3.625e-7
-0.109, -7.843e-7, -4.218e-7, 3.625e-7
-0.110, -7.751e-7, -4.157e-7, 3.594e-7
-0.111, -7.782e-7, -4.187e-7, 3.594e-7
-0.112, -7.812e-7, -4.187e-7, 3.625e-7
-0.113, -7.751e-7, -4.157e-7, 3.594e-7
-0.114, -7.782e-7, -4.187e-7, 3.594e-7
-0.115, -7.782e-7, -4.157e-7, 3.625e-7
-0.116, -7.751e-7, -4.157e-7, 3.594e-7
-0.117, -7.751e-7, -4.157e-7, 3.594e-7
-0.118, -7.721e-7, -4.126e-7, 3.594e-7
-0.119, -7.721e-7, -4.157e-7, 3.564e-7
-0.120, -7.721e-7, -4.126e-7, 3.594e-7
-0.121, -7.751e-7, -4.157e-7, 3.594e-7
-0.122, -7.690e-7, -4.126e-7, 3.564e-7
-0.123, -7.751e-7, -4.157e-7, 3.594e-7
-0.124, -7.690e-7, -4.096e-7, 3.594e-7
-0.125, -7.690e-7, -4.126e-7, 3.564e-7
-0.126, -7.659e-7, -4.096e-7, 3.564e-7
-0.127, -7.659e-7, -4.096e-7, 3.564e-7
-0.128, -7.690e-7, -4.096e-7, 3.594e-7
-0.129, -7.690e-7, -4.096e-7, 3.594e-7
-0.130, -7.659e-7, -4.096e-7, 3.564e-7
-0.131, -7.629e-7, -4.065e-7, 3.564e-7
-0.132, -7.629e-7, -4.096e-7, 3.533e-7
-0.133, -7.659e-7, -4.096e-7, 3.564e-7
-0.134, -7.659e-7, -4.096e-7, 3.564e-7
-0.135, -7.629e-7, -4.065e-7, 3.564e-7
-0.136, -7.629e-7, -4.096e-7, 3.533e-7
-0.137, -7.598e-7, -4.065e-7, 3.533e-7
-0.138, -7.598e-7, -4.065e-7, 3.533e-7
-0.139, -7.598e-7, -4.065e-7, 3.533e-7
-0.140, -7.598e-7, -4.065e-7, 3.533e-7
-0.141, -7.568e-7, -4.065e-7, 3.503e-7
-0.142, -7.598e-7, -4.065e-7, 3.533e-7
-0.143, -7.568e-7, -4.035e-7, 3.533e-7
-0.144, -7.537e-7, -4.035e-7, 3.503e-7
-0.145, -7.568e-7, -4.035e-7, 3.533e-7
-0.146, -7.537e-7, -4.004e-7, 3.533e-7
-0.147, -7.507e-7, -4.004e-7, 3.503e-7
-0.148, -7.537e-7, -4.035e-7, 3.503e-7
-0.149, -7.476e-7, -3.974e-7, 3.503e-7
-0.150, -7.476e-7, -4.004e-7, 3.472e-7
-0.151, -7.537e-7, -4.035e-7, 3.503e-7
-0.152, -7.507e-7, -4.004e-7, 3.503e-7
-0.153, -7.476e-7, -4.004e-7, 3.472e-7
-0.154, -7.507e-7, -4.004e-7, 3.503e-7
-0.155, -7.476e-7, -3.974e-7, 3.503e-7
-0.156, -7.476e-7, -4.004e-7, 3.472e-7
-0.157, -7.476e-7, -3.974e-7, 3.503e-7
-0.158, -7.446e-7, -3.974e-7, 3.472e-7
-0.159, -7.415e-7, -3.974e-7, 3.442e-7
-0.160, -7.415e-7, -3.943e-7, 3.472e-7
-0.161, -7.385e-7, -3.943e-7, 3.442e-7
-0.162, -7.415e-7, -3.974e-7, 3.442e-7
-0.163, -7.385e-7, -3.943e-7, 3.442e-7
-0.164, -7.385e-7, -3.943e-7, 3.442e-7
-0.165, -7.385e-7, -3.943e-7, 3.442e-7
-0.166, -7.385e-7, -3.943e-7, 3.442e-7
-0.167, -7.385e-7, -3.943e-7, 3.442e-7
-0.168, -7.324e-7, -3.912e-7, 3.411e-7
-0.169, -7.354e-7, -3.912e-7, 3.442e-7
-0.170, -7.324e-7, -3.912e-7, 3.411e-7
-0.171, -7.354e-7, -3.912e-7, 3.442e-7
-0.172, -7.324e-7, -3.912e-7, 3.411e-7
-0.173, -7.324e-7, -3.912e-7, 3.411e-7
-0.174, -7.324e-7, -3.912e-7, 3.411e-7
-0.175, -7.263e-7, -3.882e-7, 3.381e-7
-0.176, -7.293e-7, -3.882e-7, 3.411e-7
-0.177, -7.263e-7, -3.882e-7, 3.381e-7
-0.178, -7.263e-7, -3.882e-7, 3.381e-7
-0.179, -7.263e-7, -3.882e-7, 3.381e-7
-0.180, -7.232e-7, -3.851e-7, 3.381e-7
-0.181, -7.232e-7, -3.882e-7, 3.350e-7
-0.182, -7.232e-7, -3.851e-7, 3.381e-7
-0.183, -7.202e-7, -3.851e-7, 3.350e-7
-0.184, -7.202e-7, -3.851e-7, 3.350e-7
-0.185, -7.202e-7, -3.851e-7, 3.350e-7
-0.186, -7.202e-7, -3.851e-7, 3.350e-7
-0.187, -7.202e-7, -3.851e-7, 3.350e-7
-0.188, -7.171e-7, -3.821e-7, 3.350e-7
-0.189, -7.141e-7, -3.821e-7, 3.320e-7
-0.190, -7.171e-7, -3.851e-7, 3.320e-7
-0.191, -7.171e-7, -3.821e-7, 3.350e-7
-0.192, -7.141e-7, -3.821e-7, 3.320e-7
-0.193, -7.141e-7, -3.821e-7, 3.320e-7
-0.194, -7.141e-7, -3.821e-7, 3.320e-7
-0.195, -7.110e-7, -3.790e-7, 3.320e-7
-0.196, -7.141e-7, -3.821e-7, 3.320e-7
-0.197, -7.110e-7, -3.790e-7, 3.320e-7
-0.198, -7.110e-7, -3.790e-7, 3.320e-7
-0.199, -7.141e-7, -3.821e-7, 3.320e-7
-0.200, -7.110e-7, -3.790e-7, 3.320e-7
-0.201, -7.110e-7, -3.790e-7, 3.320e-7
-0.202, -7.080e-7, -3.790e-7, 3.289e-7
-0.203, -7.080e-7, -3.790e-7, 3.289e-7
-0.204, -7.080e-7, -3.790e-7, 3.289e-7
-0.205, -7.080e-7, -3.790e-7, 3.289e-7
-0.206, -7.080e-7, -3.790e-7, 3.289e-7
-0.207, -7.080e-7, -3.790e-7, 3.289e-7
-0.208, -7.080e-7, -3.790e-7, 3.289e-7
-0.209, -7.049e-7, -3.760e-7, 3.289e-7
-0.210, -7.019e-7, -3.760e-7, 3.259e-7
-0.211, -7.049e-7, -3.760e-7, 3.289e-7
-0.212, -7.080e-7, -3.790e-7, 3.289e-7
-0.213, -7.019e-7, -3.760e-7, 3.259e-7
-0.214, -7.080e-7, -3.790e-7, 3.289e-7
-0.215, -7.019e-7, -3.760e-7, 3.259e-7
-0.216, -7.019e-7, -3.760e-7, 3.259e-7
-0.217, -7.019e-7, -3.760e-7, 3.259e-7
-0.218, -7.019e-7, -3.760e-7, 3.259e-7
-0.219, -6.988e-7, -3.729e-7, 3.259e-7
-0.220, -6.988e-7, -3.729e-7, 3.259e-7
-0.221, -6.988e-7, -3.729e-7, 3.259e-7
-0.222, -6.988e-7, -3.729e-7, 3.259e-7
-0.223, -6.958e-7, -3.729e-7, 3.228e-7
-0.224, -6.958e-7, -3.729e-7, 3.228e-7
-0.225, -6.988e-7, -3.729e-7, 3.259e-7
-0.226, -6.958e-7, -3.729e-7, 3.228e-7
-0.227, -6.958e-7, -3.729e-7, 3.228e-7
-0.228, -6.958e-7, -3.729e-7, 3.228e-7
-0.229, -6.958e-7, -3.729e-7, 3.228e-7
-0.230, -6.958e-7, -3.729e-7, 3.228e-7
-0.231, -6.927e-7, -3.699e-7, 3.228e-7
-0.232, -6.897e-7, -3.699e-7, 3.198e-7
-0.233, -6.958e-7, -3.729e-7, 3.228e-7
-0.234, -6.927e-7, -3.699e-7, 3.228e-7
-0.235, -6.897e-7, -3.699e-7, 3.198e-7
-0.236, -6.897e-7, -3.699e-7, 3.198e-7
-0.237, -6.897e-7, -3.699e-7, 3.198e-7
-0.238, -6.897e-7, -3.699e-7, 3.198e-7
-0.239, -6.897e-7, -3.699e-7, 3.198e-7
-0.240, -6.866e-7, -3.668e-7, 3.198e-7
-0.241, -6.866e-7, -3.699e-7, 3.167e-7
-0.242, -6.866e-7, -3.668e-7, 3.198e-7
-0.243, -6.836e-7, -3.668e-7, 3.167e-7
-0.244, -6.836e-7, -3.668e-7, 3.167e-7
-0.245, -6.866e-7, -3.668e-7, 3.198e-7
-0.246, -6.836e-7, -3.668e-7, 3.167e-7
-0.247, -6.836e-7, -3.668e-7, 3.167e-7
-0.248, -6.836e-7, -3.668e-7, 3.167e-7
-0.249, -6.836e-7, -3.668e-7, 3.167e-7
-0.250, -6.805e-7, -3.668e-7, 3.137e-7
-0.251, -6.775e-7, -3.638e-7, 3.137e-7
-0.252, -6.775e-7, -3.638e-7, 3.137e-7
-0.253, -6.805e-7, -3.668e-7, 3.137e-7
-0.254, -6.836e-7, -3.668e-7, 3.167e-7
-0.255, -6.775e-7, -3.638e-7, 3.137e-7
-0.256, -6.775e-7, -3.638e-7, 3.137e-7
-0.257, -6.744e-7, -3.638e-7, 3.106e-7
-0.258, -6.805e-7, -3.668e-7, 3.137e-7
-0.259, -6.775e-7, -3.638e-7, 3.137e-7
-0.260, -6.744e-7, -3.638e-7, 3.106e-7
-0.261, -6.775e-7, -3.638e-7, 3.137e-7
-0.262, -6.713e-7, -3.607e-7, 3.106e-7
-0.263, -6.744e-7, -3.638e-7, 3.106e-7
-0.264, -6.713e-7, -3.607e-7, 3.106e-7
-0.265, -6.713e-7, -3.607e-7, 3.106e-7
-0.266, -6.744e-7, -3.638e-7, 3.106e-7
-0.267, -6.713e-7, -3.607e-7, 3.106e-7
-0.268, -6.683e-7, -3.607e-7, 3.076e-7
-0.269, -6.683e-7, -3.607e-7, 3.076e-7
-0.270, -6.713e-7, -3.607e-7, 3.106e-7
-0.271, -6.683e-7, -3.607e-7, 3.076e-7
-0.272, -6.683e-7, -3.607e-7, 3.076e-7
-0.273, -6.713e-7, -3.607e-7, 3.106e-7
-0.274, -6.683e-7, -3.607e-7, 3.076e-7
-0.275, -6.683e-7, -3.607e-7, 3.076e-7
-0.276, -6.652e-7, -3.577e-7, 3.076e-7
-0.277, -6.652e-7, -3.607e-7, 3.045e-7
-0.278, -6.683e-7, -3.607e-7, 3.076e-7
-0.279, -6.683e-7, -3.607e-7, 3.076e-7
-0.280, -6.683e-7, -3.607e-7, 3.076e-7
-0.281, -6.652e-7, -3.577e-7, 3.076e-7
-0.282, -6.652e-7, -3.577e-7, 3.076e-7
-0.283, -6.622e-7, -3.577e-7, 3.045e-7
-0.284, -6.622e-7, -3.577e-7, 3.045e-7
-0.285, -6.622e-7, -3.577e-7, 3.045e-7
-0.286, -6.591e-7, -3.577e-7, 3.015e-7
-0.287, -6.652e-7, -3.607e-7, 3.045e-7
-0.288, -6.652e-7, -3.607e-7, 3.045e-7
-0.289, -6.622e-7, -3.577e-7, 3.045e-7
-0.290, -6.591e-7, -3.577e-7, 3.015e-7
-0.291, -6.622e-7, -3.577e-7, 3.045e-7
-0.292, -6.591e-7, -3.577e-7, 3.015e-7
-0.293, -6.622e-7, -3.577e-7, 3.045e-7
-0.294, -6.591e-7, -3.577e-7, 3.015e-7
-0.295, -6.622e-7, -3.577e-7, 3.045e-7
-0.296, -6.591e-7, -3.577e-7, 3.015e-7
-0.297, -6.622e-7, -3.577e-7, 3.045e-7
-0.298, -6.622e-7, -3.607e-7, 3.015e-7
-0.299, -6.591e-7, -3.577e-7, 3.015e-7
-0.300, -6.591e-7, -3.577e-7, 3.015e-7
-0.301, -6.591e-7, -3.577e-7, 3.015e-7
-0.302, -6.561e-7, -3.577e-7, 2.984e-7
-0.303, -6.591e-7, -3.577e-7, 3.015e-7
-0.304, -6.622e-7, -3.607e-7, 3.015e-7
-0.305, -6.561e-7, -3.577e-7, 2.984e-7
-0.306, -6.591e-7, -3.577e-7, 3.015e-7
-0.307, -6.591e-7, -3.577e-7, 3.015e-7
-0.308, -6.561e-7, -3.577e-7, 2.984e-7
-0.309, -6.591e-7, -3.607e-7, 2.984e-7
-0.310, -6.530e-7, -3.546e-7, 2.984e-7
-0.311, -6.561e-7, -3.577e-7, 2.984e-7
-0.312, -6.591e-7, -3.607e-7, 2.984e-7
-0.313, -6.561e-7, -3.577e-7, 2.984e-7
-0.314, -6.530e-7, -3.577e-7, 2.954e-7
-0.315, -6.561e-7, -3.577e-7, 2.984e-7
-0.316, -6.561e-7, -3.577e-7, 2.984e-7
-0.317, -6.530e-7, -3.577e-7, 2.954e-7
-0.318, -6.530e-7, -3.577e-7, 2.954e-7
-0.319, -6.530e-7, -3.577e-7, 2.954e-7
-0.320, -6.530e-7, -3.577e-7, 2.954e-7
-0.321, -6.561e-7, -3.577e-7, 2.984e-7
-0.322, -6.500e-7, -3.546e-7, 2.954e-7
-0.323, -6.530e-7, -3.577e-7, 2.954e-7
-0.324, -6.530e-7, -3.577e-7, 2.954e-7
-0.325, -6.530e-7, -3.577e-7, 2.954e-7
-0.326, -6.530e-7, -3.577e-7, 2.954e-7
-0.327, -6.530e-7, -3.577e-7, 2.954e-7
-0.328, -6.500e-7, -3.546e-7, 2.954e-7
-0.329, -6.530e-7, -3.607e-7, 2.923e-7
-0.330, -6.500e-7, -3.577e-7, 2.923e-7
-0.331, -6.561e-7, -3.607e-7, 2.954e-7
-0.332, -6.530e-7, -3.607e-7, 2.923e-7
-0.333, -6.500e-7, -3.577e-7, 2.923e-7
-0.334, -6.500e-7, -3.577e-7, 2.923e-7
-0.335, -6.530e-7, -3.607e-7, 2.923e-7
-0.336, -6.500e-7, -3.577e-7, 2.923e-7
-0.337, -6.530e-7, -3.607e-7, 2.923e-7
-0.338, -6.500e-7, -3.577e-7, 2.923e-7
-0.339, -6.500e-7, -3.577e-7, 2.923e-7
-0.340, -6.469e-7, -3.577e-7, 2.893e-7
-0.341, -6.469e-7, -3.577e-7, 2.893e-7
-0.342, -6.500e-7, -3.607e-7, 2.893e-7
-0.343, -6.469e-7, -3.577e-7, 2.893e-7
-0.344, -6.469e-7, -3.577e-7, 2.893e-7
-0.345, -6.500e-7, -3.607e-7, 2.893e-7
-0.346, -6.469e-7, -3.577e-7, 2.893e-7
-0.347, -6.469e-7, -3.577e-7, 2.893e-7
-0.348, -6.469e-7, -3.607e-7, 2.862e-7
-0.349, -6.469e-7, -3.577e-7, 2.893e-7
-0.350, -6.469e-7, -3.607e-7, 2.862e-7
-0.351, -6.469e-7, -3.607e-7, 2.862e-7
-0.352, -6.439e-7, -3.577e-7, 2.862e-7
-0.353, -6.439e-7, -3.577e-7, 2.862e-7
-0.354, -6.469e-7, -3.607e-7, 2.862e-7
-0.355, -6.439e-7, -3.577e-7, 2.862e-7
-0.356, -6.439e-7, -3.577e-7, 2.862e-7
-0.357, -6.469e-7, -3.607e-7, 2.862e-7
-0.358, -6.439e-7, -3.577e-7, 2.862e-7
-0.359, -6.439e-7, -3.577e-7, 2.862e-7
-0.360, -6.469e-7, -3.607e-7, 2.862e-7
-0.361, -6.469e-7, -3.607e-7, 2.862e-7
-0.362, -6.469e-7, -3.638e-7, 2.831e-7
-0.363, -6.469e-7, -3.607e-7, 2.862e-7
-0.364, -6.469e-7, -3.607e-7, 2.862e-7
-0.365, -6.469e-7, -3.638e-7, 2.831e-7
-0.366, -6.469e-7, -3.638e-7, 2.831e-7
-0.367, -6.469e-7, -3.607e-7, 2.862e-7
-0.368, -6.439e-7, -3.607e-7, 2.831e-7
-0.369, -6.469e-7, -3.638e-7, 2.831e-7
-0.370, -6.439e-7, -3.607e-7, 2.831e-7
-0.371, -6.469e-7, -3.638e-7, 2.831e-7
-0.372, -6.469e-7, -3.638e-7, 2.831e-7
-0.373, -6.469e-7, -3.638e-7, 2.831e-7
-0.374, -6.469e-7, -3.638e-7, 2.831e-7
-0.375, -6.469e-7, -3.638e-7, 2.831e-7
-0.376, -6.469e-7, -3.638e-7, 2.831e-7
-0.377, -6.500e-7, -3.668e-7, 2.831e-7
-0.378, -6.500e-7, -3.668e-7, 2.831e-7
-0.379, -6.500e-7, -3.668e-7, 2.831e-7
-0.380, -6.469e-7, -3.668e-7, 2.801e-7
-0.381, -6.469e-7, -3.668e-7, 2.801e-7
-0.382, -6.500e-7, -3.668e-7, 2.831e-7
-0.383, -6.469e-7, -3.638e-7, 2.831e-7
-0.384, -6.469e-7, -3.668e-7, 2.801e-7
-0.385, -6.530e-7, -3.699e-7, 2.831e-7
-0.386, -6.500e-7, -3.668e-7, 2.831e-7
-0.387, -6.469e-7, -3.668e-7, 2.801e-7
-0.388, -6.500e-7, -3.699e-7, 2.801e-7
-0.389, -6.530e-7, -3.699e-7, 2.831e-7
-0.390, -6.500e-7, -3.699e-7, 2.801e-7
-0.391, -6.530e-7, -3.729e-7, 2.801e-7
-0.392, -6.469e-7, -3.668e-7, 2.801e-7
-0.393, -6.500e-7, -3.699e-7, 2.801e-7
-0.394, -6.530e-7, -3.729e-7, 2.801e-7
-0.395, -6.500e-7, -3.699e-7, 2.801e-7
-0.396, -6.500e-7, -3.729e-7, 2.770e-7
-0.397, -6.530e-7, -3.729e-7, 2.801e-7
-0.398, -6.500e-7, -3.729e-7, 2.770e-7
-0.399, -6.500e-7, -3.729e-7, 2.770e-7
-0.400, -6.561e-7, -3.760e-7, 2.801e-7
