Feb. 28, 2018   11:33:22
Square Wave Voltammetry
File: c:\users\electrochemist\desktop\2018\28022018_unbuffered_9,2\13_e1_9,2_0118_ph5,55_3.txt
Data Source:  Experiment
Instrument Model:  CHI1040A
Header: 
Note: 

Init E (V) = 0.5
Final E (V) = -0.05
Incr E (V) = 0.001
Amplitude (V) = 0.1
Frequency (Hz) = 150
Quiet Time (sec) = 0
Sensitivity (A/V) = 1e-6

Difference:

Forward:

Reverse:

Potential/V, Diff(i/A), For(i/A), Rev(i/A)

0.499, -5.993e-7, -1.444e-7, 4.549e-7
0.498, -7.211e-7, -3.232e-7, 3.979e-7
0.497, -7.141e-7, -3.354e-7, 3.787e-7
0.496, -7.074e-7, -3.412e-7, 3.661e-7
0.495, -7.013e-7, -3.434e-7, 3.579e-7
0.494, -6.970e-7, -3.455e-7, 3.515e-7
0.493, -6.930e-7, -3.464e-7, 3.466e-7
0.492, -6.884e-7, -3.467e-7, 3.417e-7
0.491, -6.854e-7, -3.473e-7, 3.381e-7
0.490, -6.832e-7, -3.482e-7, 3.350e-7
0.489, -6.814e-7, -3.482e-7, 3.332e-7
0.488, -6.778e-7, -3.495e-7, 3.283e-7
0.487, -6.784e-7, -3.504e-7, 3.280e-7
0.486, -6.741e-7, -3.488e-7, 3.252e-7
0.485, -6.753e-7, -3.516e-7, 3.237e-7
0.484, -6.735e-7, -3.516e-7, 3.219e-7
0.483, -6.710e-7, -3.504e-7, 3.207e-7
0.482, -6.717e-7, -3.525e-7, 3.191e-7
0.481, -6.686e-7, -3.504e-7, 3.182e-7
0.480, -6.695e-7, -3.528e-7, 3.167e-7
0.479, -6.668e-7, -3.522e-7, 3.146e-7
0.478, -6.686e-7, -3.525e-7, 3.161e-7
0.477, -6.643e-7, -3.531e-7, 3.112e-7
0.476, -6.662e-7, -3.546e-7, 3.115e-7
0.475, -6.659e-7, -3.540e-7, 3.118e-7
0.474, -6.643e-7, -3.543e-7, 3.100e-7
0.473, -6.643e-7, -3.546e-7, 3.097e-7
0.472, -6.671e-7, -3.562e-7, 3.109e-7
0.471, -6.619e-7, -3.534e-7, 3.085e-7
0.470, -6.628e-7, -3.565e-7, 3.063e-7
0.469, -6.625e-7, -3.556e-7, 3.069e-7
0.468, -6.634e-7, -3.568e-7, 3.066e-7
0.467, -6.619e-7, -3.580e-7, 3.039e-7
0.466, -6.631e-7, -3.580e-7, 3.051e-7
0.465, -6.622e-7, -3.562e-7, 3.060e-7
0.464, -6.613e-7, -3.580e-7, 3.033e-7
0.463, -6.628e-7, -3.583e-7, 3.045e-7
0.462, -6.613e-7, -3.580e-7, 3.033e-7
0.461, -6.610e-7, -3.595e-7, 3.014e-7
0.460, -6.628e-7, -3.598e-7, 3.030e-7
0.459, -6.604e-7, -3.589e-7, 3.014e-7
0.458, -6.607e-7, -3.614e-7, 2.993e-7
0.457, -6.625e-7, -3.604e-7, 3.021e-7
0.456, -6.601e-7, -3.595e-7, 3.005e-7
0.455, -6.634e-7, -3.623e-7, 3.011e-7
0.454, -6.637e-7, -3.623e-7, 3.014e-7
0.453, -6.631e-7, -3.626e-7, 3.005e-7
0.452, -6.640e-7, -3.635e-7, 3.005e-7
0.451, -6.634e-7, -3.632e-7, 3.002e-7
0.450, -6.607e-7, -3.626e-7, 2.981e-7
0.449, -6.634e-7, -3.656e-7, 2.978e-7
0.448, -6.649e-7, -3.656e-7, 2.993e-7
0.447, -6.634e-7, -3.653e-7, 2.981e-7
0.446, -6.643e-7, -3.672e-7, 2.972e-7
0.445, -6.649e-7, -3.669e-7, 2.981e-7
0.444, -6.622e-7, -3.662e-7, 2.960e-7
0.443, -6.656e-7, -3.681e-7, 2.975e-7
0.442, -6.665e-7, -3.678e-7, 2.987e-7
0.441, -6.662e-7, -3.690e-7, 2.972e-7
0.440, -6.677e-7, -3.708e-7, 2.969e-7
0.439, -6.665e-7, -3.693e-7, 2.972e-7
0.438, -6.665e-7, -3.699e-7, 2.966e-7
0.437, -6.704e-7, -3.726e-7, 2.978e-7
0.436, -6.680e-7, -3.708e-7, 2.972e-7
0.435, -6.692e-7, -3.723e-7, 2.969e-7
0.434, -6.704e-7, -3.733e-7, 2.972e-7
0.433, -6.710e-7, -3.739e-7, 2.972e-7
0.432, -6.710e-7, -3.748e-7, 2.963e-7
0.431, -6.717e-7, -3.757e-7, 2.960e-7
0.430, -6.732e-7, -3.751e-7, 2.981e-7
0.429, -6.720e-7, -3.757e-7, 2.963e-7
0.428, -6.732e-7, -3.766e-7, 2.966e-7
0.427, -6.744e-7, -3.772e-7, 2.972e-7
0.426, -6.735e-7, -3.772e-7, 2.963e-7
0.425, -6.753e-7, -3.794e-7, 2.960e-7
0.424, -6.771e-7, -3.803e-7, 2.969e-7
0.423, -6.753e-7, -3.791e-7, 2.963e-7
0.422, -6.765e-7, -3.803e-7, 2.963e-7
0.421, -6.778e-7, -3.821e-7, 2.956e-7
0.420, -6.799e-7, -3.830e-7, 2.969e-7
0.419, -6.796e-7, -3.827e-7, 2.969e-7
0.418, -6.811e-7, -3.830e-7, 2.981e-7
0.417, -6.808e-7, -3.839e-7, 2.969e-7
0.416, -6.817e-7, -3.849e-7, 2.969e-7
0.415, -6.839e-7, -3.858e-7, 2.981e-7
0.414, -6.820e-7, -3.855e-7, 2.966e-7
0.413, -6.848e-7, -3.867e-7, 2.981e-7
0.412, -6.860e-7, -3.882e-7, 2.978e-7
0.411, -6.845e-7, -3.870e-7, 2.975e-7
0.410, -6.869e-7, -3.891e-7, 2.978e-7
0.409, -6.890e-7, -3.903e-7, 2.987e-7
0.408, -6.903e-7, -3.916e-7, 2.987e-7
0.407, -6.897e-7, -3.900e-7, 2.996e-7
0.406, -6.897e-7, -3.919e-7, 2.978e-7
0.405, -6.894e-7, -3.925e-7, 2.969e-7
0.404, -6.936e-7, -3.940e-7, 2.996e-7
0.403, -6.918e-7, -3.940e-7, 2.978e-7
0.402, -6.936e-7, -3.949e-7, 2.987e-7
0.401, -6.955e-7, -3.965e-7, 2.990e-7
0.400, -6.961e-7, -3.965e-7, 2.996e-7
0.399, -6.979e-7, -3.986e-7, 2.993e-7
0.398, -6.976e-7, -3.986e-7, 2.990e-7
0.397, -6.982e-7, -3.980e-7, 3.002e-7
0.396, -6.994e-7, -3.998e-7, 2.996e-7
0.395, -7.025e-7, -4.016e-7, 3.008e-7
0.394, -7.016e-7, -4.016e-7, 2.999e-7
0.393, -7.034e-7, -4.032e-7, 3.002e-7
0.392, -7.052e-7, -4.038e-7, 3.014e-7
0.391, -7.067e-7, -4.053e-7, 3.014e-7
0.390, -7.071e-7, -4.059e-7, 3.011e-7
0.389, -7.040e-7, -4.038e-7, 3.002e-7
0.388, -7.092e-7, -4.068e-7, 3.024e-7
0.387, -7.086e-7, -4.077e-7, 3.008e-7
0.386, -7.101e-7, -4.084e-7, 3.018e-7
0.385, -7.116e-7, -4.093e-7, 3.024e-7
0.384, -7.113e-7, -4.102e-7, 3.011e-7
0.383, -7.147e-7, -4.117e-7, 3.030e-7
0.382, -7.122e-7, -4.111e-7, 3.011e-7
0.381, -7.153e-7, -4.132e-7, 3.021e-7
0.380, -7.168e-7, -4.129e-7, 3.039e-7
0.379, -7.162e-7, -4.142e-7, 3.021e-7
0.378, -7.186e-7, -4.148e-7, 3.039e-7
0.377, -7.196e-7, -4.157e-7, 3.039e-7
0.376, -7.199e-7, -4.163e-7, 3.036e-7
0.375, -7.241e-7, -4.196e-7, 3.045e-7
0.374, -7.248e-7, -4.184e-7, 3.063e-7
0.373, -7.257e-7, -4.206e-7, 3.051e-7
0.372, -7.257e-7, -4.196e-7, 3.060e-7
0.371, -7.257e-7, -4.206e-7, 3.051e-7
0.370, -7.269e-7, -4.224e-7, 3.045e-7
0.369, -7.287e-7, -4.233e-7, 3.054e-7
0.368, -7.299e-7, -4.224e-7, 3.075e-7
0.367, -7.305e-7, -4.242e-7, 3.063e-7
0.366, -7.339e-7, -4.264e-7, 3.075e-7
0.365, -7.345e-7, -4.264e-7, 3.082e-7
0.364, -7.367e-7, -4.288e-7, 3.079e-7
0.363, -7.345e-7, -4.276e-7, 3.069e-7
0.362, -7.363e-7, -4.285e-7, 3.079e-7
0.361, -7.394e-7, -4.319e-7, 3.075e-7
0.360, -7.403e-7, -4.315e-7, 3.088e-7
0.359, -7.412e-7, -4.319e-7, 3.094e-7
0.358, -7.425e-7, -4.334e-7, 3.091e-7
0.357, -7.446e-7, -4.343e-7, 3.103e-7
0.356, -7.443e-7, -4.349e-7, 3.094e-7
0.355, -7.467e-7, -4.367e-7, 3.100e-7
0.354, -7.470e-7, -4.373e-7, 3.097e-7
0.353, -7.492e-7, -4.380e-7, 3.112e-7
0.352, -7.504e-7, -4.392e-7, 3.112e-7
0.351, -7.495e-7, -4.386e-7, 3.109e-7
0.350, -7.544e-7, -4.416e-7, 3.127e-7
0.349, -7.547e-7, -4.419e-7, 3.127e-7
0.348, -7.559e-7, -4.438e-7, 3.121e-7
0.347, -7.553e-7, -4.431e-7, 3.121e-7
0.346, -7.592e-7, -4.453e-7, 3.140e-7
0.345, -7.611e-7, -4.459e-7, 3.152e-7
0.344, -7.601e-7, -4.468e-7, 3.133e-7
0.343, -7.629e-7, -4.492e-7, 3.137e-7
0.342, -7.641e-7, -4.486e-7, 3.155e-7
0.341, -7.647e-7, -4.508e-7, 3.140e-7
0.340, -7.675e-7, -4.517e-7, 3.158e-7
0.339, -7.659e-7, -4.502e-7, 3.158e-7
0.338, -7.666e-7, -4.523e-7, 3.143e-7
0.337, -7.714e-7, -4.550e-7, 3.164e-7
0.336, -7.714e-7, -4.544e-7, 3.170e-7
0.335, -7.727e-7, -4.563e-7, 3.164e-7
0.334, -7.751e-7, -4.581e-7, 3.170e-7
0.333, -7.760e-7, -4.572e-7, 3.188e-7
0.332, -7.751e-7, -4.584e-7, 3.167e-7
0.331, -7.778e-7, -4.605e-7, 3.173e-7
0.330, -7.797e-7, -4.602e-7, 3.194e-7
0.329, -7.797e-7, -4.602e-7, 3.194e-7
0.328, -7.843e-7, -4.639e-7, 3.204e-7
0.327, -7.840e-7, -4.633e-7, 3.207e-7
0.326, -7.836e-7, -4.645e-7, 3.191e-7
0.325, -7.876e-7, -4.672e-7, 3.204e-7
0.324, -7.867e-7, -4.672e-7, 3.194e-7
0.323, -7.897e-7, -4.688e-7, 3.210e-7
0.322, -7.919e-7, -4.700e-7, 3.219e-7
0.321, -7.928e-7, -4.700e-7, 3.228e-7
0.320, -7.928e-7, -4.712e-7, 3.216e-7
0.319, -7.959e-7, -4.734e-7, 3.225e-7
0.318, -7.965e-7, -4.718e-7, 3.246e-7
0.317, -7.962e-7, -4.734e-7, 3.228e-7
0.316, -7.998e-7, -4.755e-7, 3.243e-7
0.315, -8.010e-7, -4.743e-7, 3.268e-7
0.314, -8.020e-7, -4.770e-7, 3.249e-7
0.313, -8.059e-7, -4.795e-7, 3.265e-7
0.312, -8.056e-7, -4.788e-7, 3.268e-7
0.311, -8.050e-7, -4.795e-7, 3.256e-7
0.310, -8.096e-7, -4.819e-7, 3.277e-7
0.309, -8.108e-7, -4.810e-7, 3.298e-7
0.308, -8.129e-7, -4.837e-7, 3.292e-7
0.307, -8.132e-7, -4.837e-7, 3.295e-7
0.306, -8.166e-7, -4.849e-7, 3.317e-7
0.305, -8.169e-7, -4.868e-7, 3.301e-7
0.304, -8.178e-7, -4.865e-7, 3.314e-7
0.303, -8.197e-7, -4.877e-7, 3.320e-7
0.302, -8.178e-7, -4.889e-7, 3.289e-7
0.301, -8.230e-7, -4.917e-7, 3.314e-7
0.300, -8.224e-7, -4.898e-7, 3.326e-7
0.299, -8.227e-7, -4.920e-7, 3.307e-7
0.298, -8.264e-7, -4.926e-7, 3.338e-7
0.297, -8.282e-7, -4.944e-7, 3.338e-7
0.296, -8.279e-7, -4.941e-7, 3.338e-7
0.295, -8.306e-7, -4.956e-7, 3.350e-7
0.294, -8.300e-7, -4.959e-7, 3.341e-7
0.293, -8.334e-7, -4.987e-7, 3.347e-7
0.292, -8.325e-7, -4.981e-7, 3.344e-7
0.291, -8.361e-7, -4.990e-7, 3.371e-7
0.290, -8.383e-7, -5.014e-7, 3.368e-7
0.289, -8.377e-7, -5.005e-7, 3.371e-7
0.288, -8.392e-7, -5.017e-7, 3.375e-7
0.287, -8.425e-7, -5.045e-7, 3.381e-7
0.286, -8.428e-7, -5.054e-7, 3.375e-7
0.285, -8.441e-7, -5.045e-7, 3.396e-7
0.284, -8.468e-7, -5.066e-7, 3.402e-7
0.283, -8.477e-7, -5.075e-7, 3.402e-7
0.282, -8.456e-7, -5.063e-7, 3.393e-7
0.281, -8.502e-7, -5.091e-7, 3.411e-7
0.280, -8.520e-7, -5.100e-7, 3.420e-7
0.279, -8.526e-7, -5.100e-7, 3.426e-7
0.278, -8.535e-7, -5.124e-7, 3.411e-7
0.277, -8.560e-7, -5.133e-7, 3.426e-7
0.276, -8.560e-7, -5.124e-7, 3.436e-7
0.275, -8.569e-7, -5.145e-7, 3.423e-7
0.274, -8.605e-7, -5.152e-7, 3.454e-7
0.273, -8.627e-7, -5.164e-7, 3.463e-7
0.272, -8.609e-7, -5.164e-7, 3.445e-7
0.271, -8.660e-7, -5.194e-7, 3.466e-7
0.270, -8.663e-7, -5.185e-7, 3.478e-7
0.269, -8.654e-7, -5.188e-7, 3.466e-7
0.268, -8.682e-7, -5.197e-7, 3.484e-7
0.267, -8.673e-7, -5.197e-7, 3.475e-7
0.266, -8.703e-7, -5.219e-7, 3.484e-7
0.265, -8.731e-7, -5.231e-7, 3.500e-7
0.264, -8.731e-7, -5.240e-7, 3.490e-7
0.263, -8.715e-7, -5.237e-7, 3.478e-7
0.262, -8.749e-7, -5.246e-7, 3.503e-7
0.261, -8.758e-7, -5.252e-7, 3.506e-7
0.260, -8.789e-7, -5.277e-7, 3.512e-7
0.259, -8.795e-7, -5.268e-7, 3.527e-7
0.258, -8.786e-7, -5.271e-7, 3.515e-7
0.257, -8.813e-7, -5.292e-7, 3.521e-7
0.256, -8.819e-7, -5.289e-7, 3.530e-7
0.255, -8.831e-7, -5.298e-7, 3.533e-7
0.254, -8.865e-7, -5.316e-7, 3.548e-7
0.253, -8.847e-7, -5.310e-7, 3.536e-7
0.252, -8.886e-7, -5.322e-7, 3.564e-7
0.251, -8.892e-7, -5.338e-7, 3.555e-7
0.250, -8.895e-7, -5.338e-7, 3.558e-7
0.249, -8.898e-7, -5.329e-7, 3.570e-7
0.248, -8.923e-7, -5.341e-7, 3.582e-7
0.247, -8.938e-7, -5.353e-7, 3.585e-7
0.246, -8.947e-7, -5.359e-7, 3.588e-7
0.245, -8.966e-7, -5.368e-7, 3.597e-7
0.244, -8.959e-7, -5.365e-7, 3.594e-7
0.243, -8.975e-7, -5.380e-7, 3.594e-7
0.242, -8.978e-7, -5.377e-7, 3.600e-7
0.241, -8.984e-7, -5.387e-7, 3.597e-7
0.240, -9.008e-7, -5.393e-7, 3.616e-7
0.239, -9.020e-7, -5.411e-7, 3.609e-7
0.238, -9.020e-7, -5.399e-7, 3.622e-7
0.237, -9.036e-7, -5.414e-7, 3.622e-7
0.236, -9.057e-7, -5.417e-7, 3.640e-7
0.235, -9.057e-7, -5.426e-7, 3.631e-7
0.234, -9.048e-7, -5.420e-7, 3.628e-7
0.233, -9.075e-7, -5.432e-7, 3.643e-7
0.232, -9.082e-7, -5.429e-7, 3.652e-7
0.231, -9.094e-7, -5.435e-7, 3.658e-7
0.230, -9.106e-7, -5.445e-7, 3.661e-7
0.229, -9.115e-7, -5.448e-7, 3.667e-7
0.228, -9.115e-7, -5.460e-7, 3.655e-7
0.227, -9.121e-7, -5.448e-7, 3.674e-7
0.226, -9.127e-7, -5.463e-7, 3.664e-7
0.225, -9.170e-7, -5.475e-7, 3.695e-7
0.224, -9.161e-7, -5.463e-7, 3.698e-7
0.223, -9.152e-7, -5.457e-7, 3.695e-7
0.222, -9.182e-7, -5.490e-7, 3.692e-7
0.221, -9.176e-7, -5.475e-7, 3.701e-7
0.220, -9.182e-7, -5.478e-7, 3.704e-7
0.219, -9.194e-7, -5.484e-7, 3.710e-7
0.218, -9.197e-7, -5.484e-7, 3.713e-7
0.217, -9.213e-7, -5.493e-7, 3.719e-7
0.216, -9.216e-7, -5.499e-7, 3.716e-7
0.215, -9.219e-7, -5.493e-7, 3.725e-7
0.214, -9.234e-7, -5.499e-7, 3.735e-7
0.213, -9.237e-7, -5.499e-7, 3.738e-7
0.212, -9.249e-7, -5.499e-7, 3.750e-7
0.211, -9.258e-7, -5.506e-7, 3.753e-7
0.210, -9.265e-7, -5.515e-7, 3.750e-7
0.209, -9.277e-7, -5.515e-7, 3.762e-7
0.208, -9.271e-7, -5.512e-7, 3.759e-7
0.207, -9.286e-7, -5.521e-7, 3.765e-7
0.206, -9.283e-7, -5.509e-7, 3.774e-7
0.205, -9.286e-7, -5.506e-7, 3.780e-7
0.204, -9.295e-7, -5.512e-7, 3.783e-7
0.203, -9.301e-7, -5.524e-7, 3.777e-7
0.202, -9.286e-7, -5.512e-7, 3.774e-7
0.201, -9.301e-7, -5.509e-7, 3.793e-7
0.200, -9.292e-7, -5.499e-7, 3.793e-7
0.199, -9.301e-7, -5.515e-7, 3.786e-7
0.198, -9.316e-7, -5.518e-7, 3.799e-7
0.197, -9.320e-7, -5.515e-7, 3.805e-7
0.196, -9.341e-7, -5.524e-7, 3.817e-7
0.195, -9.344e-7, -5.524e-7, 3.820e-7
0.194, -9.341e-7, -5.518e-7, 3.823e-7
0.193, -9.341e-7, -5.509e-7, 3.832e-7
0.192, -9.347e-7, -5.515e-7, 3.832e-7
0.191, -9.353e-7, -5.521e-7, 3.832e-7
0.190, -9.359e-7, -5.521e-7, 3.838e-7
0.189, -9.353e-7, -5.515e-7, 3.838e-7
0.188, -9.359e-7, -5.506e-7, 3.854e-7
0.187, -9.365e-7, -5.527e-7, 3.838e-7
0.186, -9.371e-7, -5.515e-7, 3.857e-7
0.185, -9.353e-7, -5.499e-7, 3.854e-7
0.184, -9.350e-7, -5.499e-7, 3.851e-7
0.183, -9.368e-7, -5.509e-7, 3.860e-7
0.182, -9.356e-7, -5.496e-7, 3.860e-7
0.181, -9.359e-7, -5.503e-7, 3.857e-7
0.180, -9.371e-7, -5.490e-7, 3.881e-7
0.179, -9.359e-7, -5.490e-7, 3.869e-7
0.178, -9.362e-7, -5.493e-7, 3.869e-7
0.177, -9.359e-7, -5.484e-7, 3.875e-7
0.176, -9.353e-7, -5.469e-7, 3.884e-7
0.175, -9.356e-7, -5.484e-7, 3.872e-7
0.174, -9.378e-7, -5.484e-7, 3.893e-7
0.173, -9.362e-7, -5.466e-7, 3.896e-7
0.172, -9.353e-7, -5.469e-7, 3.884e-7
0.171, -9.381e-7, -5.472e-7, 3.909e-7
0.170, -9.344e-7, -5.448e-7, 3.896e-7
0.169, -9.359e-7, -5.466e-7, 3.893e-7
0.168, -9.347e-7, -5.451e-7, 3.896e-7
0.167, -9.344e-7, -5.438e-7, 3.905e-7
0.166, -9.353e-7, -5.448e-7, 3.905e-7
0.165, -9.359e-7, -5.429e-7, 3.930e-7
0.164, -9.338e-7, -5.426e-7, 3.912e-7
0.163, -9.335e-7, -5.432e-7, 3.902e-7
0.162, -9.344e-7, -5.432e-7, 3.912e-7
0.161, -9.320e-7, -5.423e-7, 3.896e-7
0.160, -9.316e-7, -5.414e-7, 3.902e-7
0.159, -9.341e-7, -5.420e-7, 3.921e-7
0.158, -9.313e-7, -5.396e-7, 3.918e-7
0.157, -9.326e-7, -5.402e-7, 3.924e-7
0.156, -9.316e-7, -5.393e-7, 3.924e-7
0.155, -9.292e-7, -5.384e-7, 3.909e-7
0.154, -9.307e-7, -5.390e-7, 3.918e-7
0.153, -9.298e-7, -5.371e-7, 3.927e-7
0.152, -9.289e-7, -5.365e-7, 3.924e-7
0.151, -9.295e-7, -5.374e-7, 3.921e-7
0.150, -9.320e-7, -5.368e-7, 3.951e-7
0.149, -9.271e-7, -5.347e-7, 3.924e-7
0.148, -9.268e-7, -5.350e-7, 3.918e-7
0.147, -9.283e-7, -5.338e-7, 3.945e-7
0.146, -9.252e-7, -5.335e-7, 3.918e-7
0.145, -9.255e-7, -5.332e-7, 3.924e-7
0.144, -9.258e-7, -5.319e-7, 3.939e-7
0.143, -9.231e-7, -5.313e-7, 3.918e-7
0.142, -9.243e-7, -5.313e-7, 3.930e-7
0.141, -9.219e-7, -5.283e-7, 3.936e-7
0.140, -9.213e-7, -5.289e-7, 3.924e-7
0.139, -9.210e-7, -5.289e-7, 3.921e-7
0.138, -9.194e-7, -5.268e-7, 3.927e-7
0.137, -9.185e-7, -5.258e-7, 3.927e-7
0.136, -9.204e-7, -5.268e-7, 3.936e-7
0.135, -9.182e-7, -5.249e-7, 3.933e-7
0.134, -9.170e-7, -5.243e-7, 3.927e-7
0.133, -9.155e-7, -5.225e-7, 3.930e-7
0.132, -9.155e-7, -5.225e-7, 3.930e-7
0.131, -9.143e-7, -5.219e-7, 3.924e-7
0.130, -9.136e-7, -5.219e-7, 3.918e-7
0.129, -9.136e-7, -5.203e-7, 3.933e-7
0.128, -9.100e-7, -5.188e-7, 3.912e-7
0.127, -9.100e-7, -5.185e-7, 3.915e-7
0.126, -9.124e-7, -5.191e-7, 3.933e-7
0.125, -9.069e-7, -5.158e-7, 3.912e-7
0.124, -9.075e-7, -5.161e-7, 3.915e-7
0.123, -9.069e-7, -5.152e-7, 3.918e-7
0.122, -9.051e-7, -5.136e-7, 3.915e-7
0.121, -9.048e-7, -5.142e-7, 3.905e-7
0.120, -9.005e-7, -5.112e-7, 3.893e-7
0.119, -9.024e-7, -5.112e-7, 3.912e-7
0.118, -9.020e-7, -5.121e-7, 3.899e-7
0.117, -9.011e-7, -5.106e-7, 3.905e-7
0.116, -8.990e-7, -5.097e-7, 3.893e-7
0.115, -8.987e-7, -5.088e-7, 3.899e-7
0.114, -8.953e-7, -5.060e-7, 3.893e-7
0.113, -8.941e-7, -5.054e-7, 3.887e-7
0.112, -8.944e-7, -5.054e-7, 3.890e-7
0.111, -8.938e-7, -5.054e-7, 3.884e-7
0.110, -8.920e-7, -5.048e-7, 3.872e-7
0.109, -8.917e-7, -5.033e-7, 3.884e-7
0.108, -8.911e-7, -5.036e-7, 3.875e-7
0.107, -8.895e-7, -5.017e-7, 3.878e-7
0.106, -8.889e-7, -5.008e-7, 3.881e-7
0.105, -8.871e-7, -4.993e-7, 3.878e-7
0.104, -8.856e-7, -4.987e-7, 3.869e-7
0.103, -8.853e-7, -4.981e-7, 3.872e-7
0.102, -8.822e-7, -4.959e-7, 3.863e-7
0.101, -8.813e-7, -4.956e-7, 3.857e-7
0.100, -8.816e-7, -4.953e-7, 3.863e-7
0.099, -8.776e-7, -4.929e-7, 3.848e-7
0.098, -8.776e-7, -4.935e-7, 3.841e-7
0.097, -8.767e-7, -4.926e-7, 3.841e-7
0.096, -8.746e-7, -4.904e-7, 3.841e-7
0.095, -8.758e-7, -4.904e-7, 3.854e-7
0.094, -8.737e-7, -4.892e-7, 3.844e-7
0.093, -8.721e-7, -4.886e-7, 3.835e-7
0.092, -8.721e-7, -4.886e-7, 3.835e-7
0.091, -8.706e-7, -4.880e-7, 3.826e-7
0.090, -8.657e-7, -4.843e-7, 3.814e-7
0.089, -8.670e-7, -4.856e-7, 3.814e-7
0.088, -8.636e-7, -4.834e-7, 3.802e-7
0.087, -8.633e-7, -4.825e-7, 3.808e-7
0.086, -8.621e-7, -4.828e-7, 3.793e-7
0.085, -8.627e-7, -4.822e-7, 3.805e-7
0.084, -8.596e-7, -4.801e-7, 3.796e-7
0.083, -8.584e-7, -4.804e-7, 3.780e-7
0.082, -8.575e-7, -4.792e-7, 3.783e-7
0.081, -8.563e-7, -4.779e-7, 3.783e-7
0.080, -8.541e-7, -4.779e-7, 3.762e-7
0.079, -8.526e-7, -4.755e-7, 3.771e-7
0.078, -8.517e-7, -4.758e-7, 3.759e-7
0.077, -8.517e-7, -4.755e-7, 3.762e-7
0.076, -8.486e-7, -4.737e-7, 3.750e-7
0.075, -8.477e-7, -4.737e-7, 3.741e-7
0.074, -8.453e-7, -4.724e-7, 3.728e-7
0.073, -8.444e-7, -4.712e-7, 3.732e-7
0.072, -8.422e-7, -4.706e-7, 3.716e-7
0.071, -8.428e-7, -4.697e-7, 3.732e-7
0.070, -8.425e-7, -4.688e-7, 3.738e-7
0.069, -8.401e-7, -4.682e-7, 3.719e-7
0.068, -8.407e-7, -4.682e-7, 3.725e-7
0.067, -8.349e-7, -4.654e-7, 3.695e-7
0.066, -8.355e-7, -4.660e-7, 3.695e-7
0.065, -8.334e-7, -4.654e-7, 3.680e-7
0.064, -8.340e-7, -4.645e-7, 3.695e-7
0.063, -8.316e-7, -4.639e-7, 3.677e-7
0.062, -8.300e-7, -4.627e-7, 3.674e-7
0.061, -8.279e-7, -4.611e-7, 3.667e-7
0.060, -8.276e-7, -4.615e-7, 3.661e-7
0.059, -8.248e-7, -4.602e-7, 3.646e-7
0.058, -8.242e-7, -4.593e-7, 3.649e-7
0.057, -8.227e-7, -4.587e-7, 3.640e-7
0.056, -8.218e-7, -4.578e-7, 3.640e-7
0.055, -8.206e-7, -4.575e-7, 3.631e-7
0.054, -8.187e-7, -4.566e-7, 3.622e-7
0.053, -8.193e-7, -4.566e-7, 3.628e-7
0.052, -8.160e-7, -4.547e-7, 3.613e-7
0.051, -8.151e-7, -4.541e-7, 3.609e-7
0.050, -8.142e-7, -4.538e-7, 3.603e-7
0.049, -8.114e-7, -4.520e-7, 3.594e-7
0.048, -8.136e-7, -4.532e-7, 3.603e-7
0.047, -8.126e-7, -4.538e-7, 3.588e-7
0.046, -8.084e-7, -4.505e-7, 3.579e-7
0.045, -8.084e-7, -4.505e-7, 3.579e-7
0.044, -8.078e-7, -4.502e-7, 3.576e-7
0.043, -8.053e-7, -4.480e-7, 3.573e-7
0.042, -8.056e-7, -4.496e-7, 3.561e-7
0.041, -8.026e-7, -4.474e-7, 3.551e-7
0.040, -8.020e-7, -4.474e-7, 3.545e-7
0.039, -8.010e-7, -4.477e-7, 3.533e-7
0.038, -7.992e-7, -4.465e-7, 3.527e-7
0.037, -7.983e-7, -4.453e-7, 3.530e-7
0.036, -7.955e-7, -4.444e-7, 3.512e-7
0.035, -7.965e-7, -4.447e-7, 3.518e-7
0.034, -7.937e-7, -4.434e-7, 3.503e-7
0.033, -7.940e-7, -4.438e-7, 3.503e-7
0.032, -7.949e-7, -4.444e-7, 3.506e-7
0.031, -7.916e-7, -4.419e-7, 3.497e-7
0.030, -7.897e-7, -4.416e-7, 3.481e-7
0.029, -7.894e-7, -4.416e-7, 3.478e-7
0.028, -7.873e-7, -4.407e-7, 3.466e-7
0.027, -7.882e-7, -4.401e-7, 3.481e-7
0.026, -7.870e-7, -4.404e-7, 3.466e-7
0.025, -7.846e-7, -4.392e-7, 3.454e-7
0.024, -7.827e-7, -4.389e-7, 3.439e-7
0.023, -7.830e-7, -4.386e-7, 3.445e-7
0.022, -7.815e-7, -4.377e-7, 3.439e-7
0.021, -7.809e-7, -4.370e-7, 3.439e-7
0.020, -7.797e-7, -4.367e-7, 3.429e-7
0.019, -7.775e-7, -4.355e-7, 3.420e-7
0.018, -7.772e-7, -4.367e-7, 3.405e-7
0.017, -7.778e-7, -4.355e-7, 3.423e-7
0.016, -7.736e-7, -4.340e-7, 3.396e-7
0.015, -7.763e-7, -4.352e-7, 3.411e-7
0.014, -7.745e-7, -4.346e-7, 3.399e-7
0.013, -7.711e-7, -4.340e-7, 3.371e-7
0.012, -7.714e-7, -4.337e-7, 3.378e-7
0.011, -7.702e-7, -4.328e-7, 3.375e-7
0.010, -7.681e-7, -4.322e-7, 3.359e-7
0.009, -7.690e-7, -4.334e-7, 3.356e-7
0.008, -7.675e-7, -4.309e-7, 3.365e-7
0.007, -7.666e-7, -4.315e-7, 3.350e-7
0.006, -7.684e-7, -4.328e-7, 3.356e-7
0.005, -7.659e-7, -4.309e-7, 3.350e-7
0.004, -7.632e-7, -4.300e-7, 3.332e-7
0.003, -7.635e-7, -4.306e-7, 3.329e-7
0.002, -7.641e-7, -4.291e-7, 3.350e-7
0.001, -7.617e-7, -4.285e-7, 3.332e-7
-0.000, -7.617e-7, -4.291e-7, 3.326e-7
-0.001, -7.595e-7, -4.279e-7, 3.317e-7
-0.002, -7.601e-7, -4.291e-7, 3.310e-7
-0.003, -7.608e-7, -4.288e-7, 3.320e-7
-0.004, -7.586e-7, -4.273e-7, 3.313e-7
-0.005, -7.580e-7, -4.282e-7, 3.298e-7
-0.006, -7.568e-7, -4.276e-7, 3.292e-7
-0.007, -7.547e-7, -4.258e-7, 3.289e-7
-0.008, -7.550e-7, -4.270e-7, 3.280e-7
-0.009, -7.537e-7, -4.264e-7, 3.274e-7
-0.010, -7.534e-7, -4.254e-7, 3.280e-7
-0.011, -7.537e-7, -4.261e-7, 3.277e-7
-0.012, -7.528e-7, -4.270e-7, 3.259e-7
-0.013, -7.513e-7, -4.251e-7, 3.262e-7
-0.014, -7.513e-7, -4.258e-7, 3.255e-7
-0.015, -7.525e-7, -4.261e-7, 3.265e-7
-0.016, -7.519e-7, -4.254e-7, 3.265e-7
-0.017, -7.501e-7, -4.254e-7, 3.246e-7
-0.018, -7.486e-7, -4.242e-7, 3.243e-7
-0.019, -7.473e-7, -4.233e-7, 3.240e-7
-0.020, -7.470e-7, -4.239e-7, 3.231e-7
-0.021, -7.473e-7, -4.242e-7, 3.231e-7
-0.022, -7.467e-7, -4.233e-7, 3.234e-7
-0.023, -7.458e-7, -4.239e-7, 3.219e-7
-0.024, -7.443e-7, -4.227e-7, 3.216e-7
-0.025, -7.434e-7, -4.218e-7, 3.216e-7
-0.026, -7.425e-7, -4.224e-7, 3.201e-7
-0.027, -7.443e-7, -4.224e-7, 3.219e-7
-0.028, -7.425e-7, -4.224e-7, 3.201e-7
-0.029, -7.428e-7, -4.218e-7, 3.210e-7
-0.030, -7.425e-7, -4.221e-7, 3.204e-7
-0.031, -7.406e-7, -4.212e-7, 3.194e-7
-0.032, -7.409e-7, -4.215e-7, 3.194e-7
-0.033, -7.400e-7, -4.212e-7, 3.188e-7
-0.034, -7.412e-7, -4.212e-7, 3.201e-7
-0.035, -7.388e-7, -4.206e-7, 3.182e-7
-0.036, -7.397e-7, -4.209e-7, 3.188e-7
-0.037, -7.388e-7, -4.203e-7, 3.185e-7
-0.038, -7.373e-7, -4.206e-7, 3.167e-7
-0.039, -7.379e-7, -4.200e-7, 3.179e-7
-0.040, -7.376e-7, -4.196e-7, 3.179e-7
-0.041, -7.363e-7, -4.200e-7, 3.164e-7
-0.042, -7.376e-7, -4.196e-7, 3.179e-7
-0.043, -7.348e-7, -4.184e-7, 3.164e-7
-0.044, -7.367e-7, -4.203e-7, 3.164e-7
-0.045, -7.354e-7, -4.196e-7, 3.158e-7
-0.046, -7.336e-7, -4.184e-7, 3.152e-7
-0.047, -7.354e-7, -4.193e-7, 3.161e-7
-0.048, -7.345e-7, -4.187e-7, 3.158e-7
-0.049, -7.333e-7, -4.187e-7, 3.146e-7
-0.050, -7.333e-7, -4.193e-7, 3.140e-7
