Feb. 28, 2018   11:34:50
Square Wave Voltammetry
File: c:\users\electrochemist\desktop\2018\28022018_unbuffered_9,2\14_e2_9,2_0118_ph5,55_3.txt
Data Source:  Experiment
Instrument Model:  CHI1040A
Header: 
Note: 

Init E (V) = 0.5
Final E (V) = -0.05
Incr E (V) = 0.001
Amplitude (V) = 0.1
Frequency (Hz) = 150
Quiet Time (sec) = 0
Sensitivity (A/V) = 1e-6

Difference:

Forward:

Reverse:

Potential/V, Diff(i/A), For(i/A), Rev(i/A)

0.499, -5.203e-7, -1.337e-7, 3.866e-7
0.498, -6.356e-7, -3.019e-7, 3.338e-7
0.497, -6.289e-7, -3.116e-7, 3.173e-7
0.496, -6.216e-7, -3.177e-7, 3.039e-7
0.495, -6.192e-7, -3.205e-7, 2.987e-7
0.494, -6.152e-7, -3.217e-7, 2.935e-7
0.493, -6.121e-7, -3.241e-7, 2.880e-7
0.492, -6.100e-7, -3.253e-7, 2.847e-7
0.491, -6.079e-7, -3.272e-7, 2.807e-7
0.490, -6.067e-7, -3.269e-7, 2.798e-7
0.489, -6.054e-7, -3.290e-7, 2.764e-7
0.488, -6.048e-7, -3.281e-7, 2.767e-7
0.487, -6.021e-7, -3.290e-7, 2.731e-7
0.486, -6.030e-7, -3.308e-7, 2.722e-7
0.485, -6.012e-7, -3.293e-7, 2.718e-7
0.484, -6.018e-7, -3.333e-7, 2.685e-7
0.483, -6.033e-7, -3.339e-7, 2.694e-7
0.482, -6.015e-7, -3.333e-7, 2.682e-7
0.481, -6.021e-7, -3.357e-7, 2.664e-7
0.480, -6.021e-7, -3.373e-7, 2.648e-7
0.479, -6.009e-7, -3.357e-7, 2.651e-7
0.478, -6.009e-7, -3.363e-7, 2.645e-7
0.477, -6.030e-7, -3.385e-7, 2.645e-7
0.476, -6.009e-7, -3.373e-7, 2.636e-7
0.475, -6.015e-7, -3.394e-7, 2.621e-7
0.474, -6.027e-7, -3.397e-7, 2.630e-7
0.473, -6.012e-7, -3.391e-7, 2.621e-7
0.472, -6.033e-7, -3.415e-7, 2.618e-7
0.471, -6.021e-7, -3.418e-7, 2.603e-7
0.470, -6.039e-7, -3.424e-7, 2.615e-7
0.469, -6.015e-7, -3.424e-7, 2.590e-7
0.468, -6.036e-7, -3.440e-7, 2.596e-7
0.467, -6.042e-7, -3.443e-7, 2.599e-7
0.466, -6.042e-7, -3.461e-7, 2.581e-7
0.465, -6.063e-7, -3.455e-7, 2.609e-7
0.464, -6.057e-7, -3.464e-7, 2.593e-7
0.463, -6.057e-7, -3.476e-7, 2.581e-7
0.462, -6.088e-7, -3.498e-7, 2.590e-7
0.461, -6.079e-7, -3.482e-7, 2.596e-7
0.460, -6.085e-7, -3.513e-7, 2.572e-7
0.459, -6.079e-7, -3.504e-7, 2.575e-7
0.458, -6.079e-7, -3.504e-7, 2.575e-7
0.457, -6.063e-7, -3.513e-7, 2.551e-7
0.456, -6.106e-7, -3.534e-7, 2.572e-7
0.455, -6.100e-7, -3.528e-7, 2.572e-7
0.454, -6.106e-7, -3.537e-7, 2.569e-7
0.453, -6.137e-7, -3.559e-7, 2.578e-7
0.452, -6.137e-7, -3.553e-7, 2.584e-7
0.451, -6.134e-7, -3.577e-7, 2.557e-7
0.450, -6.158e-7, -3.583e-7, 2.575e-7
0.449, -6.161e-7, -3.577e-7, 2.584e-7
0.448, -6.152e-7, -3.595e-7, 2.557e-7
0.447, -6.167e-7, -3.592e-7, 2.575e-7
0.446, -6.179e-7, -3.604e-7, 2.575e-7
0.445, -6.183e-7, -3.629e-7, 2.554e-7
0.444, -6.204e-7, -3.632e-7, 2.572e-7
0.443, -6.213e-7, -3.635e-7, 2.578e-7
0.442, -6.195e-7, -3.632e-7, 2.563e-7
0.441, -6.225e-7, -3.644e-7, 2.581e-7
0.440, -6.259e-7, -3.669e-7, 2.590e-7
0.439, -6.207e-7, -3.659e-7, 2.548e-7
0.438, -6.256e-7, -3.684e-7, 2.572e-7
0.437, -6.268e-7, -3.684e-7, 2.584e-7
0.436, -6.268e-7, -3.684e-7, 2.584e-7
0.435, -6.286e-7, -3.699e-7, 2.587e-7
0.434, -6.280e-7, -3.699e-7, 2.581e-7
0.433, -6.305e-7, -3.726e-7, 2.578e-7
0.432, -6.302e-7, -3.730e-7, 2.572e-7
0.431, -6.320e-7, -3.745e-7, 2.575e-7
0.430, -6.323e-7, -3.754e-7, 2.569e-7
0.429, -6.344e-7, -3.757e-7, 2.587e-7
0.428, -6.350e-7, -3.763e-7, 2.587e-7
0.427, -6.360e-7, -3.784e-7, 2.575e-7
0.426, -6.387e-7, -3.797e-7, 2.590e-7
0.425, -6.393e-7, -3.800e-7, 2.593e-7
0.424, -6.399e-7, -3.806e-7, 2.593e-7
0.423, -6.411e-7, -3.806e-7, 2.606e-7
0.422, -6.417e-7, -3.818e-7, 2.599e-7
0.421, -6.445e-7, -3.842e-7, 2.602e-7
0.420, -6.454e-7, -3.852e-7, 2.602e-7
0.419, -6.460e-7, -3.852e-7, 2.609e-7
0.418, -6.475e-7, -3.870e-7, 2.606e-7
0.417, -6.488e-7, -3.873e-7, 2.615e-7
0.416, -6.488e-7, -3.885e-7, 2.602e-7
0.415, -6.494e-7, -3.891e-7, 2.602e-7
0.414, -6.515e-7, -3.903e-7, 2.612e-7
0.413, -6.524e-7, -3.910e-7, 2.615e-7
0.412, -6.552e-7, -3.928e-7, 2.624e-7
0.411, -6.564e-7, -3.934e-7, 2.630e-7
0.410, -6.576e-7, -3.946e-7, 2.630e-7
0.409, -6.585e-7, -3.958e-7, 2.627e-7
0.408, -6.619e-7, -3.980e-7, 2.639e-7
0.407, -6.607e-7, -3.980e-7, 2.627e-7
0.406, -6.604e-7, -3.983e-7, 2.621e-7
0.405, -6.649e-7, -4.004e-7, 2.645e-7
0.404, -6.643e-7, -4.013e-7, 2.630e-7
0.403, -6.652e-7, -4.019e-7, 2.633e-7
0.402, -6.686e-7, -4.032e-7, 2.654e-7
0.401, -6.692e-7, -4.035e-7, 2.657e-7
0.400, -6.704e-7, -4.062e-7, 2.642e-7
0.399, -6.720e-7, -4.071e-7, 2.648e-7
0.398, -6.720e-7, -4.071e-7, 2.648e-7
0.397, -6.756e-7, -4.096e-7, 2.660e-7
0.396, -6.756e-7, -4.102e-7, 2.654e-7
0.395, -6.765e-7, -4.114e-7, 2.651e-7
0.394, -6.765e-7, -4.117e-7, 2.648e-7
0.393, -6.799e-7, -4.129e-7, 2.670e-7
0.392, -6.814e-7, -4.145e-7, 2.670e-7
0.391, -6.817e-7, -4.145e-7, 2.673e-7
0.390, -6.836e-7, -4.157e-7, 2.679e-7
0.389, -6.866e-7, -4.181e-7, 2.685e-7
0.388, -6.863e-7, -4.190e-7, 2.673e-7
0.387, -6.878e-7, -4.196e-7, 2.682e-7
0.386, -6.897e-7, -4.215e-7, 2.682e-7
0.385, -6.939e-7, -4.236e-7, 2.703e-7
0.384, -6.936e-7, -4.239e-7, 2.697e-7
0.383, -6.945e-7, -4.242e-7, 2.703e-7
0.382, -6.961e-7, -4.267e-7, 2.694e-7
0.381, -6.985e-7, -4.273e-7, 2.712e-7
0.380, -6.994e-7, -4.285e-7, 2.709e-7
0.379, -7.019e-7, -4.303e-7, 2.715e-7
0.378, -7.006e-7, -4.297e-7, 2.709e-7
0.377, -7.043e-7, -4.322e-7, 2.722e-7
0.376, -7.049e-7, -4.325e-7, 2.725e-7
0.375, -7.064e-7, -4.346e-7, 2.718e-7
0.374, -7.077e-7, -4.352e-7, 2.725e-7
0.373, -7.116e-7, -4.386e-7, 2.731e-7
0.372, -7.110e-7, -4.370e-7, 2.740e-7
0.371, -7.141e-7, -4.395e-7, 2.746e-7
0.370, -7.162e-7, -4.419e-7, 2.743e-7
0.369, -7.171e-7, -4.416e-7, 2.755e-7
0.368, -7.190e-7, -4.431e-7, 2.758e-7
0.367, -7.186e-7, -4.444e-7, 2.743e-7
0.366, -7.217e-7, -4.453e-7, 2.764e-7
0.365, -7.226e-7, -4.465e-7, 2.761e-7
0.364, -7.248e-7, -4.474e-7, 2.773e-7
0.363, -7.269e-7, -4.492e-7, 2.776e-7
0.362, -7.284e-7, -4.499e-7, 2.786e-7
0.361, -7.305e-7, -4.526e-7, 2.779e-7
0.360, -7.309e-7, -4.526e-7, 2.783e-7
0.359, -7.315e-7, -4.535e-7, 2.779e-7
0.358, -7.360e-7, -4.566e-7, 2.795e-7
0.357, -7.370e-7, -4.575e-7, 2.795e-7
0.356, -7.385e-7, -4.593e-7, 2.792e-7
0.355, -7.409e-7, -4.596e-7, 2.813e-7
0.354, -7.412e-7, -4.602e-7, 2.810e-7
0.353, -7.440e-7, -4.621e-7, 2.819e-7
0.352, -7.461e-7, -4.633e-7, 2.828e-7
0.351, -7.492e-7, -4.660e-7, 2.831e-7
0.350, -7.486e-7, -4.666e-7, 2.819e-7
0.349, -7.513e-7, -4.672e-7, 2.841e-7
0.348, -7.525e-7, -4.679e-7, 2.847e-7
0.347, -7.544e-7, -4.700e-7, 2.844e-7
0.346, -7.574e-7, -4.712e-7, 2.862e-7
0.345, -7.574e-7, -4.724e-7, 2.850e-7
0.344, -7.608e-7, -4.749e-7, 2.859e-7
0.343, -7.629e-7, -4.761e-7, 2.868e-7
0.342, -7.629e-7, -4.767e-7, 2.862e-7
0.341, -7.650e-7, -4.779e-7, 2.871e-7
0.340, -7.681e-7, -4.801e-7, 2.880e-7
0.339, -7.693e-7, -4.813e-7, 2.880e-7
0.338, -7.721e-7, -4.834e-7, 2.886e-7
0.337, -7.736e-7, -4.843e-7, 2.892e-7
0.336, -7.745e-7, -4.840e-7, 2.905e-7
0.335, -7.766e-7, -4.868e-7, 2.898e-7
0.334, -7.778e-7, -4.868e-7, 2.911e-7
0.333, -7.803e-7, -4.886e-7, 2.917e-7
0.332, -7.821e-7, -4.901e-7, 2.920e-7
0.331, -7.827e-7, -4.911e-7, 2.917e-7
0.330, -7.849e-7, -4.938e-7, 2.911e-7
0.329, -7.882e-7, -4.959e-7, 2.923e-7
0.328, -7.885e-7, -4.953e-7, 2.932e-7
0.327, -7.901e-7, -4.962e-7, 2.938e-7
0.326, -7.940e-7, -5.002e-7, 2.938e-7
0.325, -7.959e-7, -5.005e-7, 2.953e-7
0.324, -7.974e-7, -5.017e-7, 2.956e-7
0.323, -7.989e-7, -5.033e-7, 2.956e-7
0.322, -8.029e-7, -5.054e-7, 2.975e-7
0.321, -8.038e-7, -5.054e-7, 2.984e-7
0.320, -8.062e-7, -5.081e-7, 2.981e-7
0.319, -8.068e-7, -5.094e-7, 2.975e-7
0.318, -8.087e-7, -5.097e-7, 2.990e-7
0.317, -8.108e-7, -5.121e-7, 2.987e-7
0.316, -8.126e-7, -5.124e-7, 3.002e-7
0.315, -8.154e-7, -5.136e-7, 3.017e-7
0.314, -8.169e-7, -5.152e-7, 3.017e-7
0.313, -8.181e-7, -5.158e-7, 3.024e-7
0.312, -8.203e-7, -5.173e-7, 3.030e-7
0.311, -8.209e-7, -5.188e-7, 3.021e-7
0.310, -8.248e-7, -5.207e-7, 3.042e-7
0.309, -8.255e-7, -5.210e-7, 3.045e-7
0.308, -8.273e-7, -5.237e-7, 3.036e-7
0.307, -8.309e-7, -5.255e-7, 3.054e-7
0.306, -8.306e-7, -5.252e-7, 3.054e-7
0.305, -8.340e-7, -5.277e-7, 3.063e-7
0.304, -8.364e-7, -5.286e-7, 3.079e-7
0.303, -8.355e-7, -5.286e-7, 3.069e-7
0.302, -8.392e-7, -5.313e-7, 3.079e-7
0.301, -8.413e-7, -5.322e-7, 3.091e-7
0.300, -8.425e-7, -5.329e-7, 3.097e-7
0.299, -8.441e-7, -5.344e-7, 3.097e-7
0.298, -8.465e-7, -5.362e-7, 3.103e-7
0.297, -8.505e-7, -5.374e-7, 3.130e-7
0.296, -8.529e-7, -5.402e-7, 3.127e-7
0.295, -8.517e-7, -5.393e-7, 3.124e-7
0.294, -8.529e-7, -5.408e-7, 3.121e-7
0.293, -8.557e-7, -5.426e-7, 3.130e-7
0.292, -8.584e-7, -5.429e-7, 3.155e-7
0.291, -8.605e-7, -5.454e-7, 3.152e-7
0.290, -8.612e-7, -5.463e-7, 3.149e-7
0.289, -8.648e-7, -5.478e-7, 3.170e-7
0.288, -8.666e-7, -5.496e-7, 3.170e-7
0.287, -8.673e-7, -5.503e-7, 3.170e-7
0.286, -8.685e-7, -5.512e-7, 3.173e-7
0.285, -8.709e-7, -5.521e-7, 3.188e-7
0.284, -8.728e-7, -5.539e-7, 3.188e-7
0.283, -8.758e-7, -5.554e-7, 3.204e-7
0.282, -8.764e-7, -5.554e-7, 3.210e-7
0.281, -8.786e-7, -5.579e-7, 3.207e-7
0.280, -8.807e-7, -5.588e-7, 3.219e-7
0.279, -8.816e-7, -5.591e-7, 3.225e-7
0.278, -8.850e-7, -5.615e-7, 3.234e-7
0.277, -8.853e-7, -5.612e-7, 3.240e-7
0.276, -8.871e-7, -5.628e-7, 3.243e-7
0.275, -8.892e-7, -5.649e-7, 3.243e-7
0.274, -8.895e-7, -5.652e-7, 3.243e-7
0.273, -8.932e-7, -5.661e-7, 3.271e-7
0.272, -8.929e-7, -5.673e-7, 3.256e-7
0.271, -8.959e-7, -5.686e-7, 3.274e-7
0.270, -8.975e-7, -5.698e-7, 3.277e-7
0.269, -8.996e-7, -5.713e-7, 3.283e-7
0.268, -9.017e-7, -5.716e-7, 3.301e-7
0.267, -9.011e-7, -5.728e-7, 3.283e-7
0.266, -9.066e-7, -5.750e-7, 3.317e-7
0.265, -9.075e-7, -5.768e-7, 3.307e-7
0.264, -9.088e-7, -5.762e-7, 3.326e-7
0.263, -9.115e-7, -5.792e-7, 3.323e-7
0.262, -9.088e-7, -5.762e-7, 3.326e-7
0.261, -9.130e-7, -5.789e-7, 3.341e-7
0.260, -9.152e-7, -5.805e-7, 3.347e-7
0.259, -9.164e-7, -5.811e-7, 3.353e-7
0.258, -9.182e-7, -5.826e-7, 3.356e-7
0.257, -9.201e-7, -5.829e-7, 3.371e-7
0.256, -9.213e-7, -5.835e-7, 3.378e-7
0.255, -9.231e-7, -5.853e-7, 3.378e-7
0.254, -9.234e-7, -5.853e-7, 3.381e-7
0.253, -9.268e-7, -5.866e-7, 3.402e-7
0.252, -9.283e-7, -5.881e-7, 3.402e-7
0.251, -9.286e-7, -5.878e-7, 3.408e-7
0.250, -9.320e-7, -5.902e-7, 3.417e-7
0.249, -9.316e-7, -5.902e-7, 3.414e-7
0.248, -9.338e-7, -5.908e-7, 3.429e-7
0.247, -9.341e-7, -5.924e-7, 3.417e-7
0.246, -9.371e-7, -5.933e-7, 3.439e-7
0.245, -9.362e-7, -5.930e-7, 3.433e-7
0.244, -9.387e-7, -5.936e-7, 3.451e-7
0.243, -9.405e-7, -5.948e-7, 3.457e-7
0.242, -9.420e-7, -5.951e-7, 3.469e-7
0.241, -9.448e-7, -5.966e-7, 3.481e-7
0.240, -9.442e-7, -5.972e-7, 3.469e-7
0.239, -9.472e-7, -5.994e-7, 3.478e-7
0.238, -9.481e-7, -5.979e-7, 3.503e-7
0.237, -9.484e-7, -5.985e-7, 3.500e-7
0.236, -9.512e-7, -6.012e-7, 3.500e-7
0.235, -9.500e-7, -6.003e-7, 3.497e-7
0.234, -9.542e-7, -6.021e-7, 3.521e-7
0.233, -9.536e-7, -6.018e-7, 3.518e-7
0.232, -9.542e-7, -6.018e-7, 3.524e-7
0.231, -9.564e-7, -6.027e-7, 3.536e-7
0.230, -9.588e-7, -6.052e-7, 3.536e-7
0.229, -9.603e-7, -6.046e-7, 3.558e-7
0.228, -9.600e-7, -6.049e-7, 3.552e-7
0.227, -9.612e-7, -6.055e-7, 3.558e-7
0.226, -9.631e-7, -6.064e-7, 3.567e-7
0.225, -9.640e-7, -6.064e-7, 3.576e-7
0.224, -9.640e-7, -6.064e-7, 3.576e-7
0.223, -9.655e-7, -6.073e-7, 3.582e-7
0.222, -9.658e-7, -6.076e-7, 3.582e-7
0.221, -9.677e-7, -6.076e-7, 3.600e-7
0.220, -9.704e-7, -6.095e-7, 3.609e-7
0.219, -9.695e-7, -6.085e-7, 3.609e-7
0.218, -9.707e-7, -6.091e-7, 3.616e-7
0.217, -9.716e-7, -6.104e-7, 3.613e-7
0.216, -9.713e-7, -6.098e-7, 3.616e-7
0.215, -9.728e-7, -6.098e-7, 3.631e-7
0.214, -9.738e-7, -6.101e-7, 3.637e-7
0.213, -9.747e-7, -6.110e-7, 3.637e-7
0.212, -9.759e-7, -6.113e-7, 3.646e-7
0.211, -9.753e-7, -6.107e-7, 3.646e-7
0.210, -9.780e-7, -6.119e-7, 3.661e-7
0.209, -9.786e-7, -6.116e-7, 3.671e-7
0.208, -9.793e-7, -6.119e-7, 3.674e-7
0.207, -9.793e-7, -6.122e-7, 3.671e-7
0.206, -9.820e-7, -6.131e-7, 3.689e-7
0.205, -9.808e-7, -6.107e-7, 3.701e-7
0.204, -9.826e-7, -6.128e-7, 3.698e-7
0.203, -9.844e-7, -6.131e-7, 3.713e-7
0.202, -9.817e-7, -6.113e-7, 3.704e-7
0.201, -9.835e-7, -6.122e-7, 3.713e-7
0.200, -9.854e-7, -6.128e-7, 3.725e-7
0.199, -9.832e-7, -6.110e-7, 3.722e-7
0.198, -9.863e-7, -6.146e-7, 3.716e-7
0.197, -9.863e-7, -6.131e-7, 3.732e-7
0.196, -9.875e-7, -6.131e-7, 3.744e-7
0.195, -9.863e-7, -6.131e-7, 3.732e-7
0.194, -9.869e-7, -6.116e-7, 3.753e-7
0.193, -9.875e-7, -6.116e-7, 3.759e-7
0.192, -9.869e-7, -6.122e-7, 3.747e-7
0.191, -9.896e-7, -6.122e-7, 3.774e-7
0.190, -9.890e-7, -6.119e-7, 3.771e-7
0.189, -9.893e-7, -6.125e-7, 3.768e-7
0.188, -9.905e-7, -6.122e-7, 3.783e-7
0.187, -9.893e-7, -6.104e-7, 3.790e-7
0.186, -9.902e-7, -6.116e-7, 3.786e-7
0.185, -9.908e-7, -6.110e-7, 3.799e-7
0.184, -9.905e-7, -6.101e-7, 3.805e-7
0.183, -9.915e-7, -6.113e-7, 3.802e-7
0.182, -9.902e-7, -6.104e-7, 3.799e-7
0.181, -9.896e-7, -6.091e-7, 3.805e-7
0.180, -9.908e-7, -6.101e-7, 3.808e-7
0.179, -9.912e-7, -6.085e-7, 3.826e-7
0.178, -9.908e-7, -6.076e-7, 3.832e-7
0.177, -9.908e-7, -6.085e-7, 3.823e-7
0.176, -9.930e-7, -6.088e-7, 3.841e-7
0.175, -9.896e-7, -6.064e-7, 3.832e-7
0.174, -9.896e-7, -6.073e-7, 3.823e-7
0.173, -9.918e-7, -6.064e-7, 3.854e-7
0.172, -9.905e-7, -6.067e-7, 3.838e-7
0.171, -9.927e-7, -6.073e-7, 3.854e-7
0.170, -9.905e-7, -6.043e-7, 3.863e-7
0.169, -9.908e-7, -6.043e-7, 3.866e-7
0.168, -9.927e-7, -6.061e-7, 3.866e-7
0.167, -9.924e-7, -6.052e-7, 3.872e-7
0.166, -9.890e-7, -6.015e-7, 3.875e-7
0.165, -9.902e-7, -6.037e-7, 3.866e-7
0.164, -9.905e-7, -6.018e-7, 3.887e-7
0.163, -9.908e-7, -6.018e-7, 3.890e-7
0.162, -9.899e-7, -6.021e-7, 3.878e-7
0.161, -9.890e-7, -5.997e-7, 3.893e-7
0.160, -9.875e-7, -5.991e-7, 3.884e-7
0.159, -9.872e-7, -6.003e-7, 3.869e-7
0.158, -9.899e-7, -6.009e-7, 3.890e-7
0.157, -9.844e-7, -5.966e-7, 3.878e-7
0.156, -9.875e-7, -5.988e-7, 3.887e-7
0.155, -9.857e-7, -5.957e-7, 3.899e-7
0.154, -9.838e-7, -5.948e-7, 3.890e-7
0.153, -9.854e-7, -5.966e-7, 3.887e-7
0.152, -9.869e-7, -5.948e-7, 3.921e-7
0.151, -9.829e-7, -5.933e-7, 3.896e-7
0.150, -9.847e-7, -5.942e-7, 3.905e-7
0.149, -9.835e-7, -5.924e-7, 3.912e-7
0.148, -9.823e-7, -5.908e-7, 3.915e-7
0.147, -9.799e-7, -5.899e-7, 3.899e-7
0.146, -9.823e-7, -5.893e-7, 3.930e-7
0.145, -9.820e-7, -5.896e-7, 3.924e-7
0.144, -9.817e-7, -5.908e-7, 3.909e-7
0.143, -9.811e-7, -5.887e-7, 3.924e-7
0.142, -9.774e-7, -5.853e-7, 3.921e-7
0.141, -9.774e-7, -5.872e-7, 3.902e-7
0.140, -9.783e-7, -5.847e-7, 3.936e-7
0.139, -9.753e-7, -5.826e-7, 3.927e-7
0.138, -9.750e-7, -5.838e-7, 3.912e-7
0.137, -9.750e-7, -5.823e-7, 3.927e-7
0.136, -9.716e-7, -5.802e-7, 3.915e-7
0.135, -9.725e-7, -5.814e-7, 3.912e-7
0.134, -9.725e-7, -5.799e-7, 3.927e-7
0.133, -9.689e-7, -5.768e-7, 3.921e-7
0.132, -9.701e-7, -5.786e-7, 3.915e-7
0.131, -9.704e-7, -5.774e-7, 3.930e-7
0.130, -9.677e-7, -5.765e-7, 3.912e-7
0.129, -9.674e-7, -5.753e-7, 3.921e-7
0.128, -9.680e-7, -5.747e-7, 3.933e-7
0.127, -9.643e-7, -5.722e-7, 3.921e-7
0.126, -9.631e-7, -5.734e-7, 3.896e-7
0.125, -9.646e-7, -5.716e-7, 3.930e-7
0.124, -9.616e-7, -5.689e-7, 3.927e-7
0.123, -9.612e-7, -5.707e-7, 3.905e-7
0.122, -9.616e-7, -5.689e-7, 3.927e-7
0.121, -9.585e-7, -5.670e-7, 3.915e-7
0.120, -9.585e-7, -5.673e-7, 3.912e-7
0.119, -9.558e-7, -5.646e-7, 3.912e-7
0.118, -9.548e-7, -5.634e-7, 3.915e-7
0.117, -9.545e-7, -5.643e-7, 3.902e-7
0.116, -9.548e-7, -5.628e-7, 3.921e-7
0.115, -9.503e-7, -5.597e-7, 3.905e-7
0.114, -9.503e-7, -5.606e-7, 3.896e-7
0.113, -9.493e-7, -5.591e-7, 3.902e-7
0.112, -9.460e-7, -5.570e-7, 3.890e-7
0.111, -9.475e-7, -5.579e-7, 3.896e-7
0.110, -9.457e-7, -5.557e-7, 3.899e-7
0.109, -9.445e-7, -5.542e-7, 3.902e-7
0.108, -9.445e-7, -5.548e-7, 3.896e-7
0.107, -9.435e-7, -5.533e-7, 3.902e-7
0.106, -9.399e-7, -5.515e-7, 3.884e-7
0.105, -9.396e-7, -5.527e-7, 3.869e-7
0.104, -9.393e-7, -5.506e-7, 3.887e-7
0.103, -9.356e-7, -5.481e-7, 3.875e-7
0.102, -9.338e-7, -5.478e-7, 3.860e-7
0.101, -9.338e-7, -5.463e-7, 3.875e-7
0.100, -9.332e-7, -5.460e-7, 3.872e-7
0.099, -9.316e-7, -5.451e-7, 3.866e-7
0.098, -9.292e-7, -5.435e-7, 3.857e-7
0.097, -9.277e-7, -5.423e-7, 3.854e-7
0.096, -9.262e-7, -5.423e-7, 3.838e-7
0.095, -9.271e-7, -5.402e-7, 3.869e-7
0.094, -9.228e-7, -5.387e-7, 3.841e-7
0.093, -9.213e-7, -5.380e-7, 3.832e-7
0.092, -9.207e-7, -5.368e-7, 3.838e-7
0.091, -9.191e-7, -5.362e-7, 3.829e-7
0.090, -9.210e-7, -5.371e-7, 3.838e-7
0.089, -9.191e-7, -5.350e-7, 3.841e-7
0.088, -9.152e-7, -5.332e-7, 3.820e-7
0.087, -9.155e-7, -5.335e-7, 3.820e-7
0.086, -9.133e-7, -5.316e-7, 3.817e-7
0.085, -9.106e-7, -5.301e-7, 3.805e-7
0.084, -9.118e-7, -5.304e-7, 3.814e-7
0.083, -9.088e-7, -5.292e-7, 3.796e-7
0.082, -9.057e-7, -5.268e-7, 3.790e-7
0.081, -9.051e-7, -5.271e-7, 3.780e-7
0.080, -9.054e-7, -5.268e-7, 3.786e-7
0.079, -9.014e-7, -5.231e-7, 3.783e-7
0.078, -9.020e-7, -5.249e-7, 3.771e-7
0.077, -8.996e-7, -5.222e-7, 3.774e-7
0.076, -8.969e-7, -5.203e-7, 3.765e-7
0.075, -8.969e-7, -5.219e-7, 3.750e-7
0.074, -8.956e-7, -5.197e-7, 3.759e-7
0.073, -8.935e-7, -5.191e-7, 3.744e-7
0.072, -8.929e-7, -5.191e-7, 3.738e-7
0.071, -8.908e-7, -5.167e-7, 3.741e-7
0.070, -8.877e-7, -5.161e-7, 3.716e-7
0.069, -8.874e-7, -5.149e-7, 3.725e-7
0.068, -8.874e-7, -5.149e-7, 3.725e-7
0.067, -8.834e-7, -5.127e-7, 3.707e-7
0.066, -8.840e-7, -5.130e-7, 3.710e-7
0.065, -8.816e-7, -5.103e-7, 3.713e-7
0.064, -8.810e-7, -5.112e-7, 3.698e-7
0.063, -8.786e-7, -5.106e-7, 3.680e-7
0.062, -8.801e-7, -5.097e-7, 3.704e-7
0.061, -8.770e-7, -5.084e-7, 3.686e-7
0.060, -8.752e-7, -5.078e-7, 3.674e-7
0.059, -8.755e-7, -5.081e-7, 3.674e-7
0.058, -8.712e-7, -5.054e-7, 3.658e-7
0.057, -8.715e-7, -5.054e-7, 3.661e-7
0.056, -8.703e-7, -5.048e-7, 3.655e-7
0.055, -8.682e-7, -5.039e-7, 3.643e-7
0.054, -8.666e-7, -5.030e-7, 3.637e-7
0.053, -8.642e-7, -5.005e-7, 3.637e-7
0.052, -8.630e-7, -5.002e-7, 3.628e-7
0.051, -8.636e-7, -5.017e-7, 3.619e-7
0.050, -8.636e-7, -5.002e-7, 3.634e-7
0.049, -8.612e-7, -4.984e-7, 3.628e-7
0.048, -8.599e-7, -4.993e-7, 3.606e-7
0.047, -8.578e-7, -4.972e-7, 3.606e-7
0.046, -8.557e-7, -4.969e-7, 3.588e-7
0.045, -8.554e-7, -4.972e-7, 3.582e-7
0.044, -8.551e-7, -4.965e-7, 3.585e-7
0.043, -8.511e-7, -4.929e-7, 3.582e-7
0.042, -8.517e-7, -4.941e-7, 3.576e-7
0.041, -8.480e-7, -4.926e-7, 3.555e-7
0.040, -8.477e-7, -4.923e-7, 3.555e-7
0.039, -8.474e-7, -4.926e-7, 3.548e-7
0.038, -8.465e-7, -4.904e-7, 3.561e-7
0.037, -8.438e-7, -4.907e-7, 3.530e-7
0.036, -8.438e-7, -4.907e-7, 3.530e-7
0.035, -8.419e-7, -4.883e-7, 3.536e-7
0.034, -8.398e-7, -4.889e-7, 3.509e-7
0.033, -8.422e-7, -4.901e-7, 3.521e-7
0.032, -8.395e-7, -4.880e-7, 3.515e-7
0.031, -8.358e-7, -4.865e-7, 3.494e-7
0.030, -8.367e-7, -4.874e-7, 3.494e-7
0.029, -8.355e-7, -4.856e-7, 3.500e-7
0.028, -8.325e-7, -4.850e-7, 3.475e-7
0.027, -8.331e-7, -4.853e-7, 3.478e-7
0.026, -8.303e-7, -4.834e-7, 3.469e-7
0.025, -8.288e-7, -4.828e-7, 3.460e-7
0.024, -8.273e-7, -4.825e-7, 3.448e-7
0.023, -8.291e-7, -4.828e-7, 3.463e-7
0.022, -8.261e-7, -4.816e-7, 3.445e-7
0.021, -8.255e-7, -4.813e-7, 3.442e-7
0.020, -8.239e-7, -4.798e-7, 3.442e-7
0.019, -8.239e-7, -4.801e-7, 3.439e-7
0.018, -8.227e-7, -4.807e-7, 3.420e-7
0.017, -8.209e-7, -4.788e-7, 3.420e-7
0.016, -8.193e-7, -4.795e-7, 3.399e-7
0.015, -8.206e-7, -4.792e-7, 3.414e-7
0.014, -8.178e-7, -4.770e-7, 3.408e-7
0.013, -8.175e-7, -4.770e-7, 3.405e-7
0.012, -8.163e-7, -4.779e-7, 3.384e-7
0.011, -8.157e-7, -4.770e-7, 3.387e-7
0.010, -8.139e-7, -4.767e-7, 3.371e-7
0.009, -8.142e-7, -4.767e-7, 3.375e-7
0.008, -8.126e-7, -4.746e-7, 3.381e-7
0.007, -8.099e-7, -4.746e-7, 3.353e-7
0.006, -8.102e-7, -4.749e-7, 3.353e-7
0.005, -8.096e-7, -4.740e-7, 3.356e-7
0.004, -8.084e-7, -4.740e-7, 3.344e-7
0.003, -8.078e-7, -4.737e-7, 3.341e-7
0.002, -8.062e-7, -4.730e-7, 3.332e-7
0.001, -8.068e-7, -4.727e-7, 3.341e-7
-0.000, -8.050e-7, -4.715e-7, 3.335e-7
-0.001, -8.059e-7, -4.727e-7, 3.332e-7
-0.002, -8.023e-7, -4.712e-7, 3.310e-7
-0.003, -8.038e-7, -4.721e-7, 3.317e-7
-0.004, -8.020e-7, -4.703e-7, 3.317e-7
-0.005, -8.013e-7, -4.706e-7, 3.307e-7
-0.006, -7.998e-7, -4.703e-7, 3.295e-7
-0.007, -7.992e-7, -4.703e-7, 3.289e-7
-0.008, -7.974e-7, -4.691e-7, 3.283e-7
-0.009, -7.968e-7, -4.688e-7, 3.280e-7
-0.010, -7.974e-7, -4.682e-7, 3.292e-7
-0.011, -7.959e-7, -4.682e-7, 3.277e-7
-0.012, -7.952e-7, -4.679e-7, 3.274e-7
-0.013, -7.962e-7, -4.685e-7, 3.277e-7
-0.014, -7.952e-7, -4.682e-7, 3.271e-7
-0.015, -7.925e-7, -4.673e-7, 3.252e-7
-0.016, -7.919e-7, -4.660e-7, 3.259e-7
-0.017, -7.919e-7, -4.669e-7, 3.249e-7
-0.018, -7.916e-7, -4.660e-7, 3.255e-7
-0.019, -7.897e-7, -4.648e-7, 3.249e-7
-0.020, -7.891e-7, -4.654e-7, 3.237e-7
-0.021, -7.879e-7, -4.657e-7, 3.222e-7
-0.022, -7.891e-7, -4.648e-7, 3.243e-7
-0.023, -7.879e-7, -4.654e-7, 3.225e-7
-0.024, -7.882e-7, -4.651e-7, 3.231e-7
-0.025, -7.864e-7, -4.648e-7, 3.216e-7
-0.026, -7.858e-7, -4.639e-7, 3.219e-7
-0.027, -7.852e-7, -4.636e-7, 3.216e-7
-0.028, -7.840e-7, -4.630e-7, 3.210e-7
-0.029, -7.849e-7, -4.639e-7, 3.210e-7
-0.030, -7.830e-7, -4.633e-7, 3.198e-7
-0.031, -7.824e-7, -4.627e-7, 3.198e-7
-0.032, -7.818e-7, -4.624e-7, 3.194e-7
-0.033, -7.818e-7, -4.630e-7, 3.188e-7
-0.034, -7.827e-7, -4.624e-7, 3.204e-7
-0.035, -7.800e-7, -4.611e-7, 3.188e-7
-0.036, -7.775e-7, -4.611e-7, 3.164e-7
-0.037, -7.791e-7, -4.615e-7, 3.176e-7
-0.038, -7.778e-7, -4.602e-7, 3.176e-7
-0.039, -7.766e-7, -4.599e-7, 3.167e-7
-0.040, -7.791e-7, -4.608e-7, 3.182e-7
-0.041, -7.772e-7, -4.608e-7, 3.164e-7
-0.042, -7.778e-7, -4.605e-7, 3.173e-7
-0.043, -7.760e-7, -4.602e-7, 3.158e-7
-0.044, -7.757e-7, -4.599e-7, 3.158e-7
-0.045, -7.751e-7, -4.596e-7, 3.155e-7
-0.046, -7.736e-7, -4.587e-7, 3.149e-7
-0.047, -7.754e-7, -4.599e-7, 3.155e-7
-0.048, -7.748e-7, -4.587e-7, 3.161e-7
-0.049, -7.730e-7, -4.581e-7, 3.149e-7
-0.050, -7.730e-7, -4.584e-7, 3.146e-7
