Feb. 28, 2018   11:34:45
Square Wave Voltammetry
File: c:\users\electrochemist\desktop\2018\28022018_unbuffered_9,2\14_e2_9,2_0118_ph5,55_2.txt
Data Source:  Experiment
Instrument Model:  CHI1040A
Header: 
Note: 

Init E (V) = 0.5
Final E (V) = -0.05
Incr E (V) = 0.001
Amplitude (V) = 0.1
Frequency (Hz) = 150
Quiet Time (sec) = 0
Sensitivity (A/V) = 1e-6

Difference:

Forward:

Reverse:

Potential/V, Diff(i/A), For(i/A), Rev(i/A)

0.499, -5.270e-7, -1.325e-7, 3.945e-7
0.498, -6.421e-7, -3.025e-7, 3.396e-7
0.497, -6.356e-7, -3.141e-7, 3.216e-7
0.496, -6.283e-7, -3.168e-7, 3.115e-7
0.495, -6.225e-7, -3.211e-7, 3.014e-7
0.494, -6.189e-7, -3.232e-7, 2.956e-7
0.493, -6.155e-7, -3.238e-7, 2.917e-7
0.492, -6.134e-7, -3.250e-7, 2.883e-7
0.491, -6.109e-7, -3.269e-7, 2.841e-7
0.490, -6.097e-7, -3.272e-7, 2.825e-7
0.489, -6.057e-7, -3.269e-7, 2.789e-7
0.488, -6.070e-7, -3.296e-7, 2.773e-7
0.487, -6.073e-7, -3.293e-7, 2.779e-7
0.486, -6.051e-7, -3.308e-7, 2.743e-7
0.485, -6.088e-7, -3.339e-7, 2.749e-7
0.484, -6.054e-7, -3.324e-7, 2.731e-7
0.483, -6.033e-7, -3.336e-7, 2.697e-7
0.482, -6.063e-7, -3.369e-7, 2.694e-7
0.481, -6.039e-7, -3.345e-7, 2.694e-7
0.480, -6.012e-7, -3.351e-7, 2.660e-7
0.479, -6.051e-7, -3.373e-7, 2.679e-7
0.478, -6.024e-7, -3.351e-7, 2.673e-7
0.477, -6.039e-7, -3.394e-7, 2.645e-7
0.476, -6.042e-7, -3.385e-7, 2.657e-7
0.475, -6.054e-7, -3.394e-7, 2.660e-7
0.474, -6.021e-7, -3.400e-7, 2.621e-7
0.473, -6.057e-7, -3.434e-7, 2.624e-7
0.472, -6.051e-7, -3.418e-7, 2.633e-7
0.471, -6.054e-7, -3.421e-7, 2.633e-7
0.470, -6.045e-7, -3.427e-7, 2.618e-7
0.469, -6.054e-7, -3.421e-7, 2.633e-7
0.468, -6.076e-7, -3.455e-7, 2.621e-7
0.467, -6.085e-7, -3.467e-7, 2.618e-7
0.466, -6.060e-7, -3.446e-7, 2.615e-7
0.465, -6.060e-7, -3.470e-7, 2.590e-7
0.464, -6.094e-7, -3.476e-7, 2.618e-7
0.463, -6.091e-7, -3.470e-7, 2.621e-7
0.462, -6.082e-7, -3.498e-7, 2.584e-7
0.461, -6.115e-7, -3.507e-7, 2.609e-7
0.460, -6.106e-7, -3.498e-7, 2.609e-7
0.459, -6.100e-7, -3.510e-7, 2.590e-7
0.458, -6.106e-7, -3.510e-7, 2.596e-7
0.457, -6.103e-7, -3.519e-7, 2.584e-7
0.456, -6.134e-7, -3.540e-7, 2.593e-7
0.455, -6.121e-7, -3.540e-7, 2.581e-7
0.454, -6.121e-7, -3.528e-7, 2.593e-7
0.453, -6.143e-7, -3.568e-7, 2.575e-7
0.452, -6.146e-7, -3.571e-7, 2.575e-7
0.451, -6.161e-7, -3.568e-7, 2.593e-7
0.450, -6.161e-7, -3.589e-7, 2.572e-7
0.449, -6.170e-7, -3.592e-7, 2.578e-7
0.448, -6.176e-7, -3.589e-7, 2.587e-7
0.447, -6.189e-7, -3.611e-7, 2.578e-7
0.446, -6.219e-7, -3.632e-7, 2.587e-7
0.445, -6.231e-7, -3.626e-7, 2.606e-7
0.444, -6.207e-7, -3.632e-7, 2.575e-7
0.443, -6.222e-7, -3.635e-7, 2.587e-7
0.442, -6.222e-7, -3.638e-7, 2.584e-7
0.441, -6.231e-7, -3.662e-7, 2.569e-7
0.440, -6.289e-7, -3.684e-7, 2.606e-7
0.439, -6.259e-7, -3.659e-7, 2.599e-7
0.438, -6.265e-7, -3.690e-7, 2.575e-7
0.437, -6.292e-7, -3.708e-7, 2.584e-7
0.436, -6.286e-7, -3.696e-7, 2.590e-7
0.435, -6.286e-7, -3.711e-7, 2.575e-7
0.434, -6.311e-7, -3.717e-7, 2.593e-7
0.433, -6.332e-7, -3.717e-7, 2.615e-7
0.432, -6.305e-7, -3.736e-7, 2.569e-7
0.431, -6.347e-7, -3.739e-7, 2.609e-7
0.430, -6.341e-7, -3.745e-7, 2.596e-7
0.429, -6.360e-7, -3.763e-7, 2.596e-7
0.428, -6.387e-7, -3.778e-7, 2.609e-7
0.427, -6.384e-7, -3.769e-7, 2.615e-7
0.426, -6.393e-7, -3.784e-7, 2.609e-7
0.425, -6.390e-7, -3.784e-7, 2.606e-7
0.424, -6.411e-7, -3.800e-7, 2.612e-7
0.423, -6.405e-7, -3.818e-7, 2.587e-7
0.422, -6.448e-7, -3.842e-7, 2.606e-7
0.421, -6.463e-7, -3.839e-7, 2.624e-7
0.420, -6.457e-7, -3.846e-7, 2.612e-7
0.419, -6.494e-7, -3.864e-7, 2.630e-7
0.418, -6.472e-7, -3.852e-7, 2.621e-7
0.417, -6.488e-7, -3.879e-7, 2.609e-7
0.416, -6.503e-7, -3.891e-7, 2.612e-7
0.415, -6.533e-7, -3.900e-7, 2.633e-7
0.414, -6.533e-7, -3.922e-7, 2.612e-7
0.413, -6.552e-7, -3.928e-7, 2.624e-7
0.412, -6.543e-7, -3.919e-7, 2.624e-7
0.411, -6.573e-7, -3.946e-7, 2.627e-7
0.410, -6.598e-7, -3.958e-7, 2.639e-7
0.409, -6.591e-7, -3.946e-7, 2.645e-7
0.408, -6.598e-7, -3.961e-7, 2.636e-7
0.407, -6.619e-7, -3.980e-7, 2.639e-7
0.406, -6.643e-7, -3.986e-7, 2.657e-7
0.405, -6.628e-7, -3.998e-7, 2.630e-7
0.404, -6.668e-7, -4.016e-7, 2.651e-7
0.403, -6.643e-7, -4.007e-7, 2.636e-7
0.402, -6.680e-7, -4.044e-7, 2.636e-7
0.401, -6.707e-7, -4.053e-7, 2.654e-7
0.400, -6.729e-7, -4.053e-7, 2.676e-7
0.399, -6.710e-7, -4.050e-7, 2.660e-7
0.398, -6.744e-7, -4.077e-7, 2.667e-7
0.397, -6.750e-7, -4.087e-7, 2.664e-7
0.396, -6.796e-7, -4.120e-7, 2.676e-7
0.395, -6.793e-7, -4.123e-7, 2.670e-7
0.394, -6.796e-7, -4.123e-7, 2.673e-7
0.393, -6.817e-7, -4.148e-7, 2.670e-7
0.392, -6.823e-7, -4.145e-7, 2.679e-7
0.391, -6.854e-7, -4.160e-7, 2.694e-7
0.390, -6.863e-7, -4.178e-7, 2.685e-7
0.389, -6.878e-7, -4.178e-7, 2.700e-7
0.388, -6.872e-7, -4.184e-7, 2.688e-7
0.387, -6.909e-7, -4.212e-7, 2.697e-7
0.386, -6.930e-7, -4.221e-7, 2.709e-7
0.385, -6.930e-7, -4.224e-7, 2.706e-7
0.384, -6.933e-7, -4.242e-7, 2.691e-7
0.383, -6.967e-7, -4.254e-7, 2.712e-7
0.382, -6.973e-7, -4.261e-7, 2.712e-7
0.381, -6.997e-7, -4.282e-7, 2.715e-7
0.380, -7.006e-7, -4.285e-7, 2.722e-7
0.379, -7.037e-7, -4.303e-7, 2.734e-7
0.378, -7.043e-7, -4.322e-7, 2.722e-7
0.377, -7.049e-7, -4.325e-7, 2.725e-7
0.376, -7.077e-7, -4.334e-7, 2.743e-7
0.375, -7.067e-7, -4.346e-7, 2.722e-7
0.374, -7.110e-7, -4.364e-7, 2.746e-7
0.373, -7.116e-7, -4.364e-7, 2.752e-7
0.372, -7.119e-7, -4.376e-7, 2.743e-7
0.371, -7.141e-7, -4.389e-7, 2.752e-7
0.370, -7.159e-7, -4.404e-7, 2.755e-7
0.369, -7.193e-7, -4.431e-7, 2.761e-7
0.368, -7.202e-7, -4.434e-7, 2.767e-7
0.367, -7.229e-7, -4.450e-7, 2.779e-7
0.366, -7.241e-7, -4.474e-7, 2.767e-7
0.365, -7.260e-7, -4.471e-7, 2.789e-7
0.364, -7.266e-7, -4.483e-7, 2.783e-7
0.363, -7.266e-7, -4.486e-7, 2.779e-7
0.362, -7.312e-7, -4.517e-7, 2.795e-7
0.361, -7.315e-7, -4.523e-7, 2.792e-7
0.360, -7.336e-7, -4.538e-7, 2.798e-7
0.359, -7.357e-7, -4.550e-7, 2.807e-7
0.358, -7.360e-7, -4.553e-7, 2.807e-7
0.357, -7.370e-7, -4.569e-7, 2.801e-7
0.356, -7.403e-7, -4.590e-7, 2.813e-7
0.355, -7.418e-7, -4.596e-7, 2.822e-7
0.354, -7.425e-7, -4.608e-7, 2.816e-7
0.353, -7.464e-7, -4.627e-7, 2.837e-7
0.352, -7.473e-7, -4.639e-7, 2.834e-7
0.351, -7.492e-7, -4.666e-7, 2.825e-7
0.350, -7.498e-7, -4.657e-7, 2.841e-7
0.349, -7.522e-7, -4.679e-7, 2.844e-7
0.348, -7.559e-7, -4.703e-7, 2.856e-7
0.347, -7.559e-7, -4.697e-7, 2.862e-7
0.346, -7.580e-7, -4.721e-7, 2.859e-7
0.345, -7.601e-7, -4.734e-7, 2.868e-7
0.344, -7.620e-7, -4.743e-7, 2.877e-7
0.343, -7.626e-7, -4.752e-7, 2.874e-7
0.342, -7.659e-7, -4.785e-7, 2.874e-7
0.341, -7.678e-7, -4.779e-7, 2.898e-7
0.340, -7.678e-7, -4.798e-7, 2.880e-7
0.339, -7.714e-7, -4.819e-7, 2.895e-7
0.338, -7.711e-7, -4.822e-7, 2.889e-7
0.337, -7.751e-7, -4.846e-7, 2.905e-7
0.336, -7.748e-7, -4.856e-7, 2.892e-7
0.335, -7.785e-7, -4.865e-7, 2.920e-7
0.334, -7.788e-7, -4.880e-7, 2.908e-7
0.333, -7.809e-7, -4.886e-7, 2.923e-7
0.332, -7.803e-7, -4.880e-7, 2.923e-7
0.331, -7.852e-7, -4.923e-7, 2.929e-7
0.330, -7.861e-7, -4.929e-7, 2.932e-7
0.329, -7.897e-7, -4.953e-7, 2.944e-7
0.328, -7.894e-7, -4.956e-7, 2.938e-7
0.327, -7.907e-7, -4.965e-7, 2.941e-7
0.326, -7.937e-7, -4.978e-7, 2.960e-7
0.325, -7.968e-7, -4.999e-7, 2.969e-7
0.324, -7.974e-7, -5.014e-7, 2.960e-7
0.323, -7.995e-7, -5.023e-7, 2.972e-7
0.322, -8.020e-7, -5.048e-7, 2.972e-7
0.321, -8.017e-7, -5.036e-7, 2.981e-7
0.320, -8.047e-7, -5.054e-7, 2.993e-7
0.319, -8.090e-7, -5.078e-7, 3.011e-7
0.318, -8.090e-7, -5.109e-7, 2.981e-7
0.317, -8.114e-7, -5.097e-7, 3.018e-7
0.316, -8.139e-7, -5.124e-7, 3.014e-7
0.315, -8.126e-7, -5.124e-7, 3.002e-7
0.314, -8.187e-7, -5.152e-7, 3.036e-7
0.313, -8.175e-7, -5.161e-7, 3.014e-7
0.312, -8.209e-7, -5.179e-7, 3.030e-7
0.311, -8.224e-7, -5.188e-7, 3.036e-7
0.310, -8.242e-7, -5.200e-7, 3.042e-7
0.309, -8.279e-7, -5.225e-7, 3.054e-7
0.308, -8.285e-7, -5.222e-7, 3.063e-7
0.307, -8.297e-7, -5.237e-7, 3.060e-7
0.306, -8.337e-7, -5.252e-7, 3.085e-7
0.305, -8.328e-7, -5.268e-7, 3.060e-7
0.304, -8.361e-7, -5.280e-7, 3.082e-7
0.303, -8.364e-7, -5.289e-7, 3.075e-7
0.302, -8.386e-7, -5.292e-7, 3.094e-7
0.301, -8.407e-7, -5.319e-7, 3.088e-7
0.300, -8.441e-7, -5.326e-7, 3.115e-7
0.299, -8.450e-7, -5.347e-7, 3.103e-7
0.298, -8.459e-7, -5.350e-7, 3.109e-7
0.297, -8.486e-7, -5.368e-7, 3.118e-7
0.296, -8.505e-7, -5.380e-7, 3.124e-7
0.295, -8.508e-7, -5.393e-7, 3.115e-7
0.294, -8.557e-7, -5.414e-7, 3.143e-7
0.293, -8.547e-7, -5.408e-7, 3.140e-7
0.292, -8.563e-7, -5.432e-7, 3.130e-7
0.291, -8.609e-7, -5.441e-7, 3.167e-7
0.290, -8.612e-7, -5.454e-7, 3.158e-7
0.289, -8.624e-7, -5.469e-7, 3.155e-7
0.288, -8.660e-7, -5.490e-7, 3.170e-7
0.287, -8.642e-7, -5.478e-7, 3.164e-7
0.286, -8.676e-7, -5.503e-7, 3.173e-7
0.285, -8.706e-7, -5.512e-7, 3.194e-7
0.284, -8.712e-7, -5.524e-7, 3.188e-7
0.283, -8.737e-7, -5.536e-7, 3.201e-7
0.282, -8.755e-7, -5.557e-7, 3.198e-7
0.281, -8.782e-7, -5.554e-7, 3.228e-7
0.280, -8.792e-7, -5.576e-7, 3.216e-7
0.279, -8.810e-7, -5.582e-7, 3.228e-7
0.278, -8.825e-7, -5.594e-7, 3.231e-7
0.277, -8.850e-7, -5.618e-7, 3.231e-7
0.276, -8.856e-7, -5.625e-7, 3.231e-7
0.275, -8.880e-7, -5.631e-7, 3.249e-7
0.274, -8.901e-7, -5.634e-7, 3.268e-7
0.273, -8.914e-7, -5.649e-7, 3.265e-7
0.272, -8.926e-7, -5.658e-7, 3.268e-7
0.271, -8.938e-7, -5.673e-7, 3.265e-7
0.270, -8.962e-7, -5.676e-7, 3.286e-7
0.269, -8.987e-7, -5.692e-7, 3.295e-7
0.268, -9.017e-7, -5.716e-7, 3.301e-7
0.267, -9.045e-7, -5.728e-7, 3.317e-7
0.266, -9.039e-7, -5.728e-7, 3.310e-7
0.265, -9.054e-7, -5.747e-7, 3.307e-7
0.264, -9.085e-7, -5.762e-7, 3.323e-7
0.263, -9.069e-7, -5.750e-7, 3.320e-7
0.262, -9.100e-7, -5.774e-7, 3.326e-7
0.261, -9.121e-7, -5.783e-7, 3.338e-7
0.260, -9.139e-7, -5.786e-7, 3.353e-7
0.259, -9.143e-7, -5.799e-7, 3.344e-7
0.258, -9.161e-7, -5.799e-7, 3.362e-7
0.257, -9.176e-7, -5.805e-7, 3.371e-7
0.256, -9.188e-7, -5.826e-7, 3.362e-7
0.255, -9.207e-7, -5.829e-7, 3.378e-7
0.254, -9.216e-7, -5.844e-7, 3.371e-7
0.253, -9.240e-7, -5.850e-7, 3.390e-7
0.252, -9.252e-7, -5.850e-7, 3.402e-7
0.251, -9.252e-7, -5.863e-7, 3.390e-7
0.250, -9.274e-7, -5.866e-7, 3.408e-7
0.249, -9.307e-7, -5.887e-7, 3.420e-7
0.248, -9.304e-7, -5.890e-7, 3.414e-7
0.247, -9.307e-7, -5.887e-7, 3.420e-7
0.246, -9.356e-7, -5.918e-7, 3.439e-7
0.245, -9.347e-7, -5.914e-7, 3.433e-7
0.244, -9.384e-7, -5.939e-7, 3.445e-7
0.243, -9.396e-7, -5.930e-7, 3.466e-7
0.242, -9.405e-7, -5.933e-7, 3.472e-7
0.241, -9.408e-7, -5.942e-7, 3.466e-7
0.240, -9.442e-7, -5.951e-7, 3.490e-7
0.239, -9.442e-7, -5.954e-7, 3.487e-7
0.238, -9.457e-7, -5.966e-7, 3.490e-7
0.237, -9.457e-7, -5.969e-7, 3.487e-7
0.236, -9.484e-7, -5.982e-7, 3.503e-7
0.235, -9.487e-7, -5.994e-7, 3.494e-7
0.234, -9.539e-7, -6.009e-7, 3.530e-7
0.233, -9.500e-7, -5.994e-7, 3.506e-7
0.232, -9.548e-7, -6.021e-7, 3.527e-7
0.231, -9.542e-7, -6.006e-7, 3.536e-7
0.230, -9.542e-7, -6.006e-7, 3.536e-7
0.229, -9.573e-7, -6.030e-7, 3.542e-7
0.228, -9.588e-7, -6.027e-7, 3.561e-7
0.227, -9.576e-7, -6.027e-7, 3.548e-7
0.226, -9.600e-7, -6.043e-7, 3.558e-7
0.225, -9.619e-7, -6.040e-7, 3.579e-7
0.224, -9.619e-7, -6.046e-7, 3.573e-7
0.223, -9.640e-7, -6.058e-7, 3.582e-7
0.222, -9.655e-7, -6.064e-7, 3.591e-7
0.221, -9.646e-7, -6.061e-7, 3.585e-7
0.220, -9.655e-7, -6.067e-7, 3.588e-7
0.219, -9.667e-7, -6.052e-7, 3.616e-7
0.218, -9.667e-7, -6.070e-7, 3.597e-7
0.217, -9.689e-7, -6.079e-7, 3.609e-7
0.216, -9.695e-7, -6.070e-7, 3.625e-7
0.215, -9.701e-7, -6.070e-7, 3.631e-7
0.214, -9.719e-7, -6.082e-7, 3.637e-7
0.213, -9.735e-7, -6.085e-7, 3.649e-7
0.212, -9.725e-7, -6.091e-7, 3.634e-7
0.211, -9.741e-7, -6.085e-7, 3.655e-7
0.210, -9.765e-7, -6.098e-7, 3.667e-7
0.209, -9.744e-7, -6.088e-7, 3.655e-7
0.208, -9.759e-7, -6.091e-7, 3.667e-7
0.207, -9.762e-7, -6.085e-7, 3.677e-7
0.206, -9.771e-7, -6.101e-7, 3.671e-7
0.205, -9.793e-7, -6.107e-7, 3.686e-7
0.204, -9.789e-7, -6.088e-7, 3.701e-7
0.203, -9.799e-7, -6.098e-7, 3.701e-7
0.202, -9.811e-7, -6.104e-7, 3.707e-7
0.201, -9.808e-7, -6.101e-7, 3.707e-7
0.200, -9.814e-7, -6.104e-7, 3.710e-7
0.199, -9.832e-7, -6.119e-7, 3.713e-7
0.198, -9.814e-7, -6.088e-7, 3.725e-7
0.197, -9.841e-7, -6.113e-7, 3.729e-7
0.196, -9.835e-7, -6.101e-7, 3.735e-7
0.195, -9.835e-7, -6.088e-7, 3.747e-7
0.194, -9.851e-7, -6.101e-7, 3.750e-7
0.193, -9.832e-7, -6.091e-7, 3.741e-7
0.192, -9.841e-7, -6.088e-7, 3.753e-7
0.191, -9.869e-7, -6.098e-7, 3.771e-7
0.190, -9.860e-7, -6.101e-7, 3.759e-7
0.189, -9.869e-7, -6.088e-7, 3.780e-7
0.188, -9.866e-7, -6.104e-7, 3.762e-7
0.187, -9.884e-7, -6.095e-7, 3.790e-7
0.186, -9.866e-7, -6.073e-7, 3.793e-7
0.185, -9.860e-7, -6.085e-7, 3.774e-7
0.184, -9.875e-7, -6.088e-7, 3.786e-7
0.183, -9.863e-7, -6.079e-7, 3.783e-7
0.182, -9.857e-7, -6.070e-7, 3.786e-7
0.181, -9.896e-7, -6.076e-7, 3.820e-7
0.180, -9.884e-7, -6.067e-7, 3.817e-7
0.179, -9.902e-7, -6.098e-7, 3.805e-7
0.178, -9.881e-7, -6.049e-7, 3.832e-7
0.177, -9.884e-7, -6.052e-7, 3.832e-7
0.176, -9.851e-7, -6.052e-7, 3.799e-7
0.175, -9.881e-7, -6.043e-7, 3.838e-7
0.174, -9.884e-7, -6.049e-7, 3.835e-7
0.173, -9.881e-7, -6.043e-7, 3.838e-7
0.172, -9.881e-7, -6.046e-7, 3.835e-7
0.171, -9.860e-7, -6.027e-7, 3.832e-7
0.170, -9.875e-7, -6.030e-7, 3.844e-7
0.169, -9.860e-7, -6.003e-7, 3.857e-7
0.168, -9.875e-7, -6.009e-7, 3.866e-7
0.167, -9.863e-7, -6.009e-7, 3.854e-7
0.166, -9.878e-7, -6.000e-7, 3.878e-7
0.165, -9.854e-7, -5.994e-7, 3.860e-7
0.164, -9.857e-7, -5.991e-7, 3.866e-7
0.163, -9.860e-7, -5.985e-7, 3.875e-7
0.162, -9.860e-7, -5.982e-7, 3.878e-7
0.161, -9.854e-7, -5.985e-7, 3.869e-7
0.160, -9.860e-7, -5.972e-7, 3.887e-7
0.159, -9.829e-7, -5.951e-7, 3.878e-7
0.158, -9.832e-7, -5.960e-7, 3.872e-7
0.157, -9.838e-7, -5.948e-7, 3.890e-7
0.156, -9.820e-7, -5.936e-7, 3.884e-7
0.155, -9.808e-7, -5.936e-7, 3.872e-7
0.154, -9.838e-7, -5.936e-7, 3.902e-7
0.153, -9.817e-7, -5.924e-7, 3.893e-7
0.152, -9.799e-7, -5.918e-7, 3.881e-7
0.151, -9.805e-7, -5.908e-7, 3.896e-7
0.150, -9.780e-7, -5.896e-7, 3.884e-7
0.149, -9.793e-7, -5.905e-7, 3.887e-7
0.148, -9.799e-7, -5.896e-7, 3.902e-7
0.147, -9.771e-7, -5.866e-7, 3.905e-7
0.146, -9.789e-7, -5.881e-7, 3.909e-7
0.145, -9.768e-7, -5.860e-7, 3.909e-7
0.144, -9.768e-7, -5.853e-7, 3.915e-7
0.143, -9.759e-7, -5.860e-7, 3.899e-7
0.142, -9.765e-7, -5.841e-7, 3.924e-7
0.141, -9.725e-7, -5.814e-7, 3.912e-7
0.140, -9.716e-7, -5.811e-7, 3.905e-7
0.139, -9.741e-7, -5.811e-7, 3.930e-7
0.138, -9.713e-7, -5.789e-7, 3.924e-7
0.137, -9.695e-7, -5.795e-7, 3.899e-7
0.136, -9.716e-7, -5.783e-7, 3.933e-7
0.135, -9.677e-7, -5.762e-7, 3.915e-7
0.134, -9.683e-7, -5.768e-7, 3.915e-7
0.133, -9.680e-7, -5.756e-7, 3.924e-7
0.132, -9.661e-7, -5.747e-7, 3.915e-7
0.131, -9.640e-7, -5.750e-7, 3.890e-7
0.130, -9.612e-7, -5.722e-7, 3.890e-7
0.129, -9.616e-7, -5.713e-7, 3.902e-7
0.128, -9.634e-7, -5.734e-7, 3.899e-7
0.127, -9.603e-7, -5.698e-7, 3.905e-7
0.126, -9.576e-7, -5.676e-7, 3.899e-7
0.125, -9.582e-7, -5.689e-7, 3.893e-7
0.124, -9.591e-7, -5.670e-7, 3.921e-7
0.123, -9.558e-7, -5.655e-7, 3.902e-7
0.122, -9.524e-7, -5.646e-7, 3.878e-7
0.121, -9.548e-7, -5.649e-7, 3.899e-7
0.120, -9.515e-7, -5.622e-7, 3.893e-7
0.119, -9.527e-7, -5.634e-7, 3.893e-7
0.118, -9.521e-7, -5.612e-7, 3.909e-7
0.117, -9.478e-7, -5.597e-7, 3.881e-7
0.116, -9.478e-7, -5.600e-7, 3.878e-7
0.115, -9.460e-7, -5.576e-7, 3.884e-7
0.114, -9.451e-7, -5.564e-7, 3.887e-7
0.113, -9.457e-7, -5.579e-7, 3.878e-7
0.112, -9.442e-7, -5.545e-7, 3.896e-7
0.111, -9.414e-7, -5.527e-7, 3.887e-7
0.110, -9.408e-7, -5.542e-7, 3.866e-7
0.109, -9.426e-7, -5.533e-7, 3.893e-7
0.108, -9.368e-7, -5.506e-7, 3.863e-7
0.107, -9.368e-7, -5.509e-7, 3.860e-7
0.106, -9.371e-7, -5.493e-7, 3.878e-7
0.105, -9.338e-7, -5.469e-7, 3.869e-7
0.104, -9.335e-7, -5.484e-7, 3.851e-7
0.103, -9.347e-7, -5.460e-7, 3.887e-7
0.102, -9.301e-7, -5.438e-7, 3.863e-7
0.101, -9.307e-7, -5.463e-7, 3.844e-7
0.100, -9.283e-7, -5.426e-7, 3.857e-7
0.099, -9.262e-7, -5.411e-7, 3.851e-7
0.098, -9.240e-7, -5.408e-7, 3.832e-7
0.097, -9.262e-7, -5.411e-7, 3.851e-7
0.096, -9.225e-7, -5.390e-7, 3.835e-7
0.095, -9.207e-7, -5.380e-7, 3.826e-7
0.094, -9.225e-7, -5.371e-7, 3.854e-7
0.093, -9.176e-7, -5.347e-7, 3.829e-7
0.092, -9.173e-7, -5.356e-7, 3.817e-7
0.091, -9.161e-7, -5.341e-7, 3.820e-7
0.090, -9.146e-7, -5.322e-7, 3.823e-7
0.089, -9.136e-7, -5.335e-7, 3.802e-7
0.088, -9.136e-7, -5.322e-7, 3.814e-7
0.087, -9.088e-7, -5.298e-7, 3.790e-7
0.086, -9.094e-7, -5.304e-7, 3.790e-7
0.085, -9.072e-7, -5.277e-7, 3.796e-7
0.084, -9.030e-7, -5.249e-7, 3.780e-7
0.083, -9.063e-7, -5.277e-7, 3.786e-7
0.082, -9.039e-7, -5.237e-7, 3.802e-7
0.081, -9.017e-7, -5.234e-7, 3.783e-7
0.080, -9.014e-7, -5.252e-7, 3.762e-7
0.079, -8.993e-7, -5.231e-7, 3.762e-7
0.078, -8.966e-7, -5.207e-7, 3.759e-7
0.077, -8.947e-7, -5.210e-7, 3.738e-7
0.076, -8.950e-7, -5.197e-7, 3.753e-7
0.075, -8.917e-7, -5.191e-7, 3.725e-7
0.074, -8.920e-7, -5.182e-7, 3.738e-7
0.073, -8.908e-7, -5.173e-7, 3.735e-7
0.072, -8.877e-7, -5.161e-7, 3.716e-7
0.071, -8.840e-7, -5.139e-7, 3.701e-7
0.070, -8.850e-7, -5.139e-7, 3.710e-7
0.069, -8.847e-7, -5.133e-7, 3.713e-7
0.068, -8.843e-7, -5.136e-7, 3.707e-7
0.067, -8.816e-7, -5.109e-7, 3.707e-7
0.066, -8.801e-7, -5.112e-7, 3.689e-7
0.065, -8.813e-7, -5.112e-7, 3.701e-7
0.064, -8.782e-7, -5.088e-7, 3.695e-7
0.063, -8.755e-7, -5.078e-7, 3.677e-7
0.062, -8.758e-7, -5.078e-7, 3.680e-7
0.061, -8.734e-7, -5.069e-7, 3.664e-7
0.060, -8.721e-7, -5.054e-7, 3.667e-7
0.059, -8.721e-7, -5.060e-7, 3.661e-7
0.058, -8.697e-7, -5.036e-7, 3.661e-7
0.057, -8.666e-7, -5.033e-7, 3.634e-7
0.056, -8.654e-7, -5.026e-7, 3.628e-7
0.055, -8.642e-7, -5.008e-7, 3.634e-7
0.054, -8.633e-7, -5.005e-7, 3.628e-7
0.053, -8.621e-7, -5.005e-7, 3.616e-7
0.052, -8.609e-7, -4.987e-7, 3.622e-7
0.051, -8.572e-7, -4.972e-7, 3.600e-7
0.050, -8.590e-7, -4.990e-7, 3.600e-7
0.049, -8.581e-7, -4.978e-7, 3.603e-7
0.048, -8.560e-7, -4.972e-7, 3.588e-7
0.047, -8.526e-7, -4.953e-7, 3.573e-7
0.046, -8.526e-7, -4.944e-7, 3.582e-7
0.045, -8.520e-7, -4.953e-7, 3.567e-7
0.044, -8.496e-7, -4.938e-7, 3.558e-7
0.043, -8.493e-7, -4.932e-7, 3.561e-7
0.042, -8.465e-7, -4.923e-7, 3.542e-7
0.041, -8.483e-7, -4.935e-7, 3.548e-7
0.040, -8.447e-7, -4.907e-7, 3.539e-7
0.039, -8.438e-7, -4.914e-7, 3.524e-7
0.038, -8.425e-7, -4.901e-7, 3.524e-7
0.037, -8.428e-7, -4.895e-7, 3.533e-7
0.036, -8.386e-7, -4.877e-7, 3.509e-7
0.035, -8.407e-7, -4.898e-7, 3.509e-7
0.034, -8.374e-7, -4.868e-7, 3.506e-7
0.033, -8.355e-7, -4.859e-7, 3.497e-7
0.032, -8.374e-7, -4.871e-7, 3.503e-7
0.031, -8.340e-7, -4.853e-7, 3.487e-7
0.030, -8.334e-7, -4.856e-7, 3.478e-7
0.029, -8.328e-7, -4.853e-7, 3.475e-7
0.028, -8.309e-7, -4.843e-7, 3.466e-7
0.027, -8.270e-7, -4.819e-7, 3.451e-7
0.026, -8.300e-7, -4.840e-7, 3.460e-7
0.025, -8.276e-7, -4.813e-7, 3.463e-7
0.024, -8.255e-7, -4.816e-7, 3.439e-7
0.023, -8.236e-7, -4.807e-7, 3.429e-7
0.022, -8.245e-7, -4.810e-7, 3.436e-7
0.021, -8.236e-7, -4.804e-7, 3.432e-7
0.020, -8.221e-7, -4.795e-7, 3.426e-7
0.019, -8.209e-7, -4.788e-7, 3.420e-7
0.018, -8.209e-7, -4.801e-7, 3.408e-7
0.017, -8.215e-7, -4.804e-7, 3.411e-7
0.016, -8.178e-7, -4.773e-7, 3.405e-7
0.015, -8.184e-7, -4.785e-7, 3.399e-7
0.014, -8.175e-7, -4.782e-7, 3.393e-7
0.013, -8.154e-7, -4.761e-7, 3.393e-7
0.012, -8.132e-7, -4.767e-7, 3.365e-7
0.011, -8.126e-7, -4.752e-7, 3.375e-7
0.010, -8.120e-7, -4.743e-7, 3.378e-7
0.009, -8.117e-7, -4.752e-7, 3.365e-7
0.008, -8.117e-7, -4.752e-7, 3.365e-7
0.007, -8.105e-7, -4.743e-7, 3.362e-7
0.006, -8.081e-7, -4.724e-7, 3.356e-7
0.005, -8.071e-7, -4.730e-7, 3.341e-7
0.004, -8.068e-7, -4.718e-7, 3.350e-7
0.003, -8.050e-7, -4.721e-7, 3.329e-7
0.002, -8.056e-7, -4.718e-7, 3.338e-7
0.001, -8.044e-7, -4.715e-7, 3.329e-7
-0.000, -8.023e-7, -4.709e-7, 3.313e-7
-0.001, -8.026e-7, -4.715e-7, 3.310e-7
-0.002, -8.001e-7, -4.694e-7, 3.307e-7
-0.003, -8.026e-7, -4.712e-7, 3.313e-7
-0.004, -8.004e-7, -4.706e-7, 3.298e-7
-0.005, -8.004e-7, -4.709e-7, 3.295e-7
-0.006, -7.968e-7, -4.685e-7, 3.283e-7
-0.007, -7.974e-7, -4.694e-7, 3.280e-7
-0.008, -7.968e-7, -4.682e-7, 3.286e-7
-0.009, -7.968e-7, -4.697e-7, 3.271e-7
-0.010, -7.962e-7, -4.682e-7, 3.280e-7
-0.011, -7.940e-7, -4.673e-7, 3.268e-7
-0.012, -7.949e-7, -4.679e-7, 3.271e-7
-0.013, -7.934e-7, -4.676e-7, 3.259e-7
-0.014, -7.925e-7, -4.666e-7, 3.259e-7
-0.015, -7.925e-7, -4.673e-7, 3.252e-7
-0.016, -7.916e-7, -4.673e-7, 3.243e-7
-0.017, -7.919e-7, -4.663e-7, 3.255e-7
-0.018, -7.897e-7, -4.663e-7, 3.234e-7
-0.019, -7.885e-7, -4.651e-7, 3.234e-7
-0.020, -7.904e-7, -4.654e-7, 3.249e-7
-0.021, -7.879e-7, -4.654e-7, 3.225e-7
-0.022, -7.876e-7, -4.648e-7, 3.228e-7
-0.023, -7.855e-7, -4.639e-7, 3.216e-7
-0.024, -7.876e-7, -4.654e-7, 3.222e-7
-0.025, -7.846e-7, -4.642e-7, 3.204e-7
-0.026, -7.852e-7, -4.636e-7, 3.216e-7
-0.027, -7.836e-7, -4.636e-7, 3.201e-7
-0.028, -7.846e-7, -4.639e-7, 3.207e-7
-0.029, -7.833e-7, -4.633e-7, 3.201e-7
-0.030, -7.830e-7, -4.624e-7, 3.207e-7
-0.031, -7.830e-7, -4.627e-7, 3.204e-7
-0.032, -7.812e-7, -4.621e-7, 3.191e-7
-0.033, -7.797e-7, -4.624e-7, 3.173e-7
-0.034, -7.797e-7, -4.608e-7, 3.188e-7
-0.035, -7.782e-7, -4.608e-7, 3.173e-7
-0.036, -7.806e-7, -4.624e-7, 3.182e-7
-0.037, -7.797e-7, -4.618e-7, 3.179e-7
-0.038, -7.778e-7, -4.615e-7, 3.164e-7
-0.039, -7.785e-7, -4.615e-7, 3.170e-7
-0.040, -7.778e-7, -4.608e-7, 3.170e-7
-0.041, -7.775e-7, -4.605e-7, 3.170e-7
-0.042, -7.760e-7, -4.599e-7, 3.161e-7
-0.043, -7.766e-7, -4.602e-7, 3.164e-7
-0.044, -7.763e-7, -4.590e-7, 3.173e-7
-0.045, -7.754e-7, -4.590e-7, 3.164e-7
-0.046, -7.748e-7, -4.590e-7, 3.158e-7
-0.047, -7.727e-7, -4.581e-7, 3.146e-7
-0.048, -7.748e-7, -4.599e-7, 3.149e-7
-0.049, -7.739e-7, -4.581e-7, 3.158e-7
-0.050, -7.739e-7, -4.587e-7, 3.152e-7
