Feb. 28, 2018   11:34:41
Square Wave Voltammetry
File: c:\users\electrochemist\desktop\2018\28022018_unbuffered_9,2\14_e2_9,2_0118_ph5,55_1.txt
Data Source:  Experiment
Instrument Model:  CHI1040A
Header: 
Note: 

Init E (V) = 0.5
Final E (V) = -0.05
Incr E (V) = 0.001
Amplitude (V) = 0.1
Frequency (Hz) = 150
Quiet Time (sec) = 0
Sensitivity (A/V) = 1e-6

Difference:

Forward:

Reverse:
Potential/V, Diff(i/A), For(i/A), Rev(i/A)

0.499, -5.642e-7, -1.377e-7, 4.266e-7
0.498, -6.692e-7, -3.046e-7, 3.646e-7
0.497, -6.561e-7, -3.174e-7, 3.387e-7
0.496, -6.463e-7, -3.202e-7, 3.262e-7
0.495, -6.387e-7, -3.226e-7, 3.161e-7
0.494, -6.332e-7, -3.257e-7, 3.075e-7
0.493, -6.302e-7, -3.275e-7, 3.027e-7
0.492, -6.274e-7, -3.278e-7, 2.996e-7
0.491, -6.231e-7, -3.290e-7, 2.941e-7
0.490, -6.225e-7, -3.311e-7, 2.914e-7
0.489, -6.204e-7, -3.324e-7, 2.880e-7
0.488, -6.155e-7, -3.308e-7, 2.847e-7
0.487, -6.167e-7, -3.336e-7, 2.831e-7
0.486, -6.131e-7, -3.318e-7, 2.813e-7
0.485, -6.146e-7, -3.348e-7, 2.798e-7
0.484, -6.134e-7, -3.357e-7, 2.776e-7
0.483, -6.134e-7, -3.357e-7, 2.776e-7
0.482, -6.082e-7, -3.348e-7, 2.734e-7
0.481, -6.094e-7, -3.360e-7, 2.734e-7
0.480, -6.106e-7, -3.379e-7, 2.728e-7
0.479, -6.118e-7, -3.382e-7, 2.737e-7
0.478, -6.097e-7, -3.400e-7, 2.697e-7
0.477, -6.097e-7, -3.391e-7, 2.706e-7
0.476, -6.088e-7, -3.400e-7, 2.688e-7
0.475, -6.109e-7, -3.421e-7, 2.688e-7
0.474, -6.085e-7, -3.403e-7, 2.682e-7
0.473, -6.118e-7, -3.449e-7, 2.670e-7
0.472, -6.118e-7, -3.449e-7, 2.670e-7
0.471, -6.082e-7, -3.430e-7, 2.651e-7
0.470, -6.085e-7, -3.449e-7, 2.636e-7
0.469, -6.121e-7, -3.470e-7, 2.651e-7
0.468, -6.118e-7, -3.452e-7, 2.667e-7
0.467, -6.106e-7, -3.476e-7, 2.630e-7
0.466, -6.121e-7, -3.492e-7, 2.630e-7
0.465, -6.112e-7, -3.458e-7, 2.654e-7
0.464, -6.100e-7, -3.476e-7, 2.624e-7
0.463, -6.125e-7, -3.501e-7, 2.624e-7
0.462, -6.121e-7, -3.476e-7, 2.645e-7
0.461, -6.097e-7, -3.498e-7, 2.599e-7
0.460, -6.140e-7, -3.525e-7, 2.615e-7
0.459, -6.143e-7, -3.519e-7, 2.624e-7
0.458, -6.131e-7, -3.537e-7, 2.593e-7
0.457, -6.170e-7, -3.549e-7, 2.621e-7
0.456, -6.173e-7, -3.537e-7, 2.636e-7
0.455, -6.155e-7, -3.556e-7, 2.599e-7
0.454, -6.170e-7, -3.568e-7, 2.602e-7
0.453, -6.173e-7, -3.553e-7, 2.621e-7
0.452, -6.195e-7, -3.580e-7, 2.615e-7
0.451, -6.204e-7, -3.589e-7, 2.615e-7
0.450, -6.219e-7, -3.583e-7, 2.636e-7
0.449, -6.195e-7, -3.604e-7, 2.590e-7
0.448, -6.207e-7, -3.607e-7, 2.599e-7
0.447, -6.219e-7, -3.598e-7, 2.621e-7
0.446, -6.204e-7, -3.614e-7, 2.590e-7
0.445, -6.268e-7, -3.650e-7, 2.618e-7
0.444, -6.244e-7, -3.644e-7, 2.599e-7
0.443, -6.213e-7, -3.635e-7, 2.578e-7
0.442, -6.271e-7, -3.659e-7, 2.612e-7
0.441, -6.277e-7, -3.653e-7, 2.624e-7
0.440, -6.247e-7, -3.669e-7, 2.578e-7
0.439, -6.292e-7, -3.693e-7, 2.599e-7
0.438, -6.292e-7, -3.681e-7, 2.612e-7
0.437, -6.311e-7, -3.708e-7, 2.602e-7
0.436, -6.314e-7, -3.711e-7, 2.602e-7
0.435, -6.305e-7, -3.702e-7, 2.602e-7
0.434, -6.335e-7, -3.730e-7, 2.606e-7
0.433, -6.335e-7, -3.739e-7, 2.596e-7
0.432, -6.369e-7, -3.742e-7, 2.627e-7
0.431, -6.353e-7, -3.754e-7, 2.599e-7
0.430, -6.356e-7, -3.763e-7, 2.593e-7
0.429, -6.387e-7, -3.772e-7, 2.615e-7
0.428, -6.378e-7, -3.781e-7, 2.596e-7
0.427, -6.408e-7, -3.794e-7, 2.615e-7
0.426, -6.411e-7, -3.781e-7, 2.630e-7
0.425, -6.402e-7, -3.803e-7, 2.599e-7
0.424, -6.454e-7, -3.827e-7, 2.627e-7
0.423, -6.448e-7, -3.815e-7, 2.633e-7
0.422, -6.451e-7, -3.842e-7, 2.609e-7
0.421, -6.491e-7, -3.858e-7, 2.633e-7
0.420, -6.497e-7, -3.855e-7, 2.642e-7
0.419, -6.479e-7, -3.867e-7, 2.612e-7
0.418, -6.527e-7, -3.888e-7, 2.639e-7
0.417, -6.521e-7, -3.870e-7, 2.651e-7
0.416, -6.503e-7, -3.885e-7, 2.618e-7
0.415, -6.549e-7, -3.916e-7, 2.633e-7
0.414, -6.558e-7, -3.919e-7, 2.639e-7
0.413, -6.536e-7, -3.913e-7, 2.624e-7
0.412, -6.576e-7, -3.937e-7, 2.639e-7
0.411, -6.582e-7, -3.934e-7, 2.648e-7
0.410, -6.588e-7, -3.949e-7, 2.639e-7
0.409, -6.625e-7, -3.977e-7, 2.648e-7
0.408, -6.610e-7, -3.952e-7, 2.657e-7
0.407, -6.640e-7, -3.992e-7, 2.648e-7
0.406, -6.668e-7, -4.010e-7, 2.657e-7
0.405, -6.665e-7, -3.998e-7, 2.667e-7
0.404, -6.662e-7, -4.016e-7, 2.645e-7
0.403, -6.701e-7, -4.032e-7, 2.670e-7
0.402, -6.720e-7, -4.041e-7, 2.679e-7
0.401, -6.701e-7, -4.041e-7, 2.660e-7
0.400, -6.744e-7, -4.068e-7, 2.676e-7
0.399, -6.729e-7, -4.053e-7, 2.676e-7
0.398, -6.753e-7, -4.077e-7, 2.676e-7
0.397, -6.781e-7, -4.105e-7, 2.676e-7
0.396, -6.790e-7, -4.093e-7, 2.697e-7
0.395, -6.787e-7, -4.114e-7, 2.673e-7
0.394, -6.811e-7, -4.123e-7, 2.688e-7
0.393, -6.820e-7, -4.123e-7, 2.697e-7
0.392, -6.820e-7, -4.145e-7, 2.676e-7
0.391, -6.854e-7, -4.154e-7, 2.700e-7
0.390, -6.875e-7, -4.160e-7, 2.715e-7
0.389, -6.878e-7, -4.178e-7, 2.700e-7
0.388, -6.912e-7, -4.203e-7, 2.709e-7
0.387, -6.915e-7, -4.193e-7, 2.722e-7
0.386, -6.918e-7, -4.212e-7, 2.706e-7
0.385, -6.942e-7, -4.227e-7, 2.715e-7
0.384, -6.952e-7, -4.224e-7, 2.728e-7
0.383, -6.955e-7, -4.242e-7, 2.712e-7
0.382, -6.997e-7, -4.270e-7, 2.728e-7
0.381, -6.991e-7, -4.267e-7, 2.725e-7
0.380, -7.013e-7, -4.279e-7, 2.734e-7
0.379, -7.046e-7, -4.303e-7, 2.743e-7
0.378, -7.049e-7, -4.309e-7, 2.740e-7
0.377, -7.058e-7, -4.322e-7, 2.737e-7
0.376, -7.107e-7, -4.340e-7, 2.767e-7
0.375, -7.089e-7, -4.337e-7, 2.752e-7
0.374, -7.107e-7, -4.367e-7, 2.740e-7
0.373, -7.132e-7, -4.367e-7, 2.764e-7
0.372, -7.138e-7, -4.376e-7, 2.761e-7
0.371, -7.147e-7, -4.392e-7, 2.755e-7
0.370, -7.183e-7, -4.404e-7, 2.779e-7
0.369, -7.217e-7, -4.422e-7, 2.795e-7
0.368, -7.211e-7, -4.450e-7, 2.761e-7
0.367, -7.214e-7, -4.438e-7, 2.776e-7
0.366, -7.220e-7, -4.447e-7, 2.773e-7
0.365, -7.260e-7, -4.477e-7, 2.783e-7
0.364, -7.293e-7, -4.495e-7, 2.798e-7
0.363, -7.284e-7, -4.483e-7, 2.801e-7
0.362, -7.281e-7, -4.502e-7, 2.779e-7
0.361, -7.342e-7, -4.526e-7, 2.816e-7
0.360, -7.318e-7, -4.523e-7, 2.795e-7
0.359, -7.357e-7, -4.544e-7, 2.813e-7
0.358, -7.382e-7, -4.563e-7, 2.819e-7
0.357, -7.382e-7, -4.553e-7, 2.828e-7
0.356, -7.394e-7, -4.584e-7, 2.810e-7
0.355, -7.425e-7, -4.596e-7, 2.828e-7
0.354, -7.443e-7, -4.599e-7, 2.844e-7
0.353, -7.443e-7, -4.618e-7, 2.825e-7
0.352, -7.473e-7, -4.630e-7, 2.844e-7
0.351, -7.486e-7, -4.648e-7, 2.837e-7
0.350, -7.501e-7, -4.660e-7, 2.841e-7
0.349, -7.519e-7, -4.663e-7, 2.856e-7
0.348, -7.537e-7, -4.679e-7, 2.859e-7
0.347, -7.534e-7, -4.688e-7, 2.847e-7
0.346, -7.583e-7, -4.712e-7, 2.871e-7
0.345, -7.586e-7, -4.706e-7, 2.880e-7
0.344, -7.617e-7, -4.749e-7, 2.868e-7
0.343, -7.617e-7, -4.752e-7, 2.865e-7
0.342, -7.641e-7, -4.752e-7, 2.889e-7
0.341, -7.672e-7, -4.779e-7, 2.892e-7
0.340, -7.675e-7, -4.788e-7, 2.886e-7
0.339, -7.705e-7, -4.791e-7, 2.914e-7
0.338, -7.714e-7, -4.825e-7, 2.889e-7
0.337, -7.736e-7, -4.834e-7, 2.902e-7
0.336, -7.748e-7, -4.840e-7, 2.908e-7
0.335, -7.763e-7, -4.856e-7, 2.908e-7
0.334, -7.788e-7, -4.865e-7, 2.923e-7
0.333, -7.821e-7, -4.874e-7, 2.947e-7
0.332, -7.803e-7, -4.886e-7, 2.917e-7
0.331, -7.861e-7, -4.907e-7, 2.953e-7
0.330, -7.879e-7, -4.917e-7, 2.963e-7
0.329, -7.876e-7, -4.947e-7, 2.929e-7
0.328, -7.897e-7, -4.947e-7, 2.950e-7
0.327, -7.928e-7, -4.956e-7, 2.972e-7
0.326, -7.931e-7, -4.978e-7, 2.953e-7
0.325, -7.977e-7, -5.008e-7, 2.969e-7
0.324, -7.983e-7, -4.990e-7, 2.993e-7
0.323, -7.998e-7, -5.014e-7, 2.984e-7
0.322, -8.041e-7, -5.042e-7, 2.999e-7
0.321, -8.020e-7, -5.030e-7, 2.990e-7
0.320, -8.029e-7, -5.048e-7, 2.981e-7
0.319, -8.062e-7, -5.051e-7, 3.011e-7
0.318, -8.096e-7, -5.081e-7, 3.014e-7
0.317, -8.102e-7, -5.100e-7, 3.002e-7
0.316, -8.136e-7, -5.109e-7, 3.027e-7
0.315, -8.129e-7, -5.121e-7, 3.008e-7
0.314, -8.154e-7, -5.130e-7, 3.024e-7
0.313, -8.178e-7, -5.145e-7, 3.033e-7
0.312, -8.215e-7, -5.155e-7, 3.060e-7
0.311, -8.212e-7, -5.176e-7, 3.036e-7
0.310, -8.230e-7, -5.179e-7, 3.051e-7
0.309, -8.255e-7, -5.203e-7, 3.051e-7
0.308, -8.261e-7, -5.207e-7, 3.054e-7
0.307, -8.285e-7, -5.225e-7, 3.060e-7
0.306, -8.297e-7, -5.222e-7, 3.075e-7
0.305, -8.322e-7, -5.240e-7, 3.082e-7
0.304, -8.343e-7, -5.264e-7, 3.079e-7
0.303, -8.343e-7, -5.264e-7, 3.079e-7
0.302, -8.364e-7, -5.274e-7, 3.091e-7
0.301, -8.401e-7, -5.304e-7, 3.097e-7
0.300, -8.404e-7, -5.307e-7, 3.097e-7
0.299, -8.410e-7, -5.313e-7, 3.097e-7
0.298, -8.441e-7, -5.322e-7, 3.118e-7
0.297, -8.435e-7, -5.322e-7, 3.112e-7
0.296, -8.493e-7, -5.365e-7, 3.127e-7
0.295, -8.520e-7, -5.377e-7, 3.143e-7
0.294, -8.517e-7, -5.377e-7, 3.140e-7
0.293, -8.541e-7, -5.411e-7, 3.130e-7
0.292, -8.547e-7, -5.402e-7, 3.146e-7
0.291, -8.566e-7, -5.414e-7, 3.152e-7
0.290, -8.587e-7, -5.429e-7, 3.158e-7
0.289, -8.618e-7, -5.441e-7, 3.176e-7
0.288, -8.605e-7, -5.441e-7, 3.164e-7
0.287, -8.663e-7, -5.478e-7, 3.185e-7
0.286, -8.666e-7, -5.487e-7, 3.179e-7
0.285, -8.676e-7, -5.490e-7, 3.185e-7
0.284, -8.700e-7, -5.503e-7, 3.198e-7
0.283, -8.706e-7, -5.509e-7, 3.198e-7
0.282, -8.737e-7, -5.515e-7, 3.222e-7
0.281, -8.752e-7, -5.545e-7, 3.207e-7
0.280, -8.789e-7, -5.557e-7, 3.231e-7
0.279, -8.786e-7, -5.557e-7, 3.228e-7
0.278, -8.795e-7, -5.576e-7, 3.219e-7
0.277, -8.831e-7, -5.585e-7, 3.246e-7
0.276, -8.837e-7, -5.597e-7, 3.240e-7
0.275, -8.837e-7, -5.588e-7, 3.249e-7
0.274, -8.880e-7, -5.615e-7, 3.265e-7
0.273, -8.877e-7, -5.625e-7, 3.252e-7
0.272, -8.898e-7, -5.618e-7, 3.280e-7
0.271, -8.923e-7, -5.643e-7, 3.280e-7
0.270, -8.914e-7, -5.655e-7, 3.259e-7
0.269, -8.953e-7, -5.664e-7, 3.289e-7
0.268, -8.978e-7, -5.676e-7, 3.301e-7
0.267, -8.966e-7, -5.673e-7, 3.292e-7
0.266, -8.999e-7, -5.695e-7, 3.304e-7
0.265, -9.017e-7, -5.704e-7, 3.313e-7
0.264, -9.033e-7, -5.710e-7, 3.323e-7
0.263, -9.051e-7, -5.719e-7, 3.332e-7
0.262, -9.048e-7, -5.719e-7, 3.329e-7
0.261, -9.069e-7, -5.728e-7, 3.341e-7
0.260, -9.100e-7, -5.753e-7, 3.347e-7
0.259, -9.115e-7, -5.768e-7, 3.347e-7
0.258, -9.115e-7, -5.765e-7, 3.350e-7
0.257, -9.152e-7, -5.780e-7, 3.371e-7
0.256, -9.149e-7, -5.786e-7, 3.362e-7
0.255, -9.170e-7, -5.799e-7, 3.371e-7
0.254, -9.173e-7, -5.799e-7, 3.375e-7
0.253, -9.185e-7, -5.802e-7, 3.384e-7
0.252, -9.216e-7, -5.814e-7, 3.402e-7
0.251, -9.240e-7, -5.832e-7, 3.408e-7
0.250, -9.237e-7, -5.820e-7, 3.417e-7
0.249, -9.240e-7, -5.832e-7, 3.408e-7
0.248, -9.292e-7, -5.860e-7, 3.433e-7
0.247, -9.265e-7, -5.844e-7, 3.420e-7
0.246, -9.292e-7, -5.869e-7, 3.423e-7
0.245, -9.316e-7, -5.881e-7, 3.436e-7
0.244, -9.323e-7, -5.884e-7, 3.439e-7
0.243, -9.326e-7, -5.884e-7, 3.442e-7
0.242, -9.347e-7, -5.884e-7, 3.463e-7
0.241, -9.371e-7, -5.899e-7, 3.472e-7
0.240, -9.371e-7, -5.908e-7, 3.463e-7
0.239, -9.384e-7, -5.908e-7, 3.475e-7
0.238, -9.393e-7, -5.921e-7, 3.472e-7
0.237, -9.387e-7, -5.914e-7, 3.472e-7
0.236, -9.439e-7, -5.945e-7, 3.494e-7
0.235, -9.442e-7, -5.948e-7, 3.494e-7
0.234, -9.435e-7, -5.948e-7, 3.487e-7
0.233, -9.463e-7, -5.951e-7, 3.512e-7
0.232, -9.463e-7, -5.945e-7, 3.518e-7
0.231, -9.478e-7, -5.957e-7, 3.521e-7
0.230, -9.493e-7, -5.969e-7, 3.524e-7
0.229, -9.493e-7, -5.963e-7, 3.530e-7
0.228, -9.521e-7, -5.979e-7, 3.542e-7
0.227, -9.506e-7, -5.966e-7, 3.539e-7
0.226, -9.518e-7, -5.963e-7, 3.555e-7
0.225, -9.524e-7, -5.976e-7, 3.548e-7
0.224, -9.548e-7, -5.985e-7, 3.564e-7
0.223, -9.545e-7, -5.991e-7, 3.555e-7
0.222, -9.551e-7, -5.988e-7, 3.564e-7
0.221, -9.585e-7, -6.009e-7, 3.576e-7
0.220, -9.591e-7, -6.003e-7, 3.588e-7
0.219, -9.597e-7, -6.009e-7, 3.588e-7
0.218, -9.606e-7, -6.012e-7, 3.594e-7
0.217, -9.606e-7, -6.006e-7, 3.600e-7
0.216, -9.619e-7, -6.012e-7, 3.606e-7
0.215, -9.655e-7, -6.030e-7, 3.625e-7
0.214, -9.640e-7, -6.021e-7, 3.619e-7
0.213, -9.634e-7, -6.018e-7, 3.616e-7
0.212, -9.664e-7, -6.027e-7, 3.637e-7
0.211, -9.643e-7, -6.015e-7, 3.628e-7
0.210, -9.674e-7, -6.030e-7, 3.643e-7
0.209, -9.701e-7, -6.037e-7, 3.664e-7
0.208, -9.683e-7, -6.037e-7, 3.646e-7
0.207, -9.689e-7, -6.037e-7, 3.652e-7
0.206, -9.707e-7, -6.037e-7, 3.671e-7
0.205, -9.710e-7, -6.030e-7, 3.680e-7
0.204, -9.701e-7, -6.034e-7, 3.667e-7
0.203, -9.722e-7, -6.040e-7, 3.683e-7
0.202, -9.716e-7, -6.024e-7, 3.692e-7
0.201, -9.722e-7, -6.030e-7, 3.692e-7
0.200, -9.719e-7, -6.027e-7, 3.692e-7
0.199, -9.735e-7, -6.030e-7, 3.704e-7
0.198, -9.735e-7, -6.030e-7, 3.704e-7
0.197, -9.722e-7, -6.015e-7, 3.707e-7
0.196, -9.741e-7, -6.024e-7, 3.716e-7
0.195, -9.762e-7, -6.043e-7, 3.719e-7
0.194, -9.741e-7, -6.018e-7, 3.722e-7
0.193, -9.750e-7, -6.021e-7, 3.729e-7
0.192, -9.756e-7, -6.024e-7, 3.732e-7
0.191, -9.762e-7, -6.024e-7, 3.738e-7
0.190, -9.765e-7, -6.034e-7, 3.732e-7
0.189, -9.765e-7, -6.024e-7, 3.741e-7
0.188, -9.771e-7, -6.018e-7, 3.753e-7
0.187, -9.762e-7, -6.012e-7, 3.750e-7
0.186, -9.771e-7, -6.021e-7, 3.750e-7
0.185, -9.777e-7, -6.012e-7, 3.765e-7
0.184, -9.777e-7, -6.012e-7, 3.765e-7
0.183, -9.765e-7, -5.997e-7, 3.768e-7
0.182, -9.768e-7, -5.994e-7, 3.774e-7
0.181, -9.777e-7, -5.994e-7, 3.783e-7
0.180, -9.771e-7, -5.991e-7, 3.780e-7
0.179, -9.765e-7, -5.988e-7, 3.777e-7
0.178, -9.753e-7, -5.985e-7, 3.768e-7
0.177, -9.765e-7, -5.985e-7, 3.780e-7
0.176, -9.783e-7, -5.982e-7, 3.802e-7
0.175, -9.756e-7, -5.966e-7, 3.790e-7
0.174, -9.774e-7, -5.972e-7, 3.802e-7
0.173, -9.768e-7, -5.957e-7, 3.811e-7
0.172, -9.768e-7, -5.969e-7, 3.799e-7
0.171, -9.762e-7, -5.954e-7, 3.808e-7
0.170, -9.756e-7, -5.945e-7, 3.811e-7
0.169, -9.762e-7, -5.945e-7, 3.817e-7
0.168, -9.753e-7, -5.942e-7, 3.811e-7
0.167, -9.759e-7, -5.924e-7, 3.835e-7
0.166, -9.741e-7, -5.921e-7, 3.820e-7
0.165, -9.750e-7, -5.921e-7, 3.829e-7
0.164, -9.750e-7, -5.905e-7, 3.844e-7
0.163, -9.735e-7, -5.899e-7, 3.835e-7
0.162, -9.750e-7, -5.914e-7, 3.835e-7
0.161, -9.759e-7, -5.918e-7, 3.841e-7
0.160, -9.750e-7, -5.908e-7, 3.841e-7
0.159, -9.728e-7, -5.890e-7, 3.838e-7
0.158, -9.744e-7, -5.887e-7, 3.857e-7
0.157, -9.716e-7, -5.869e-7, 3.848e-7
0.156, -9.719e-7, -5.878e-7, 3.841e-7
0.155, -9.716e-7, -5.857e-7, 3.860e-7
0.154, -9.692e-7, -5.857e-7, 3.835e-7
0.153, -9.704e-7, -5.847e-7, 3.857e-7
0.152, -9.695e-7, -5.832e-7, 3.863e-7
0.151, -9.677e-7, -5.826e-7, 3.851e-7
0.150, -9.683e-7, -5.826e-7, 3.857e-7
0.149, -9.670e-7, -5.808e-7, 3.863e-7
0.148, -9.670e-7, -5.817e-7, 3.854e-7
0.147, -9.674e-7, -5.805e-7, 3.869e-7
0.146, -9.646e-7, -5.786e-7, 3.860e-7
0.145, -9.661e-7, -5.792e-7, 3.869e-7
0.144, -9.634e-7, -5.783e-7, 3.851e-7
0.143, -9.634e-7, -5.765e-7, 3.869e-7
0.142, -9.619e-7, -5.756e-7, 3.863e-7
0.141, -9.637e-7, -5.765e-7, 3.872e-7
0.140, -9.634e-7, -5.744e-7, 3.890e-7
0.139, -9.600e-7, -5.734e-7, 3.866e-7
0.138, -9.600e-7, -5.725e-7, 3.875e-7
0.137, -9.600e-7, -5.719e-7, 3.881e-7
0.136, -9.585e-7, -5.710e-7, 3.875e-7
0.135, -9.585e-7, -5.704e-7, 3.881e-7
0.134, -9.542e-7, -5.683e-7, 3.860e-7
0.133, -9.542e-7, -5.683e-7, 3.860e-7
0.132, -9.545e-7, -5.680e-7, 3.866e-7
0.131, -9.542e-7, -5.670e-7, 3.872e-7
0.130, -9.518e-7, -5.655e-7, 3.863e-7
0.129, -9.515e-7, -5.646e-7, 3.869e-7
0.128, -9.518e-7, -5.649e-7, 3.869e-7
0.127, -9.493e-7, -5.628e-7, 3.866e-7
0.126, -9.500e-7, -5.634e-7, 3.866e-7
0.125, -9.475e-7, -5.609e-7, 3.866e-7
0.124, -9.472e-7, -5.597e-7, 3.875e-7
0.123, -9.466e-7, -5.606e-7, 3.860e-7
0.122, -9.442e-7, -5.588e-7, 3.854e-7
0.121, -9.435e-7, -5.576e-7, 3.860e-7
0.120, -9.420e-7, -5.567e-7, 3.854e-7
0.119, -9.417e-7, -5.557e-7, 3.860e-7
0.118, -9.393e-7, -5.551e-7, 3.841e-7
0.117, -9.396e-7, -5.542e-7, 3.854e-7
0.116, -9.381e-7, -5.524e-7, 3.857e-7
0.115, -9.374e-7, -5.527e-7, 3.848e-7
0.114, -9.356e-7, -5.512e-7, 3.844e-7
0.113, -9.347e-7, -5.503e-7, 3.844e-7
0.112, -9.338e-7, -5.490e-7, 3.848e-7
0.111, -9.313e-7, -5.478e-7, 3.835e-7
0.110, -9.304e-7, -5.466e-7, 3.838e-7
0.109, -9.295e-7, -5.460e-7, 3.835e-7
0.108, -9.289e-7, -5.457e-7, 3.832e-7
0.107, -9.262e-7, -5.432e-7, 3.829e-7
0.106, -9.237e-7, -5.429e-7, 3.808e-7
0.105, -9.243e-7, -5.426e-7, 3.817e-7
0.104, -9.207e-7, -5.399e-7, 3.808e-7
0.103, -9.201e-7, -5.405e-7, 3.796e-7
0.102, -9.225e-7, -5.396e-7, 3.829e-7
0.101, -9.191e-7, -5.374e-7, 3.817e-7
0.100, -9.170e-7, -5.365e-7, 3.805e-7
0.099, -9.182e-7, -5.380e-7, 3.802e-7
0.098, -9.152e-7, -5.350e-7, 3.802e-7
0.097, -9.136e-7, -5.350e-7, 3.786e-7
0.096, -9.143e-7, -5.344e-7, 3.799e-7
0.095, -9.127e-7, -5.341e-7, 3.786e-7
0.094, -9.103e-7, -5.326e-7, 3.777e-7
0.093, -9.103e-7, -5.313e-7, 3.790e-7
0.092, -9.069e-7, -5.292e-7, 3.777e-7
0.091, -9.063e-7, -5.298e-7, 3.765e-7
0.090, -9.063e-7, -5.283e-7, 3.780e-7
0.089, -9.036e-7, -5.271e-7, 3.765e-7
0.088, -9.017e-7, -5.265e-7, 3.753e-7
0.087, -9.027e-7, -5.268e-7, 3.759e-7
0.086, -8.993e-7, -5.237e-7, 3.756e-7
0.085, -8.966e-7, -5.237e-7, 3.728e-7
0.084, -8.969e-7, -5.225e-7, 3.744e-7
0.083, -8.969e-7, -5.216e-7, 3.753e-7
0.082, -8.932e-7, -5.216e-7, 3.716e-7
0.081, -8.944e-7, -5.203e-7, 3.741e-7
0.080, -8.895e-7, -5.185e-7, 3.710e-7
0.079, -8.889e-7, -5.182e-7, 3.707e-7
0.078, -8.895e-7, -5.179e-7, 3.716e-7
0.077, -8.880e-7, -5.164e-7, 3.716e-7
0.076, -8.868e-7, -5.161e-7, 3.707e-7
0.075, -8.856e-7, -5.142e-7, 3.713e-7
0.074, -8.819e-7, -5.127e-7, 3.692e-7
0.073, -8.798e-7, -5.130e-7, 3.667e-7
0.072, -8.822e-7, -5.127e-7, 3.695e-7
0.071, -8.786e-7, -5.109e-7, 3.677e-7
0.070, -8.779e-7, -5.109e-7, 3.671e-7
0.069, -8.764e-7, -5.097e-7, 3.667e-7
0.068, -8.724e-7, -5.069e-7, 3.655e-7
0.067, -8.746e-7, -5.088e-7, 3.658e-7
0.066, -8.749e-7, -5.091e-7, 3.658e-7
0.065, -8.721e-7, -5.072e-7, 3.649e-7
0.064, -8.691e-7, -5.057e-7, 3.634e-7
0.063, -8.715e-7, -5.060e-7, 3.655e-7
0.062, -8.679e-7, -5.042e-7, 3.637e-7
0.061, -8.651e-7, -5.042e-7, 3.609e-7
0.060, -8.654e-7, -5.033e-7, 3.622e-7
0.059, -8.621e-7, -5.011e-7, 3.609e-7
0.058, -8.624e-7, -5.017e-7, 3.606e-7
0.057, -8.633e-7, -5.011e-7, 3.622e-7
0.056, -8.590e-7, -4.987e-7, 3.603e-7
0.055, -8.584e-7, -4.996e-7, 3.588e-7
0.054, -8.587e-7, -4.993e-7, 3.594e-7
0.053, -8.551e-7, -4.969e-7, 3.582e-7
0.052, -8.554e-7, -4.975e-7, 3.579e-7
0.051, -8.538e-7, -4.965e-7, 3.573e-7
0.050, -8.511e-7, -4.953e-7, 3.558e-7
0.049, -8.505e-7, -4.953e-7, 3.551e-7
0.048, -8.514e-7, -4.941e-7, 3.573e-7
0.047, -8.477e-7, -4.926e-7, 3.551e-7
0.046, -8.483e-7, -4.938e-7, 3.545e-7
0.045, -8.471e-7, -4.923e-7, 3.548e-7
0.044, -8.428e-7, -4.907e-7, 3.521e-7
0.043, -8.441e-7, -4.923e-7, 3.518e-7
0.042, -8.425e-7, -4.901e-7, 3.524e-7
0.041, -8.389e-7, -4.883e-7, 3.506e-7
0.040, -8.389e-7, -4.892e-7, 3.497e-7
0.039, -8.401e-7, -4.883e-7, 3.518e-7
0.038, -8.364e-7, -4.871e-7, 3.494e-7
0.037, -8.377e-7, -4.889e-7, 3.487e-7
0.036, -8.377e-7, -4.880e-7, 3.497e-7
0.035, -8.337e-7, -4.856e-7, 3.481e-7
0.034, -8.325e-7, -4.865e-7, 3.460e-7
0.033, -8.346e-7, -4.868e-7, 3.478e-7
0.032, -8.306e-7, -4.837e-7, 3.469e-7
0.031, -8.294e-7, -4.850e-7, 3.445e-7
0.030, -8.303e-7, -4.846e-7, 3.457e-7
0.029, -8.279e-7, -4.831e-7, 3.448e-7
0.028, -8.276e-7, -4.843e-7, 3.432e-7
0.027, -8.264e-7, -4.825e-7, 3.439e-7
0.026, -8.245e-7, -4.822e-7, 3.423e-7
0.025, -8.242e-7, -4.822e-7, 3.420e-7
0.024, -8.248e-7, -4.822e-7, 3.426e-7
0.023, -8.230e-7, -4.810e-7, 3.420e-7
0.022, -8.212e-7, -4.819e-7, 3.393e-7
0.021, -8.203e-7, -4.795e-7, 3.408e-7
0.020, -8.193e-7, -4.782e-7, 3.411e-7
0.019, -8.190e-7, -4.807e-7, 3.384e-7
0.018, -8.187e-7, -4.792e-7, 3.396e-7
0.017, -8.154e-7, -4.770e-7, 3.384e-7
0.016, -8.163e-7, -4.792e-7, 3.371e-7
0.015, -8.169e-7, -4.773e-7, 3.396e-7
0.014, -8.126e-7, -4.755e-7, 3.371e-7
0.013, -8.132e-7, -4.767e-7, 3.365e-7
0.012, -8.126e-7, -4.755e-7, 3.371e-7
0.011, -8.096e-7, -4.755e-7, 3.341e-7
0.010, -8.090e-7, -4.755e-7, 3.335e-7
0.009, -8.096e-7, -4.740e-7, 3.356e-7
0.008, -8.065e-7, -4.734e-7, 3.332e-7
0.007, -8.074e-7, -4.740e-7, 3.335e-7
0.006, -8.074e-7, -4.734e-7, 3.341e-7
0.005, -8.059e-7, -4.737e-7, 3.323e-7
0.004, -8.056e-7, -4.743e-7, 3.313e-7
0.003, -8.047e-7, -4.727e-7, 3.320e-7
0.002, -8.026e-7, -4.727e-7, 3.298e-7
0.001, -8.026e-7, -4.721e-7, 3.304e-7
-0.000, -8.026e-7, -4.715e-7, 3.310e-7
-0.001, -8.010e-7, -4.703e-7, 3.307e-7
-0.002, -7.986e-7, -4.706e-7, 3.280e-7
-0.003, -8.001e-7, -4.706e-7, 3.295e-7
-0.004, -7.983e-7, -4.700e-7, 3.283e-7
-0.005, -7.983e-7, -4.709e-7, 3.274e-7
-0.006, -7.977e-7, -4.682e-7, 3.295e-7
-0.007, -7.962e-7, -4.682e-7, 3.280e-7
-0.008, -7.940e-7, -4.694e-7, 3.246e-7
-0.009, -7.959e-7, -4.694e-7, 3.265e-7
-0.010, -7.937e-7, -4.682e-7, 3.255e-7
-0.011, -7.943e-7, -4.691e-7, 3.252e-7
-0.012, -7.940e-7, -4.676e-7, 3.265e-7
-0.013, -7.907e-7, -4.666e-7, 3.240e-7
-0.014, -7.931e-7, -4.700e-7, 3.231e-7
-0.015, -7.910e-7, -4.669e-7, 3.240e-7
-0.016, -7.885e-7, -4.654e-7, 3.231e-7
-0.017, -7.922e-7, -4.688e-7, 3.234e-7
-0.018, -7.897e-7, -4.657e-7, 3.240e-7
-0.019, -7.916e-7, -4.654e-7, 3.262e-7
-0.020, -7.873e-7, -4.660e-7, 3.213e-7
-0.021, -7.861e-7, -4.639e-7, 3.222e-7
-0.022, -7.876e-7, -4.654e-7, 3.222e-7
-0.023, -7.846e-7, -4.648e-7, 3.198e-7
-0.024, -7.855e-7, -4.648e-7, 3.207e-7
-0.025, -7.843e-7, -4.639e-7, 3.204e-7
-0.026, -7.846e-7, -4.648e-7, 3.198e-7
-0.027, -7.840e-7, -4.636e-7, 3.204e-7
-0.028, -7.815e-7, -4.627e-7, 3.188e-7
-0.029, -7.840e-7, -4.651e-7, 3.188e-7
-0.030, -7.806e-7, -4.624e-7, 3.182e-7
-0.031, -7.815e-7, -4.636e-7, 3.179e-7
-0.032, -7.815e-7, -4.639e-7, 3.176e-7
-0.033, -7.812e-7, -4.621e-7, 3.191e-7
-0.034, -7.794e-7, -4.618e-7, 3.176e-7
-0.035, -7.788e-7, -4.621e-7, 3.167e-7
-0.036, -7.791e-7, -4.621e-7, 3.170e-7
-0.037, -7.775e-7, -4.618e-7, 3.158e-7
-0.038, -7.797e-7, -4.627e-7, 3.170e-7
-0.039, -7.778e-7, -4.611e-7, 3.167e-7
-0.040, -7.775e-7, -4.615e-7, 3.161e-7
-0.041, -7.766e-7, -4.615e-7, 3.152e-7
-0.042, -7.763e-7, -4.605e-7, 3.158e-7
-0.043, -7.766e-7, -4.608e-7, 3.158e-7
-0.044, -7.763e-7, -4.602e-7, 3.161e-7
-0.045, -7.769e-7, -4.608e-7, 3.161e-7
-0.046, -7.748e-7, -4.596e-7, 3.152e-7
-0.047, -7.769e-7, -4.611e-7, 3.158e-7
-0.048, -7.733e-7, -4.587e-7, 3.146e-7
-0.049, -7.736e-7, -4.593e-7, 3.143e-7
-0.050, -7.727e-7, -4.596e-7, 3.130e-7
