Feb. 28, 2018   11:35:00
Square Wave Voltammetry
File: c:\users\electrochemist\desktop\2018\28022018_unbuffered_9,2\14_e2_9,2_0118_ph5,55_5.txt
Data Source:  Experiment
Instrument Model:  CHI1040A
Header: 
Note: 

Init E (V) = 0.5
Final E (V) = -0.05
Incr E (V) = 0.001
Amplitude (V) = 0.1
Frequency (Hz) = 150
Quiet Time (sec) = 0
Sensitivity (A/V) = 1e-6

Difference:

Forward:

Reverse:
Ep = 0.094V
ip = 3.654e-10A
Ah = 3.257e-11VA

Potential/V, Diff(i/A), For(i/A), Rev(i/A)

0.499, -5.154e-7, -1.322e-7, 3.832e-7
0.498, -6.295e-7, -2.988e-7, 3.307e-7
0.497, -6.216e-7, -3.116e-7, 3.100e-7
0.496, -6.195e-7, -3.147e-7, 3.048e-7
0.495, -6.094e-7, -3.177e-7, 2.917e-7
0.494, -6.073e-7, -3.208e-7, 2.865e-7
0.493, -6.088e-7, -3.244e-7, 2.844e-7
0.492, -6.039e-7, -3.238e-7, 2.801e-7
0.491, -6.021e-7, -3.244e-7, 2.776e-7
0.490, -5.996e-7, -3.241e-7, 2.755e-7
0.489, -5.987e-7, -3.266e-7, 2.722e-7
0.488, -5.981e-7, -3.269e-7, 2.712e-7
0.487, -5.993e-7, -3.284e-7, 2.709e-7
0.486, -5.969e-7, -3.290e-7, 2.679e-7
0.485, -5.978e-7, -3.302e-7, 2.676e-7
0.484, -5.975e-7, -3.308e-7, 2.667e-7
0.483, -5.963e-7, -3.315e-7, 2.648e-7
0.482, -5.972e-7, -3.327e-7, 2.645e-7
0.481, -5.978e-7, -3.318e-7, 2.660e-7
0.480, -5.960e-7, -3.330e-7, 2.630e-7
0.479, -5.963e-7, -3.351e-7, 2.612e-7
0.478, -5.957e-7, -3.336e-7, 2.621e-7
0.477, -5.954e-7, -3.357e-7, 2.596e-7
0.476, -5.969e-7, -3.363e-7, 2.606e-7
0.475, -5.954e-7, -3.360e-7, 2.593e-7
0.474, -5.963e-7, -3.369e-7, 2.593e-7
0.473, -5.978e-7, -3.391e-7, 2.587e-7
0.472, -5.966e-7, -3.388e-7, 2.578e-7
0.471, -5.978e-7, -3.403e-7, 2.575e-7
0.470, -5.978e-7, -3.406e-7, 2.572e-7
0.469, -5.987e-7, -3.406e-7, 2.581e-7
0.468, -5.990e-7, -3.427e-7, 2.563e-7
0.467, -6.006e-7, -3.430e-7, 2.575e-7
0.466, -5.993e-7, -3.421e-7, 2.572e-7
0.465, -5.990e-7, -3.449e-7, 2.541e-7
0.464, -6.036e-7, -3.464e-7, 2.572e-7
0.463, -6.021e-7, -3.452e-7, 2.569e-7
0.462, -6.018e-7, -3.470e-7, 2.548e-7
0.461, -6.036e-7, -3.482e-7, 2.554e-7
0.460, -6.039e-7, -3.476e-7, 2.563e-7
0.459, -6.036e-7, -3.498e-7, 2.538e-7
0.458, -6.045e-7, -3.492e-7, 2.554e-7
0.457, -6.054e-7, -3.495e-7, 2.560e-7
0.456, -6.060e-7, -3.507e-7, 2.554e-7
0.455, -6.082e-7, -3.519e-7, 2.563e-7
0.454, -6.070e-7, -3.519e-7, 2.551e-7
0.453, -6.100e-7, -3.553e-7, 2.548e-7
0.452, -6.109e-7, -3.553e-7, 2.557e-7
0.451, -6.094e-7, -3.543e-7, 2.551e-7
0.450, -6.106e-7, -3.574e-7, 2.532e-7
0.449, -6.115e-7, -3.568e-7, 2.548e-7
0.448, -6.143e-7, -3.574e-7, 2.569e-7
0.447, -6.137e-7, -3.592e-7, 2.545e-7
0.446, -6.167e-7, -3.601e-7, 2.566e-7
0.445, -6.164e-7, -3.598e-7, 2.566e-7
0.444, -6.149e-7, -3.601e-7, 2.548e-7
0.443, -6.179e-7, -3.623e-7, 2.557e-7
0.442, -6.170e-7, -3.620e-7, 2.551e-7
0.441, -6.170e-7, -3.635e-7, 2.535e-7
0.440, -6.210e-7, -3.644e-7, 2.566e-7
0.439, -6.210e-7, -3.653e-7, 2.557e-7
0.438, -6.195e-7, -3.662e-7, 2.532e-7
0.437, -6.222e-7, -3.662e-7, 2.560e-7
0.436, -6.237e-7, -3.678e-7, 2.560e-7
0.435, -6.244e-7, -3.693e-7, 2.551e-7
0.434, -6.274e-7, -3.696e-7, 2.578e-7
0.433, -6.256e-7, -3.702e-7, 2.554e-7
0.432, -6.274e-7, -3.726e-7, 2.548e-7
0.431, -6.295e-7, -3.726e-7, 2.569e-7
0.430, -6.320e-7, -3.733e-7, 2.587e-7
0.429, -6.298e-7, -3.754e-7, 2.545e-7
0.428, -6.326e-7, -3.754e-7, 2.572e-7
0.427, -6.332e-7, -3.751e-7, 2.581e-7
0.426, -6.360e-7, -3.791e-7, 2.569e-7
0.425, -6.372e-7, -3.788e-7, 2.584e-7
0.424, -6.381e-7, -3.788e-7, 2.593e-7
0.423, -6.372e-7, -3.803e-7, 2.569e-7
0.422, -6.417e-7, -3.824e-7, 2.593e-7
0.421, -6.405e-7, -3.830e-7, 2.575e-7
0.420, -6.424e-7, -3.846e-7, 2.578e-7
0.419, -6.445e-7, -3.849e-7, 2.596e-7
0.418, -6.421e-7, -3.839e-7, 2.581e-7
0.417, -6.454e-7, -3.876e-7, 2.578e-7
0.416, -6.457e-7, -3.873e-7, 2.584e-7
0.415, -6.497e-7, -3.882e-7, 2.615e-7
0.414, -6.485e-7, -3.900e-7, 2.584e-7
0.413, -6.518e-7, -3.903e-7, 2.615e-7
0.412, -6.503e-7, -3.910e-7, 2.593e-7
0.411, -6.533e-7, -3.937e-7, 2.596e-7
0.410, -6.567e-7, -3.940e-7, 2.627e-7
0.409, -6.567e-7, -3.952e-7, 2.615e-7
0.408, -6.561e-7, -3.961e-7, 2.599e-7
0.407, -6.579e-7, -3.965e-7, 2.615e-7
0.406, -6.585e-7, -3.977e-7, 2.609e-7
0.405, -6.619e-7, -3.995e-7, 2.624e-7
0.404, -6.604e-7, -3.980e-7, 2.624e-7
0.403, -6.637e-7, -4.016e-7, 2.621e-7
0.402, -6.652e-7, -4.038e-7, 2.615e-7
0.401, -6.668e-7, -4.022e-7, 2.645e-7
0.400, -6.649e-7, -4.038e-7, 2.612e-7
0.399, -6.698e-7, -4.071e-7, 2.627e-7
0.398, -6.713e-7, -4.071e-7, 2.642e-7
0.397, -6.710e-7, -4.062e-7, 2.648e-7
0.396, -6.744e-7, -4.099e-7, 2.645e-7
0.395, -6.750e-7, -4.099e-7, 2.651e-7
0.394, -6.756e-7, -4.105e-7, 2.651e-7
0.393, -6.747e-7, -4.111e-7, 2.636e-7
0.392, -6.796e-7, -4.126e-7, 2.670e-7
0.391, -6.784e-7, -4.129e-7, 2.654e-7
0.390, -6.817e-7, -4.175e-7, 2.642e-7
0.389, -6.842e-7, -4.169e-7, 2.673e-7
0.388, -6.845e-7, -4.172e-7, 2.673e-7
0.387, -6.878e-7, -4.212e-7, 2.667e-7
0.386, -6.875e-7, -4.196e-7, 2.679e-7
0.385, -6.887e-7, -4.203e-7, 2.685e-7
0.384, -6.939e-7, -4.248e-7, 2.691e-7
0.383, -6.936e-7, -4.251e-7, 2.685e-7
0.382, -6.936e-7, -4.251e-7, 2.685e-7
0.381, -6.948e-7, -4.264e-7, 2.685e-7
0.380, -6.979e-7, -4.279e-7, 2.700e-7
0.379, -6.994e-7, -4.291e-7, 2.703e-7
0.378, -7.022e-7, -4.322e-7, 2.700e-7
0.377, -7.022e-7, -4.309e-7, 2.712e-7
0.376, -7.022e-7, -4.322e-7, 2.700e-7
0.375, -7.052e-7, -4.346e-7, 2.706e-7
0.374, -7.089e-7, -4.364e-7, 2.725e-7
0.373, -7.077e-7, -4.349e-7, 2.728e-7
0.372, -7.107e-7, -4.386e-7, 2.722e-7
0.371, -7.116e-7, -4.376e-7, 2.740e-7
0.370, -7.147e-7, -4.398e-7, 2.749e-7
0.369, -7.153e-7, -4.422e-7, 2.731e-7
0.368, -7.168e-7, -4.413e-7, 2.755e-7
0.367, -7.202e-7, -4.444e-7, 2.758e-7
0.366, -7.205e-7, -4.462e-7, 2.743e-7
0.365, -7.226e-7, -4.462e-7, 2.764e-7
0.364, -7.244e-7, -4.477e-7, 2.767e-7
0.363, -7.244e-7, -4.495e-7, 2.749e-7
0.362, -7.269e-7, -4.495e-7, 2.773e-7
0.361, -7.296e-7, -4.523e-7, 2.773e-7
0.360, -7.330e-7, -4.547e-7, 2.783e-7
0.359, -7.348e-7, -4.547e-7, 2.801e-7
0.358, -7.324e-7, -4.544e-7, 2.779e-7
0.357, -7.354e-7, -4.575e-7, 2.779e-7
0.356, -7.394e-7, -4.584e-7, 2.810e-7
0.355, -7.376e-7, -4.581e-7, 2.795e-7
0.354, -7.409e-7, -4.611e-7, 2.798e-7
0.353, -7.461e-7, -4.636e-7, 2.825e-7
0.352, -7.449e-7, -4.624e-7, 2.825e-7
0.351, -7.455e-7, -4.648e-7, 2.807e-7
0.350, -7.486e-7, -4.654e-7, 2.831e-7
0.349, -7.498e-7, -4.669e-7, 2.828e-7
0.348, -7.504e-7, -4.688e-7, 2.816e-7
0.347, -7.550e-7, -4.700e-7, 2.850e-7
0.346, -7.559e-7, -4.715e-7, 2.844e-7
0.345, -7.592e-7, -4.740e-7, 2.853e-7
0.344, -7.617e-7, -4.746e-7, 2.871e-7
0.343, -7.608e-7, -4.746e-7, 2.862e-7
0.342, -7.641e-7, -4.776e-7, 2.865e-7
0.341, -7.656e-7, -4.776e-7, 2.880e-7
0.340, -7.675e-7, -4.791e-7, 2.883e-7
0.339, -7.690e-7, -4.819e-7, 2.871e-7
0.338, -7.699e-7, -4.822e-7, 2.877e-7
0.337, -7.717e-7, -4.831e-7, 2.886e-7
0.336, -7.736e-7, -4.849e-7, 2.886e-7
0.335, -7.778e-7, -4.874e-7, 2.905e-7
0.334, -7.763e-7, -4.874e-7, 2.889e-7
0.333, -7.800e-7, -4.898e-7, 2.902e-7
0.332, -7.830e-7, -4.901e-7, 2.929e-7
0.331, -7.840e-7, -4.923e-7, 2.917e-7
0.330, -7.873e-7, -4.950e-7, 2.923e-7
0.329, -7.867e-7, -4.935e-7, 2.932e-7
0.328, -7.907e-7, -4.959e-7, 2.947e-7
0.327, -7.919e-7, -4.990e-7, 2.929e-7
0.326, -7.910e-7, -4.978e-7, 2.932e-7
0.325, -7.965e-7, -5.011e-7, 2.953e-7
0.324, -7.971e-7, -5.026e-7, 2.944e-7
0.323, -8.004e-7, -5.036e-7, 2.969e-7
0.322, -7.983e-7, -5.026e-7, 2.956e-7
0.321, -8.038e-7, -5.069e-7, 2.969e-7
0.320, -8.065e-7, -5.075e-7, 2.990e-7
0.319, -8.068e-7, -5.091e-7, 2.978e-7
0.318, -8.105e-7, -5.118e-7, 2.987e-7
0.317, -8.102e-7, -5.106e-7, 2.996e-7
0.316, -8.132e-7, -5.130e-7, 3.002e-7
0.315, -8.154e-7, -5.155e-7, 2.999e-7
0.314, -8.166e-7, -5.149e-7, 3.017e-7
0.313, -8.169e-7, -5.161e-7, 3.008e-7
0.312, -8.206e-7, -5.194e-7, 3.011e-7
0.311, -8.233e-7, -5.200e-7, 3.033e-7
0.310, -8.227e-7, -5.197e-7, 3.030e-7
0.309, -8.267e-7, -5.237e-7, 3.030e-7
0.308, -8.270e-7, -5.231e-7, 3.039e-7
0.307, -8.288e-7, -5.252e-7, 3.036e-7
0.306, -8.306e-7, -5.261e-7, 3.045e-7
0.305, -8.355e-7, -5.280e-7, 3.075e-7
0.304, -8.352e-7, -5.280e-7, 3.072e-7
0.303, -8.383e-7, -5.313e-7, 3.069e-7
0.302, -8.395e-7, -5.319e-7, 3.075e-7
0.301, -8.413e-7, -5.322e-7, 3.091e-7
0.300, -8.435e-7, -5.353e-7, 3.082e-7
0.299, -8.453e-7, -5.359e-7, 3.094e-7
0.298, -8.474e-7, -5.377e-7, 3.097e-7
0.297, -8.477e-7, -5.380e-7, 3.097e-7
0.296, -8.511e-7, -5.390e-7, 3.121e-7
0.295, -8.514e-7, -5.399e-7, 3.115e-7
0.294, -8.560e-7, -5.432e-7, 3.127e-7
0.293, -8.596e-7, -5.441e-7, 3.155e-7
0.292, -8.575e-7, -5.445e-7, 3.130e-7
0.291, -8.624e-7, -5.469e-7, 3.155e-7
0.290, -8.615e-7, -5.460e-7, 3.155e-7
0.289, -8.636e-7, -5.478e-7, 3.158e-7
0.288, -8.663e-7, -5.503e-7, 3.161e-7
0.287, -8.679e-7, -5.496e-7, 3.182e-7
0.286, -8.700e-7, -5.524e-7, 3.176e-7
0.285, -8.734e-7, -5.539e-7, 3.194e-7
0.284, -8.740e-7, -5.551e-7, 3.188e-7
0.283, -8.770e-7, -5.567e-7, 3.204e-7
0.282, -8.786e-7, -5.579e-7, 3.207e-7
0.281, -8.807e-7, -5.588e-7, 3.219e-7
0.280, -8.792e-7, -5.591e-7, 3.201e-7
0.279, -8.828e-7, -5.612e-7, 3.216e-7
0.278, -8.847e-7, -5.615e-7, 3.231e-7
0.277, -8.856e-7, -5.625e-7, 3.231e-7
0.276, -8.898e-7, -5.661e-7, 3.237e-7
0.275, -8.908e-7, -5.649e-7, 3.259e-7
0.274, -8.920e-7, -5.670e-7, 3.249e-7
0.273, -8.944e-7, -5.686e-7, 3.259e-7
0.272, -8.962e-7, -5.701e-7, 3.262e-7
0.271, -9.005e-7, -5.713e-7, 3.292e-7
0.270, -8.990e-7, -5.713e-7, 3.277e-7
0.269, -9.011e-7, -5.731e-7, 3.280e-7
0.268, -9.033e-7, -5.744e-7, 3.289e-7
0.267, -9.048e-7, -5.741e-7, 3.307e-7
0.266, -9.057e-7, -5.753e-7, 3.304e-7
0.265, -9.094e-7, -5.771e-7, 3.323e-7
0.264, -9.106e-7, -5.789e-7, 3.317e-7
0.263, -9.106e-7, -5.777e-7, 3.329e-7
0.262, -9.146e-7, -5.799e-7, 3.347e-7
0.261, -9.158e-7, -5.817e-7, 3.341e-7
0.260, -9.179e-7, -5.817e-7, 3.362e-7
0.259, -9.179e-7, -5.832e-7, 3.347e-7
0.258, -9.201e-7, -5.838e-7, 3.362e-7
0.257, -9.222e-7, -5.857e-7, 3.365e-7
0.256, -9.255e-7, -5.872e-7, 3.384e-7
0.255, -9.262e-7, -5.869e-7, 3.393e-7
0.254, -9.280e-7, -5.887e-7, 3.393e-7
0.253, -9.277e-7, -5.887e-7, 3.390e-7
0.252, -9.295e-7, -5.902e-7, 3.393e-7
0.251, -9.298e-7, -5.890e-7, 3.408e-7
0.250, -9.338e-7, -5.914e-7, 3.423e-7
0.249, -9.347e-7, -5.921e-7, 3.426e-7
0.248, -9.381e-7, -5.936e-7, 3.445e-7
0.247, -9.393e-7, -5.954e-7, 3.439e-7
0.246, -9.405e-7, -5.963e-7, 3.442e-7
0.245, -9.414e-7, -5.966e-7, 3.448e-7
0.244, -9.405e-7, -5.960e-7, 3.445e-7
0.243, -9.429e-7, -5.972e-7, 3.457e-7
0.242, -9.451e-7, -5.972e-7, 3.478e-7
0.241, -9.460e-7, -5.991e-7, 3.469e-7
0.240, -9.463e-7, -5.985e-7, 3.478e-7
0.239, -9.481e-7, -6.003e-7, 3.478e-7
0.238, -9.521e-7, -6.015e-7, 3.506e-7
0.237, -9.533e-7, -6.021e-7, 3.512e-7
0.236, -9.536e-7, -6.030e-7, 3.506e-7
0.235, -9.527e-7, -6.024e-7, 3.503e-7
0.234, -9.570e-7, -6.052e-7, 3.518e-7
0.233, -9.567e-7, -6.043e-7, 3.524e-7
0.232, -9.585e-7, -6.046e-7, 3.539e-7
0.231, -9.579e-7, -6.043e-7, 3.536e-7
0.230, -9.585e-7, -6.049e-7, 3.536e-7
0.229, -9.622e-7, -6.070e-7, 3.552e-7
0.228, -9.643e-7, -6.061e-7, 3.582e-7
0.227, -9.652e-7, -6.082e-7, 3.570e-7
0.226, -9.667e-7, -6.095e-7, 3.573e-7
0.225, -9.667e-7, -6.098e-7, 3.570e-7
0.224, -9.701e-7, -6.101e-7, 3.600e-7
0.223, -9.698e-7, -6.107e-7, 3.591e-7
0.222, -9.695e-7, -6.101e-7, 3.594e-7
0.221, -9.710e-7, -6.113e-7, 3.597e-7
0.220, -9.716e-7, -6.116e-7, 3.600e-7
0.219, -9.731e-7, -6.113e-7, 3.619e-7
0.218, -9.744e-7, -6.116e-7, 3.628e-7
0.217, -9.771e-7, -6.134e-7, 3.637e-7
0.216, -9.771e-7, -6.134e-7, 3.637e-7
0.215, -9.771e-7, -6.131e-7, 3.640e-7
0.214, -9.789e-7, -6.140e-7, 3.649e-7
0.213, -9.786e-7, -6.125e-7, 3.661e-7
0.212, -9.817e-7, -6.149e-7, 3.667e-7
0.211, -9.838e-7, -6.156e-7, 3.683e-7
0.210, -9.799e-7, -6.134e-7, 3.664e-7
0.209, -9.835e-7, -6.149e-7, 3.686e-7
0.208, -9.857e-7, -6.153e-7, 3.704e-7
0.207, -9.841e-7, -6.153e-7, 3.689e-7
0.206, -9.851e-7, -6.153e-7, 3.698e-7
0.205, -9.878e-7, -6.165e-7, 3.713e-7
0.204, -9.869e-7, -6.156e-7, 3.713e-7
0.203, -9.866e-7, -6.156e-7, 3.710e-7
0.202, -9.884e-7, -6.165e-7, 3.719e-7
0.201, -9.896e-7, -6.156e-7, 3.741e-7
0.200, -9.902e-7, -6.159e-7, 3.744e-7
0.199, -9.890e-7, -6.159e-7, 3.732e-7
0.198, -9.924e-7, -6.171e-7, 3.753e-7
0.197, -9.902e-7, -6.159e-7, 3.744e-7
0.196, -9.915e-7, -6.168e-7, 3.747e-7
0.195, -9.942e-7, -6.171e-7, 3.771e-7
0.194, -9.936e-7, -6.162e-7, 3.774e-7
0.193, -9.945e-7, -6.171e-7, 3.774e-7
0.192, -9.933e-7, -6.159e-7, 3.774e-7
0.191, -9.939e-7, -6.162e-7, 3.777e-7
0.190, -9.948e-7, -6.162e-7, 3.786e-7
0.189, -9.939e-7, -6.146e-7, 3.793e-7
0.188, -9.951e-7, -6.153e-7, 3.799e-7
0.187, -9.991e-7, -6.174e-7, 3.817e-7
0.186, -9.970e-7, -6.159e-7, 3.811e-7
0.185, -9.960e-7, -6.146e-7, 3.814e-7
0.184, -9.948e-7, -6.140e-7, 3.808e-7
0.183, -9.966e-7, -6.140e-7, 3.826e-7
0.182, -9.976e-7, -6.143e-7, 3.832e-7
0.181, -9.982e-7, -6.156e-7, 3.826e-7
0.180, -9.982e-7, -6.131e-7, 3.851e-7
0.179, -9.966e-7, -6.140e-7, 3.826e-7
0.178, -9.970e-7, -6.125e-7, 3.844e-7
0.177, -9.970e-7, -6.113e-7, 3.857e-7
0.176, -9.963e-7, -6.110e-7, 3.854e-7
0.175, -9.973e-7, -6.122e-7, 3.851e-7
0.174, -9.976e-7, -6.113e-7, 3.863e-7
0.173, -9.976e-7, -6.113e-7, 3.863e-7
0.172, -9.985e-7, -6.116e-7, 3.869e-7
0.171, -9.982e-7, -6.101e-7, 3.881e-7
0.170, -9.966e-7, -6.091e-7, 3.875e-7
0.169, -9.976e-7, -6.098e-7, 3.878e-7
0.168, -9.991e-7, -6.091e-7, 3.899e-7
0.167, -9.954e-7, -6.082e-7, 3.872e-7
0.166, -9.976e-7, -6.082e-7, 3.893e-7
0.165, -9.976e-7, -6.076e-7, 3.899e-7
0.164, -9.942e-7, -6.064e-7, 3.878e-7
0.163, -9.966e-7, -6.064e-7, 3.902e-7
0.162, -9.979e-7, -6.061e-7, 3.918e-7
0.161, -9.948e-7, -6.052e-7, 3.896e-7
0.160, -9.960e-7, -6.049e-7, 3.912e-7
0.159, -9.948e-7, -6.034e-7, 3.915e-7
0.158, -9.963e-7, -6.046e-7, 3.918e-7
0.157, -9.951e-7, -6.040e-7, 3.912e-7
0.156, -9.924e-7, -6.006e-7, 3.918e-7
0.155, -9.927e-7, -6.015e-7, 3.912e-7
0.154, -9.939e-7, -6.006e-7, 3.933e-7
0.153, -9.915e-7, -5.988e-7, 3.927e-7
0.152, -9.918e-7, -5.991e-7, 3.927e-7
0.151, -9.930e-7, -5.997e-7, 3.933e-7
0.150, -9.908e-7, -5.963e-7, 3.945e-7
0.149, -9.896e-7, -5.966e-7, 3.930e-7
0.148, -9.890e-7, -5.963e-7, 3.927e-7
0.147, -9.893e-7, -5.951e-7, 3.942e-7
0.146, -9.875e-7, -5.954e-7, 3.921e-7
0.145, -9.884e-7, -5.939e-7, 3.945e-7
0.144, -9.884e-7, -5.927e-7, 3.957e-7
0.143, -9.857e-7, -5.921e-7, 3.936e-7
0.142, -9.866e-7, -5.914e-7, 3.951e-7
0.141, -9.844e-7, -5.899e-7, 3.945e-7
0.140, -9.841e-7, -5.893e-7, 3.948e-7
0.139, -9.835e-7, -5.890e-7, 3.945e-7
0.138, -9.796e-7, -5.866e-7, 3.930e-7
0.137, -9.826e-7, -5.875e-7, 3.951e-7
0.136, -9.805e-7, -5.863e-7, 3.942e-7
0.135, -9.796e-7, -5.844e-7, 3.951e-7
0.134, -9.793e-7, -5.847e-7, 3.945e-7
0.133, -9.780e-7, -5.832e-7, 3.948e-7
0.132, -9.771e-7, -5.820e-7, 3.951e-7
0.131, -9.738e-7, -5.805e-7, 3.933e-7
0.130, -9.756e-7, -5.802e-7, 3.954e-7
0.129, -9.738e-7, -5.783e-7, 3.954e-7
0.128, -9.713e-7, -5.780e-7, 3.933e-7
0.127, -9.728e-7, -5.774e-7, 3.954e-7
0.126, -9.695e-7, -5.753e-7, 3.942e-7
0.125, -9.680e-7, -5.753e-7, 3.927e-7
0.124, -9.692e-7, -5.734e-7, 3.957e-7
0.123, -9.655e-7, -5.722e-7, 3.933e-7
0.122, -9.640e-7, -5.713e-7, 3.927e-7
0.121, -9.661e-7, -5.716e-7, 3.945e-7
0.120, -9.640e-7, -5.704e-7, 3.936e-7
0.119, -9.631e-7, -5.689e-7, 3.942e-7
0.118, -9.625e-7, -5.689e-7, 3.936e-7
0.117, -9.609e-7, -5.664e-7, 3.945e-7
0.116, -9.588e-7, -5.661e-7, 3.927e-7
0.115, -9.588e-7, -5.646e-7, 3.942e-7
0.114, -9.564e-7, -5.646e-7, 3.918e-7
0.113, -9.564e-7, -5.649e-7, 3.915e-7
0.112, -9.551e-7, -5.625e-7, 3.927e-7
0.111, -9.542e-7, -5.606e-7, 3.936e-7
0.110, -9.506e-7, -5.609e-7, 3.896e-7
0.109, -9.509e-7, -5.582e-7, 3.927e-7
0.108, -9.484e-7, -5.576e-7, 3.909e-7
0.107, -9.478e-7, -5.573e-7, 3.905e-7
0.106, -9.469e-7, -5.557e-7, 3.912e-7
0.105, -9.457e-7, -5.545e-7, 3.912e-7
0.104, -9.451e-7, -5.536e-7, 3.915e-7
0.103, -9.439e-7, -5.524e-7, 3.915e-7
0.102, -9.417e-7, -5.512e-7, 3.905e-7
0.101, -9.402e-7, -5.499e-7, 3.902e-7
0.100, -9.393e-7, -5.506e-7, 3.887e-7
0.099, -9.381e-7, -5.487e-7, 3.893e-7
0.098, -9.353e-7, -5.475e-7, 3.878e-7
0.097, -9.332e-7, -5.466e-7, 3.866e-7
0.096, -9.323e-7, -5.451e-7, 3.872e-7
0.095, -9.323e-7, -5.448e-7, 3.875e-7
0.094, -9.307e-7, -5.429e-7, 3.878e-7
0.093, -9.271e-7, -5.405e-7, 3.866e-7
0.092, -9.274e-7, -5.408e-7, 3.866e-7
0.091, -9.274e-7, -5.402e-7, 3.872e-7
0.090, -9.255e-7, -5.396e-7, 3.860e-7
0.089, -9.262e-7, -5.399e-7, 3.863e-7
0.088, -9.222e-7, -5.362e-7, 3.860e-7
0.087, -9.197e-7, -5.362e-7, 3.835e-7
0.086, -9.197e-7, -5.359e-7, 3.838e-7
0.085, -9.197e-7, -5.344e-7, 3.854e-7
0.084, -9.161e-7, -5.335e-7, 3.826e-7
0.083, -9.152e-7, -5.326e-7, 3.826e-7
0.082, -9.121e-7, -5.304e-7, 3.817e-7
0.081, -9.121e-7, -5.301e-7, 3.820e-7
0.080, -9.091e-7, -5.289e-7, 3.802e-7
0.079, -9.075e-7, -5.271e-7, 3.805e-7
0.078, -9.051e-7, -5.252e-7, 3.799e-7
0.077, -9.039e-7, -5.243e-7, 3.796e-7
0.076, -9.036e-7, -5.249e-7, 3.786e-7
0.075, -9.011e-7, -5.237e-7, 3.774e-7
0.074, -9.036e-7, -5.252e-7, 3.783e-7
0.073, -9.011e-7, -5.228e-7, 3.783e-7
0.072, -8.987e-7, -5.213e-7, 3.774e-7
0.071, -8.969e-7, -5.216e-7, 3.753e-7
0.070, -8.944e-7, -5.197e-7, 3.747e-7
0.069, -8.920e-7, -5.182e-7, 3.738e-7
0.068, -8.917e-7, -5.176e-7, 3.741e-7
0.067, -8.920e-7, -5.170e-7, 3.750e-7
0.066, -8.914e-7, -5.170e-7, 3.744e-7
0.065, -8.877e-7, -5.152e-7, 3.725e-7
0.064, -8.892e-7, -5.152e-7, 3.741e-7
0.063, -8.850e-7, -5.130e-7, 3.719e-7
0.062, -8.843e-7, -5.133e-7, 3.710e-7
0.061, -8.825e-7, -5.097e-7, 3.728e-7
0.060, -8.801e-7, -5.106e-7, 3.695e-7
0.059, -8.789e-7, -5.097e-7, 3.692e-7
0.058, -8.776e-7, -5.081e-7, 3.695e-7
0.057, -8.755e-7, -5.078e-7, 3.677e-7
0.056, -8.746e-7, -5.075e-7, 3.671e-7
0.055, -8.718e-7, -5.051e-7, 3.667e-7
0.054, -8.724e-7, -5.066e-7, 3.658e-7
0.053, -8.703e-7, -5.054e-7, 3.649e-7
0.052, -8.679e-7, -5.026e-7, 3.652e-7
0.051, -8.670e-7, -5.033e-7, 3.637e-7
0.050, -8.688e-7, -5.033e-7, 3.655e-7
0.049, -8.673e-7, -5.011e-7, 3.661e-7
0.048, -8.627e-7, -5.017e-7, 3.609e-7
0.047, -8.642e-7, -5.008e-7, 3.634e-7
0.046, -8.615e-7, -4.993e-7, 3.622e-7
0.045, -8.602e-7, -4.993e-7, 3.609e-7
0.044, -8.587e-7, -4.981e-7, 3.606e-7
0.043, -8.572e-7, -4.965e-7, 3.606e-7
0.042, -8.514e-7, -4.962e-7, 3.551e-7
0.041, -8.551e-7, -4.962e-7, 3.588e-7
0.040, -8.541e-7, -4.953e-7, 3.588e-7
0.039, -8.517e-7, -4.947e-7, 3.570e-7
0.038, -8.502e-7, -4.938e-7, 3.564e-7
0.037, -8.496e-7, -4.935e-7, 3.561e-7
0.036, -8.474e-7, -4.926e-7, 3.548e-7
0.035, -8.480e-7, -4.932e-7, 3.548e-7
0.034, -8.441e-7, -4.904e-7, 3.536e-7
0.033, -8.428e-7, -4.898e-7, 3.530e-7
0.032, -8.435e-7, -4.907e-7, 3.527e-7
0.031, -8.422e-7, -4.883e-7, 3.539e-7
0.030, -8.392e-7, -4.892e-7, 3.500e-7
0.029, -8.386e-7, -4.883e-7, 3.503e-7
0.028, -8.370e-7, -4.865e-7, 3.506e-7
0.027, -8.346e-7, -4.862e-7, 3.484e-7
0.026, -8.343e-7, -4.859e-7, 3.484e-7
0.025, -8.343e-7, -4.850e-7, 3.494e-7
0.024, -8.322e-7, -4.859e-7, 3.463e-7
0.023, -8.328e-7, -4.850e-7, 3.478e-7
0.022, -8.319e-7, -4.840e-7, 3.478e-7
0.021, -8.288e-7, -4.834e-7, 3.454e-7
0.020, -8.300e-7, -4.846e-7, 3.454e-7
0.019, -8.276e-7, -4.804e-7, 3.472e-7
0.018, -8.255e-7, -4.825e-7, 3.429e-7
0.017, -8.242e-7, -4.810e-7, 3.432e-7
0.016, -8.248e-7, -4.804e-7, 3.445e-7
0.015, -8.215e-7, -4.804e-7, 3.411e-7
0.014, -8.209e-7, -4.795e-7, 3.414e-7
0.013, -8.215e-7, -4.782e-7, 3.432e-7
0.012, -8.200e-7, -4.788e-7, 3.411e-7
0.011, -8.197e-7, -4.795e-7, 3.402e-7
0.010, -8.181e-7, -4.770e-7, 3.411e-7
0.009, -8.163e-7, -4.776e-7, 3.387e-7
0.008, -8.166e-7, -4.782e-7, 3.384e-7
0.007, -8.157e-7, -4.764e-7, 3.393e-7
0.006, -8.126e-7, -4.755e-7, 3.371e-7
0.005, -8.126e-7, -4.764e-7, 3.362e-7
0.004, -8.114e-7, -4.743e-7, 3.371e-7
0.003, -8.108e-7, -4.755e-7, 3.353e-7
0.002, -8.123e-7, -4.755e-7, 3.368e-7
0.001, -8.093e-7, -4.743e-7, 3.350e-7
-0.000, -8.071e-7, -4.734e-7, 3.338e-7
-0.001, -8.062e-7, -4.740e-7, 3.323e-7
-0.002, -8.071e-7, -4.721e-7, 3.350e-7
-0.003, -8.029e-7, -4.712e-7, 3.317e-7
-0.004, -8.056e-7, -4.730e-7, 3.326e-7
-0.005, -8.026e-7, -4.703e-7, 3.323e-7
-0.006, -8.017e-7, -4.712e-7, 3.304e-7
-0.007, -8.038e-7, -4.715e-7, 3.323e-7
-0.008, -8.017e-7, -4.700e-7, 3.317e-7
-0.009, -8.007e-7, -4.709e-7, 3.298e-7
-0.010, -7.977e-7, -4.697e-7, 3.280e-7
-0.011, -7.983e-7, -4.682e-7, 3.301e-7
-0.012, -7.959e-7, -4.682e-7, 3.277e-7
-0.013, -7.983e-7, -4.697e-7, 3.286e-7
-0.014, -7.971e-7, -4.694e-7, 3.277e-7
-0.015, -7.952e-7, -4.691e-7, 3.262e-7
-0.016, -7.955e-7, -4.691e-7, 3.265e-7
-0.017, -7.937e-7, -4.673e-7, 3.265e-7
-0.018, -7.925e-7, -4.676e-7, 3.249e-7
-0.019, -7.931e-7, -4.669e-7, 3.262e-7
-0.020, -7.922e-7, -4.663e-7, 3.259e-7
-0.021, -7.888e-7, -4.660e-7, 3.228e-7
-0.022, -7.925e-7, -4.682e-7, 3.243e-7
-0.023, -7.897e-7, -4.651e-7, 3.246e-7
-0.024, -7.888e-7, -4.663e-7, 3.225e-7
-0.025, -7.885e-7, -4.654e-7, 3.231e-7
-0.026, -7.873e-7, -4.642e-7, 3.231e-7
-0.027, -7.858e-7, -4.645e-7, 3.213e-7
-0.028, -7.882e-7, -4.651e-7, 3.231e-7
-0.029, -7.846e-7, -4.627e-7, 3.219e-7
-0.030, -7.833e-7, -4.636e-7, 3.198e-7
-0.031, -7.855e-7, -4.642e-7, 3.213e-7
-0.032, -7.824e-7, -4.633e-7, 3.191e-7
-0.033, -7.833e-7, -4.630e-7, 3.204e-7
-0.034, -7.833e-7, -4.633e-7, 3.201e-7
-0.035, -7.818e-7, -4.621e-7, 3.198e-7
-0.036, -7.824e-7, -4.636e-7, 3.188e-7
-0.037, -7.812e-7, -4.627e-7, 3.185e-7
-0.038, -7.809e-7, -4.615e-7, 3.194e-7
-0.039, -7.788e-7, -4.618e-7, 3.170e-7
-0.040, -7.797e-7, -4.618e-7, 3.179e-7
-0.041, -7.788e-7, -4.608e-7, 3.179e-7
-0.042, -7.778e-7, -4.615e-7, 3.164e-7
-0.043, -7.791e-7, -4.608e-7, 3.182e-7
-0.044, -7.775e-7, -4.599e-7, 3.176e-7
-0.045, -7.763e-7, -4.599e-7, 3.164e-7
-0.046, -7.778e-7, -4.605e-7, 3.173e-7
-0.047, -7.751e-7, -4.587e-7, 3.164e-7
-0.048, -7.745e-7, -4.590e-7, 3.155e-7
-0.049, -7.760e-7, -4.593e-7, 3.167e-7
-0.050, -7.733e-7, -4.584e-7, 3.149e-7
