Feb. 28, 2018   11:35:46
Square Wave Voltammetry
File: c:\users\electrochemist\desktop\2018\28022018_unbuffered_9,2\15_e5_9,2_0118_ph5,55_4.txt
Data Source:  Experiment
Instrument Model:  CHI1040A
Header: 
Note: 

Init E (V) = 0.5
Final E (V) = -0.05
Incr E (V) = 0.001
Amplitude (V) = 0.1
Frequency (Hz) = 150
Quiet Time (sec) = 0
Sensitivity (A/V) = 1e-6

Difference:

Forward:

Reverse:

Potential/V, Diff(i/A), For(i/A), Rev(i/A)

0.499, -7.293e-7, -1.737e-7, 5.556e-7
0.498, -8.847e-7, -3.995e-7, 4.852e-7
0.497, -8.770e-7, -4.145e-7, 4.626e-7
0.496, -8.697e-7, -4.218e-7, 4.479e-7
0.495, -8.621e-7, -4.233e-7, 4.388e-7
0.494, -8.572e-7, -4.248e-7, 4.324e-7
0.493, -8.532e-7, -4.273e-7, 4.260e-7
0.492, -8.480e-7, -4.273e-7, 4.208e-7
0.491, -8.465e-7, -4.294e-7, 4.171e-7
0.490, -8.447e-7, -4.303e-7, 4.144e-7
0.489, -8.395e-7, -4.291e-7, 4.104e-7
0.488, -8.355e-7, -4.291e-7, 4.064e-7
0.487, -8.355e-7, -4.315e-7, 4.040e-7
0.486, -8.322e-7, -4.291e-7, 4.031e-7
0.485, -8.325e-7, -4.328e-7, 3.997e-7
0.484, -8.294e-7, -4.312e-7, 3.982e-7
0.483, -8.303e-7, -4.331e-7, 3.973e-7
0.482, -8.285e-7, -4.334e-7, 3.951e-7
0.481, -8.264e-7, -4.331e-7, 3.933e-7
0.480, -8.264e-7, -4.343e-7, 3.921e-7
0.479, -8.245e-7, -4.340e-7, 3.906e-7
0.478, -8.230e-7, -4.334e-7, 3.896e-7
0.477, -8.236e-7, -4.334e-7, 3.902e-7
0.476, -8.258e-7, -4.364e-7, 3.893e-7
0.475, -8.209e-7, -4.346e-7, 3.863e-7
0.474, -8.206e-7, -4.349e-7, 3.857e-7
0.473, -8.193e-7, -4.355e-7, 3.838e-7
0.472, -8.206e-7, -4.367e-7, 3.838e-7
0.471, -8.203e-7, -4.370e-7, 3.832e-7
0.470, -8.184e-7, -4.361e-7, 3.823e-7
0.469, -8.193e-7, -4.367e-7, 3.826e-7
0.468, -8.172e-7, -4.355e-7, 3.817e-7
0.467, -8.184e-7, -4.376e-7, 3.808e-7
0.466, -8.181e-7, -4.386e-7, 3.796e-7
0.465, -8.184e-7, -4.380e-7, 3.805e-7
0.464, -8.190e-7, -4.392e-7, 3.799e-7
0.463, -8.193e-7, -4.395e-7, 3.799e-7
0.462, -8.175e-7, -4.386e-7, 3.790e-7
0.461, -8.163e-7, -4.395e-7, 3.768e-7
0.460, -8.172e-7, -4.401e-7, 3.771e-7
0.459, -8.172e-7, -4.401e-7, 3.771e-7
0.458, -8.187e-7, -4.410e-7, 3.777e-7
0.457, -8.166e-7, -4.404e-7, 3.762e-7
0.456, -8.160e-7, -4.404e-7, 3.756e-7
0.455, -8.172e-7, -4.416e-7, 3.756e-7
0.454, -8.175e-7, -4.422e-7, 3.753e-7
0.453, -8.175e-7, -4.422e-7, 3.753e-7
0.452, -8.187e-7, -4.438e-7, 3.750e-7
0.451, -8.197e-7, -4.441e-7, 3.756e-7
0.450, -8.181e-7, -4.444e-7, 3.738e-7
0.449, -8.193e-7, -4.447e-7, 3.747e-7
0.448, -8.193e-7, -4.447e-7, 3.747e-7
0.447, -8.197e-7, -4.453e-7, 3.744e-7
0.446, -8.203e-7, -4.465e-7, 3.738e-7
0.445, -8.187e-7, -4.453e-7, 3.735e-7
0.444, -8.200e-7, -4.468e-7, 3.732e-7
0.443, -8.200e-7, -4.477e-7, 3.722e-7
0.442, -8.200e-7, -4.465e-7, 3.735e-7
0.441, -8.197e-7, -4.471e-7, 3.725e-7
0.440, -8.212e-7, -4.492e-7, 3.719e-7
0.439, -8.215e-7, -4.489e-7, 3.725e-7
0.438, -8.227e-7, -4.499e-7, 3.729e-7
0.437, -8.206e-7, -4.495e-7, 3.710e-7
0.436, -8.248e-7, -4.520e-7, 3.729e-7
0.435, -8.221e-7, -4.502e-7, 3.719e-7
0.434, -8.233e-7, -4.517e-7, 3.716e-7
0.433, -8.258e-7, -4.532e-7, 3.725e-7
0.432, -8.248e-7, -4.538e-7, 3.710e-7
0.431, -8.248e-7, -4.535e-7, 3.713e-7
0.430, -8.251e-7, -4.541e-7, 3.710e-7
0.429, -8.258e-7, -4.538e-7, 3.719e-7
0.428, -8.255e-7, -4.547e-7, 3.707e-7
0.427, -8.270e-7, -4.550e-7, 3.719e-7
0.426, -8.264e-7, -4.560e-7, 3.704e-7
0.425, -8.288e-7, -4.575e-7, 3.713e-7
0.424, -8.291e-7, -4.581e-7, 3.710e-7
0.423, -8.294e-7, -4.569e-7, 3.725e-7
0.422, -8.297e-7, -4.590e-7, 3.707e-7
0.421, -8.313e-7, -4.599e-7, 3.713e-7
0.420, -8.313e-7, -4.602e-7, 3.710e-7
0.419, -8.297e-7, -4.599e-7, 3.698e-7
0.418, -8.325e-7, -4.618e-7, 3.707e-7
0.417, -8.309e-7, -4.608e-7, 3.701e-7
0.416, -8.325e-7, -4.633e-7, 3.692e-7
0.415, -8.343e-7, -4.621e-7, 3.722e-7
0.414, -8.364e-7, -4.633e-7, 3.732e-7
0.413, -8.349e-7, -4.648e-7, 3.701e-7
0.412, -8.377e-7, -4.645e-7, 3.732e-7
0.411, -8.367e-7, -4.657e-7, 3.710e-7
0.410, -8.367e-7, -4.654e-7, 3.713e-7
0.409, -8.380e-7, -4.672e-7, 3.707e-7
0.408, -8.395e-7, -4.676e-7, 3.719e-7
0.407, -8.392e-7, -4.679e-7, 3.713e-7
0.406, -8.395e-7, -4.676e-7, 3.719e-7
0.405, -8.413e-7, -4.688e-7, 3.725e-7
0.404, -8.428e-7, -4.706e-7, 3.722e-7
0.403, -8.432e-7, -4.715e-7, 3.716e-7
0.402, -8.435e-7, -4.715e-7, 3.719e-7
0.401, -8.453e-7, -4.730e-7, 3.722e-7
0.400, -8.444e-7, -4.727e-7, 3.716e-7
0.399, -8.474e-7, -4.734e-7, 3.741e-7
0.398, -8.462e-7, -4.749e-7, 3.713e-7
0.397, -8.474e-7, -4.746e-7, 3.729e-7
0.396, -8.477e-7, -4.755e-7, 3.722e-7
0.395, -8.493e-7, -4.770e-7, 3.722e-7
0.394, -8.511e-7, -4.782e-7, 3.729e-7
0.393, -8.511e-7, -4.782e-7, 3.729e-7
0.392, -8.520e-7, -4.788e-7, 3.732e-7
0.391, -8.529e-7, -4.798e-7, 3.732e-7
0.390, -8.538e-7, -4.791e-7, 3.747e-7
0.389, -8.551e-7, -4.810e-7, 3.741e-7
0.388, -8.563e-7, -4.834e-7, 3.729e-7
0.387, -8.544e-7, -4.810e-7, 3.735e-7
0.386, -8.554e-7, -4.825e-7, 3.729e-7
0.385, -8.569e-7, -4.831e-7, 3.738e-7
0.384, -8.590e-7, -4.843e-7, 3.747e-7
0.383, -8.590e-7, -4.862e-7, 3.729e-7
0.382, -8.621e-7, -4.868e-7, 3.753e-7
0.381, -8.602e-7, -4.862e-7, 3.741e-7
0.380, -8.630e-7, -4.883e-7, 3.747e-7
0.379, -8.627e-7, -4.874e-7, 3.753e-7
0.378, -8.642e-7, -4.892e-7, 3.750e-7
0.377, -8.657e-7, -4.917e-7, 3.741e-7
0.376, -8.682e-7, -4.920e-7, 3.762e-7
0.375, -8.694e-7, -4.926e-7, 3.768e-7
0.374, -8.706e-7, -4.944e-7, 3.762e-7
0.373, -8.706e-7, -4.932e-7, 3.774e-7
0.372, -8.724e-7, -4.950e-7, 3.774e-7
0.371, -8.706e-7, -4.959e-7, 3.747e-7
0.370, -8.758e-7, -4.981e-7, 3.777e-7
0.369, -8.761e-7, -4.978e-7, 3.783e-7
0.368, -8.770e-7, -4.990e-7, 3.780e-7
0.367, -8.786e-7, -4.996e-7, 3.790e-7
0.366, -8.804e-7, -5.014e-7, 3.790e-7
0.365, -8.819e-7, -5.023e-7, 3.796e-7
0.364, -8.816e-7, -5.026e-7, 3.790e-7
0.363, -8.822e-7, -5.033e-7, 3.790e-7
0.362, -8.828e-7, -5.042e-7, 3.787e-7
0.361, -8.859e-7, -5.048e-7, 3.811e-7
0.360, -8.847e-7, -5.066e-7, 3.780e-7
0.359, -8.859e-7, -5.072e-7, 3.787e-7
0.358, -8.868e-7, -5.078e-7, 3.790e-7
0.357, -8.889e-7, -5.087e-7, 3.802e-7
0.356, -8.898e-7, -5.103e-7, 3.796e-7
0.355, -8.935e-7, -5.112e-7, 3.823e-7
0.354, -8.935e-7, -5.115e-7, 3.820e-7
0.353, -8.941e-7, -5.130e-7, 3.811e-7
0.352, -8.972e-7, -5.145e-7, 3.826e-7
0.351, -8.966e-7, -5.142e-7, 3.823e-7
0.350, -8.969e-7, -5.161e-7, 3.808e-7
0.349, -8.996e-7, -5.155e-7, 3.841e-7
0.348, -8.999e-7, -5.161e-7, 3.838e-7
0.347, -9.036e-7, -5.200e-7, 3.835e-7
0.346, -9.048e-7, -5.191e-7, 3.857e-7
0.345, -9.060e-7, -5.210e-7, 3.851e-7
0.344, -9.072e-7, -5.231e-7, 3.841e-7
0.343, -9.072e-7, -5.222e-7, 3.851e-7
0.342, -9.072e-7, -5.228e-7, 3.844e-7
0.341, -9.097e-7, -5.246e-7, 3.851e-7
0.340, -9.115e-7, -5.268e-7, 3.848e-7
0.339, -9.139e-7, -5.283e-7, 3.857e-7
0.338, -9.152e-7, -5.301e-7, 3.851e-7
0.337, -9.182e-7, -5.304e-7, 3.878e-7
0.336, -9.182e-7, -5.313e-7, 3.869e-7
0.335, -9.182e-7, -5.310e-7, 3.872e-7
0.334, -9.216e-7, -5.335e-7, 3.881e-7
0.333, -9.231e-7, -5.335e-7, 3.896e-7
0.332, -9.246e-7, -5.359e-7, 3.887e-7
0.331, -9.271e-7, -5.362e-7, 3.909e-7
0.330, -9.262e-7, -5.362e-7, 3.899e-7
0.329, -9.277e-7, -5.374e-7, 3.902e-7
0.328, -9.298e-7, -5.393e-7, 3.906e-7
0.327, -9.307e-7, -5.411e-7, 3.896e-7
0.326, -9.332e-7, -5.423e-7, 3.909e-7
0.325, -9.344e-7, -5.426e-7, 3.918e-7
0.324, -9.338e-7, -5.438e-7, 3.899e-7
0.323, -9.393e-7, -5.454e-7, 3.939e-7
0.322, -9.387e-7, -5.457e-7, 3.930e-7
0.321, -9.396e-7, -5.457e-7, 3.939e-7
0.320, -9.405e-7, -5.490e-7, 3.915e-7
0.319, -9.445e-7, -5.506e-7, 3.939e-7
0.318, -9.432e-7, -5.496e-7, 3.936e-7
0.317, -9.475e-7, -5.527e-7, 3.948e-7
0.316, -9.497e-7, -5.542e-7, 3.954e-7
0.315, -9.500e-7, -5.548e-7, 3.951e-7
0.314, -9.521e-7, -5.564e-7, 3.957e-7
0.313, -9.524e-7, -5.564e-7, 3.960e-7
0.312, -9.533e-7, -5.570e-7, 3.963e-7
0.311, -9.558e-7, -5.594e-7, 3.963e-7
0.310, -9.582e-7, -5.594e-7, 3.988e-7
0.309, -9.588e-7, -5.603e-7, 3.985e-7
0.308, -9.603e-7, -5.628e-7, 3.976e-7
0.307, -9.619e-7, -5.631e-7, 3.988e-7
0.306, -9.625e-7, -5.640e-7, 3.985e-7
0.305, -9.643e-7, -5.664e-7, 3.979e-7
0.304, -9.670e-7, -5.667e-7, 4.003e-7
0.303, -9.680e-7, -5.676e-7, 4.003e-7
0.302, -9.698e-7, -5.692e-7, 4.006e-7
0.301, -9.731e-7, -5.710e-7, 4.021e-7
0.300, -9.741e-7, -5.707e-7, 4.034e-7
0.299, -9.750e-7, -5.731e-7, 4.018e-7
0.298, -9.765e-7, -5.728e-7, 4.037e-7
0.297, -9.771e-7, -5.744e-7, 4.028e-7
0.296, -9.802e-7, -5.765e-7, 4.037e-7
0.295, -9.826e-7, -5.783e-7, 4.043e-7
0.294, -9.826e-7, -5.771e-7, 4.055e-7
0.293, -9.841e-7, -5.799e-7, 4.043e-7
0.292, -9.866e-7, -5.808e-7, 4.058e-7
0.291, -9.887e-7, -5.823e-7, 4.064e-7
0.290, -9.893e-7, -5.838e-7, 4.055e-7
0.289, -9.927e-7, -5.850e-7, 4.076e-7
0.288, -9.951e-7, -5.850e-7, 4.101e-7
0.287, -9.970e-7, -5.884e-7, 4.086e-7
0.286, -9.970e-7, -5.875e-7, 4.095e-7
0.285, -1.000e-6, -5.905e-7, 4.095e-7
0.284, -1.002e-6, -5.911e-7, 4.113e-7
0.283, -1.002e-6, -5.905e-7, 4.116e-7
0.282, -1.004e-6, -5.924e-7, 4.113e-7
0.281, -1.005e-6, -5.942e-7, 4.113e-7
0.280, -1.006e-6, -5.942e-7, 4.116e-7
0.279, -1.010e-6, -5.966e-7, 4.134e-7
0.278, -1.012e-6, -5.972e-7, 4.144e-7
0.277, -1.014e-6, -5.985e-7, 4.156e-7
0.276, -1.013e-6, -5.979e-7, 4.147e-7
0.275, -1.016e-6, -6.003e-7, 4.156e-7
0.274, -1.019e-6, -6.018e-7, 4.168e-7
0.273, -1.016e-6, -6.009e-7, 4.156e-7
0.272, -1.021e-6, -6.043e-7, 4.168e-7
0.271, -1.021e-6, -6.049e-7, 4.165e-7
0.270, -1.025e-6, -6.058e-7, 4.189e-7
0.269, -1.024e-6, -6.058e-7, 4.186e-7
0.268, -1.027e-6, -6.076e-7, 4.192e-7
0.267, -1.028e-6, -6.082e-7, 4.202e-7
0.266, -1.032e-6, -6.116e-7, 4.202e-7
0.265, -1.032e-6, -6.113e-7, 4.208e-7
0.264, -1.034e-6, -6.128e-7, 4.208e-7
0.263, -1.038e-6, -6.140e-7, 4.238e-7
0.262, -1.037e-6, -6.134e-7, 4.235e-7
0.261, -1.039e-6, -6.149e-7, 4.238e-7
0.260, -1.041e-6, -6.168e-7, 4.241e-7
0.259, -1.042e-6, -6.168e-7, 4.247e-7
0.258, -1.044e-6, -6.186e-7, 4.250e-7
0.257, -1.045e-6, -6.201e-7, 4.250e-7
0.256, -1.047e-6, -6.195e-7, 4.272e-7
0.255, -1.050e-6, -6.223e-7, 4.278e-7
0.254, -1.051e-6, -6.232e-7, 4.278e-7
0.253, -1.052e-6, -6.235e-7, 4.290e-7
0.252, -1.053e-6, -6.247e-7, 4.287e-7
0.251, -1.056e-6, -6.265e-7, 4.299e-7
0.250, -1.060e-6, -6.272e-7, 4.324e-7
0.249, -1.060e-6, -6.284e-7, 4.317e-7
0.248, -1.062e-6, -6.290e-7, 4.333e-7
0.247, -1.063e-6, -6.299e-7, 4.333e-7
0.246, -1.064e-6, -6.311e-7, 4.327e-7
0.245, -1.067e-6, -6.326e-7, 4.339e-7
0.244, -1.065e-6, -6.311e-7, 4.339e-7
0.243, -1.070e-6, -6.348e-7, 4.351e-7
0.242, -1.070e-6, -6.351e-7, 4.354e-7
0.241, -1.072e-6, -6.351e-7, 4.366e-7
0.240, -1.074e-6, -6.369e-7, 4.369e-7
0.239, -1.075e-6, -6.366e-7, 4.382e-7
0.238, -1.078e-6, -6.378e-7, 4.397e-7
0.237, -1.078e-6, -6.394e-7, 4.388e-7
0.236, -1.082e-6, -6.406e-7, 4.415e-7
0.235, -1.082e-6, -6.394e-7, 4.424e-7
0.234, -1.083e-6, -6.412e-7, 4.415e-7
0.233, -1.084e-6, -6.421e-7, 4.415e-7
0.232, -1.085e-6, -6.424e-7, 4.421e-7
0.231, -1.087e-6, -6.439e-7, 4.430e-7
0.230, -1.088e-6, -6.458e-7, 4.427e-7
0.229, -1.090e-6, -6.449e-7, 4.449e-7
0.228, -1.091e-6, -6.467e-7, 4.446e-7
0.227, -1.095e-6, -6.485e-7, 4.467e-7
0.226, -1.094e-6, -6.473e-7, 4.467e-7
0.225, -1.095e-6, -6.479e-7, 4.473e-7
0.224, -1.098e-6, -6.503e-7, 4.479e-7
0.223, -1.098e-6, -6.494e-7, 4.482e-7
0.222, -1.100e-6, -6.503e-7, 4.494e-7
0.221, -1.102e-6, -6.519e-7, 4.504e-7
0.220, -1.103e-6, -6.516e-7, 4.510e-7
0.219, -1.104e-6, -6.522e-7, 4.516e-7
0.218, -1.105e-6, -6.534e-7, 4.519e-7
0.217, -1.107e-6, -6.543e-7, 4.531e-7
0.216, -1.108e-6, -6.540e-7, 4.543e-7
0.215, -1.108e-6, -6.555e-7, 4.528e-7
0.214, -1.110e-6, -6.543e-7, 4.555e-7
0.213, -1.110e-6, -6.558e-7, 4.546e-7
0.212, -1.113e-6, -6.571e-7, 4.555e-7
0.211, -1.116e-6, -6.571e-7, 4.586e-7
0.210, -1.114e-6, -6.568e-7, 4.568e-7
0.209, -1.117e-6, -6.586e-7, 4.586e-7
0.208, -1.116e-6, -6.574e-7, 4.583e-7
0.207, -1.118e-6, -6.583e-7, 4.601e-7
0.206, -1.121e-6, -6.610e-7, 4.598e-7
0.205, -1.121e-6, -6.598e-7, 4.613e-7
0.204, -1.120e-6, -6.592e-7, 4.607e-7
0.203, -1.125e-6, -6.619e-7, 4.626e-7
0.202, -1.124e-6, -6.613e-7, 4.629e-7
0.201, -1.125e-6, -6.619e-7, 4.626e-7
0.200, -1.128e-6, -6.629e-7, 4.650e-7
0.199, -1.127e-6, -6.616e-7, 4.653e-7
0.198, -1.128e-6, -6.632e-7, 4.647e-7
0.197, -1.130e-6, -6.644e-7, 4.656e-7
0.196, -1.130e-6, -6.629e-7, 4.674e-7
0.195, -1.131e-6, -6.638e-7, 4.668e-7
0.194, -1.133e-6, -6.653e-7, 4.674e-7
0.193, -1.132e-6, -6.635e-7, 4.681e-7
0.192, -1.134e-6, -6.656e-7, 4.681e-7
0.191, -1.134e-6, -6.656e-7, 4.687e-7
0.190, -1.137e-6, -6.665e-7, 4.702e-7
0.189, -1.135e-6, -6.659e-7, 4.687e-7
0.188, -1.138e-6, -6.656e-7, 4.720e-7
0.187, -1.137e-6, -6.659e-7, 4.714e-7
0.186, -1.137e-6, -6.662e-7, 4.711e-7
0.185, -1.139e-6, -6.656e-7, 4.729e-7
0.184, -1.140e-6, -6.662e-7, 4.739e-7
0.183, -1.142e-6, -6.674e-7, 4.748e-7
0.182, -1.141e-6, -6.659e-7, 4.751e-7
0.181, -1.142e-6, -6.671e-7, 4.751e-7
0.180, -1.141e-6, -6.662e-7, 4.745e-7
0.179, -1.144e-6, -6.677e-7, 4.760e-7
0.178, -1.144e-6, -6.668e-7, 4.772e-7
0.177, -1.145e-6, -6.677e-7, 4.769e-7
0.176, -1.145e-6, -6.674e-7, 4.778e-7
0.175, -1.146e-6, -6.677e-7, 4.781e-7
0.174, -1.146e-6, -6.665e-7, 4.790e-7
0.173, -1.146e-6, -6.671e-7, 4.790e-7
0.172, -1.145e-6, -6.671e-7, 4.778e-7
0.171, -1.146e-6, -6.668e-7, 4.790e-7
0.170, -1.147e-6, -6.671e-7, 4.800e-7
0.169, -1.146e-6, -6.656e-7, 4.803e-7
0.168, -1.149e-6, -6.680e-7, 4.809e-7
0.167, -1.149e-6, -6.674e-7, 4.815e-7
0.166, -1.149e-6, -6.662e-7, 4.827e-7
0.165, -1.148e-6, -6.656e-7, 4.824e-7
0.164, -1.148e-6, -6.662e-7, 4.821e-7
0.163, -1.152e-6, -6.674e-7, 4.845e-7
0.162, -1.152e-6, -6.677e-7, 4.842e-7
0.161, -1.150e-6, -6.656e-7, 4.842e-7
0.160, -1.150e-6, -6.650e-7, 4.845e-7
0.159, -1.150e-6, -6.656e-7, 4.848e-7
0.158, -1.153e-6, -6.665e-7, 4.864e-7
0.157, -1.152e-6, -6.650e-7, 4.867e-7
0.156, -1.151e-6, -6.650e-7, 4.864e-7
0.155, -1.152e-6, -6.650e-7, 4.870e-7
0.154, -1.150e-6, -6.622e-7, 4.873e-7
0.153, -1.150e-6, -6.635e-7, 4.864e-7
0.152, -1.152e-6, -6.644e-7, 4.876e-7
0.151, -1.151e-6, -6.616e-7, 4.891e-7
0.150, -1.151e-6, -6.632e-7, 4.876e-7
0.149, -1.151e-6, -6.629e-7, 4.882e-7
0.148, -1.149e-6, -6.598e-7, 4.891e-7
0.147, -1.149e-6, -6.616e-7, 4.876e-7
0.146, -1.151e-6, -6.610e-7, 4.897e-7
0.145, -1.150e-6, -6.604e-7, 4.894e-7
0.144, -1.150e-6, -6.598e-7, 4.906e-7
0.143, -1.150e-6, -6.598e-7, 4.906e-7
0.142, -1.150e-6, -6.592e-7, 4.906e-7
0.141, -1.149e-6, -6.586e-7, 4.903e-7
0.140, -1.150e-6, -6.595e-7, 4.906e-7
0.139, -1.150e-6, -6.580e-7, 4.916e-7
0.138, -1.150e-6, -6.580e-7, 4.922e-7
0.137, -1.150e-6, -6.580e-7, 4.922e-7
0.136, -1.150e-6, -6.577e-7, 4.922e-7
0.135, -1.149e-6, -6.564e-7, 4.925e-7
0.134, -1.148e-6, -6.558e-7, 4.922e-7
0.133, -1.147e-6, -6.546e-7, 4.922e-7
0.132, -1.145e-6, -6.534e-7, 4.919e-7
0.131, -1.146e-6, -6.537e-7, 4.928e-7
0.130, -1.145e-6, -6.525e-7, 4.922e-7
0.129, -1.145e-6, -6.519e-7, 4.931e-7
0.128, -1.146e-6, -6.522e-7, 4.934e-7
0.127, -1.143e-6, -6.513e-7, 4.919e-7
0.126, -1.144e-6, -6.510e-7, 4.928e-7
0.125, -1.141e-6, -6.491e-7, 4.922e-7
0.124, -1.141e-6, -6.491e-7, 4.919e-7
0.123, -1.143e-6, -6.497e-7, 4.928e-7
0.122, -1.140e-6, -6.476e-7, 4.928e-7
0.121, -1.139e-6, -6.470e-7, 4.922e-7
0.120, -1.142e-6, -6.488e-7, 4.928e-7
0.119, -1.138e-6, -6.458e-7, 4.925e-7
0.118, -1.137e-6, -6.442e-7, 4.928e-7
0.117, -1.139e-6, -6.452e-7, 4.934e-7
0.116, -1.138e-6, -6.449e-7, 4.934e-7
0.115, -1.136e-6, -6.439e-7, 4.922e-7
0.114, -1.135e-6, -6.439e-7, 4.909e-7
0.113, -1.136e-6, -6.436e-7, 4.925e-7
0.112, -1.135e-6, -6.418e-7, 4.937e-7
0.111, -1.131e-6, -6.406e-7, 4.903e-7
0.110, -1.132e-6, -6.394e-7, 4.922e-7
0.109, -1.132e-6, -6.384e-7, 4.931e-7
0.108, -1.130e-6, -6.387e-7, 4.913e-7
0.107, -1.132e-6, -6.391e-7, 4.928e-7
0.106, -1.129e-6, -6.369e-7, 4.925e-7
0.105, -1.129e-6, -6.366e-7, 4.928e-7
0.104, -1.128e-6, -6.360e-7, 4.925e-7
0.103, -1.127e-6, -6.345e-7, 4.925e-7
0.102, -1.124e-6, -6.336e-7, 4.906e-7
0.101, -1.124e-6, -6.326e-7, 4.916e-7
0.100, -1.122e-6, -6.317e-7, 4.906e-7
0.099, -1.120e-6, -6.317e-7, 4.885e-7
0.098, -1.123e-6, -6.317e-7, 4.913e-7
0.097, -1.120e-6, -6.290e-7, 4.906e-7
0.096, -1.120e-6, -6.308e-7, 4.894e-7
0.095, -1.119e-6, -6.287e-7, 4.900e-7
0.094, -1.115e-6, -6.268e-7, 4.885e-7
0.093, -1.115e-6, -6.275e-7, 4.879e-7
0.092, -1.116e-6, -6.262e-7, 4.897e-7
0.091, -1.112e-6, -6.235e-7, 4.885e-7
0.090, -1.111e-6, -6.256e-7, 4.858e-7
0.089, -1.113e-6, -6.238e-7, 4.891e-7
0.088, -1.110e-6, -6.214e-7, 4.882e-7
0.087, -1.109e-6, -6.226e-7, 4.867e-7
0.086, -1.111e-6, -6.223e-7, 4.888e-7
0.085, -1.108e-6, -6.204e-7, 4.873e-7
0.084, -1.106e-6, -6.201e-7, 4.858e-7
0.083, -1.105e-6, -6.189e-7, 4.864e-7
0.082, -1.102e-6, -6.174e-7, 4.845e-7
0.081, -1.102e-6, -6.162e-7, 4.855e-7
0.080, -1.101e-6, -6.168e-7, 4.845e-7
0.079, -1.101e-6, -6.153e-7, 4.855e-7
0.078, -1.098e-6, -6.143e-7, 4.836e-7
0.077, -1.098e-6, -6.140e-7, 4.836e-7
0.076, -1.096e-6, -6.131e-7, 4.827e-7
0.075, -1.095e-6, -6.131e-7, 4.821e-7
0.074, -1.094e-6, -6.113e-7, 4.824e-7
0.073, -1.093e-6, -6.104e-7, 4.827e-7
0.072, -1.092e-6, -6.113e-7, 4.803e-7
0.071, -1.091e-6, -6.085e-7, 4.821e-7
0.070, -1.088e-6, -6.073e-7, 4.806e-7
0.069, -1.088e-6, -6.082e-7, 4.793e-7
0.068, -1.086e-6, -6.070e-7, 4.793e-7
0.067, -1.083e-6, -6.052e-7, 4.781e-7
0.066, -1.083e-6, -6.049e-7, 4.784e-7
0.065, -1.085e-6, -6.058e-7, 4.790e-7
0.064, -1.080e-6, -6.024e-7, 4.772e-7
0.063, -1.079e-6, -6.024e-7, 4.766e-7
0.062, -1.079e-6, -6.018e-7, 4.769e-7
0.061, -1.079e-6, -6.018e-7, 4.772e-7
0.060, -1.076e-6, -6.006e-7, 4.751e-7
0.059, -1.078e-6, -6.009e-7, 4.766e-7
0.058, -1.075e-6, -6.000e-7, 4.748e-7
0.057, -1.072e-6, -5.982e-7, 4.739e-7
0.056, -1.072e-6, -5.985e-7, 4.736e-7
0.055, -1.071e-6, -5.963e-7, 4.745e-7
0.054, -1.071e-6, -5.976e-7, 4.736e-7
0.053, -1.068e-6, -5.945e-7, 4.739e-7
0.052, -1.067e-6, -5.954e-7, 4.717e-7
0.051, -1.064e-6, -5.939e-7, 4.702e-7
0.050, -1.067e-6, -5.951e-7, 4.720e-7
0.049, -1.062e-6, -5.921e-7, 4.699e-7
0.048, -1.060e-6, -5.936e-7, 4.668e-7
0.047, -1.061e-6, -5.911e-7, 4.696e-7
0.046, -1.059e-6, -5.911e-7, 4.678e-7
0.045, -1.057e-6, -5.911e-7, 4.662e-7
0.044, -1.056e-6, -5.878e-7, 4.684e-7
0.043, -1.055e-6, -5.893e-7, 4.653e-7
0.042, -1.053e-6, -5.890e-7, 4.638e-7
0.041, -1.052e-6, -5.878e-7, 4.638e-7
0.040, -1.051e-6, -5.866e-7, 4.647e-7
0.039, -1.050e-6, -5.863e-7, 4.638e-7
0.038, -1.050e-6, -5.857e-7, 4.647e-7
0.037, -1.050e-6, -5.850e-7, 4.647e-7
0.036, -1.046e-6, -5.838e-7, 4.620e-7
0.035, -1.046e-6, -5.841e-7, 4.620e-7
0.034, -1.048e-6, -5.850e-7, 4.626e-7
0.033, -1.044e-6, -5.838e-7, 4.604e-7
0.032, -1.044e-6, -5.832e-7, 4.607e-7
0.031, -1.042e-6, -5.805e-7, 4.620e-7
0.030, -1.040e-6, -5.814e-7, 4.589e-7
0.029, -1.039e-6, -5.808e-7, 4.586e-7
0.028, -1.038e-6, -5.795e-7, 4.580e-7
0.027, -1.036e-6, -5.808e-7, 4.555e-7
0.026, -1.035e-6, -5.786e-7, 4.565e-7
0.025, -1.033e-6, -5.780e-7, 4.549e-7
0.024, -1.033e-6, -5.777e-7, 4.552e-7
0.023, -1.033e-6, -5.771e-7, 4.562e-7
0.022, -1.030e-6, -5.753e-7, 4.543e-7
0.021, -1.030e-6, -5.771e-7, 4.525e-7
0.020, -1.034e-6, -5.780e-7, 4.555e-7
0.019, -1.027e-6, -5.756e-7, 4.516e-7
0.018, -1.026e-6, -5.750e-7, 4.513e-7
0.017, -1.027e-6, -5.741e-7, 4.525e-7
0.016, -1.024e-6, -5.725e-7, 4.510e-7
0.015, -1.021e-6, -5.731e-7, 4.479e-7
0.014, -1.023e-6, -5.719e-7, 4.510e-7
0.013, -1.023e-6, -5.725e-7, 4.501e-7
0.012, -1.021e-6, -5.731e-7, 4.476e-7
0.011, -1.021e-6, -5.716e-7, 4.494e-7
0.010, -1.019e-6, -5.704e-7, 4.482e-7
0.009, -1.016e-6, -5.701e-7, 4.464e-7
0.008, -1.021e-6, -5.722e-7, 4.485e-7
0.007, -1.015e-6, -5.698e-7, 4.452e-7
0.006, -1.016e-6, -5.701e-7, 4.458e-7
0.005, -1.014e-6, -5.683e-7, 4.461e-7
0.004, -1.013e-6, -5.676e-7, 4.458e-7
0.003, -1.013e-6, -5.698e-7, 4.433e-7
0.002, -1.013e-6, -5.676e-7, 4.449e-7
0.001, -1.010e-6, -5.664e-7, 4.433e-7
-0.000, -1.011e-6, -5.686e-7, 4.421e-7
-0.001, -1.010e-6, -5.676e-7, 4.424e-7
-0.002, -1.006e-6, -5.649e-7, 4.412e-7
-0.003, -1.007e-6, -5.673e-7, 4.397e-7
-0.004, -1.008e-6, -5.664e-7, 4.415e-7
-0.005, -1.003e-6, -5.646e-7, 4.388e-7
-0.006, -1.006e-6, -5.664e-7, 4.397e-7
-0.007, -1.007e-6, -5.658e-7, 4.409e-7
-0.008, -1.004e-6, -5.646e-7, 4.397e-7
-0.009, -1.003e-6, -5.664e-7, 4.363e-7
-0.010, -1.003e-6, -5.643e-7, 4.385e-7
-0.011, -9.997e-7, -5.631e-7, 4.366e-7
-0.012, -1.002e-6, -5.655e-7, 4.366e-7
-0.013, -1.005e-6, -5.655e-7, 4.391e-7
-0.014, -9.988e-7, -5.622e-7, 4.366e-7
-0.015, -1.000e-6, -5.640e-7, 4.363e-7
-0.016, -1.000e-6, -5.631e-7, 4.372e-7
-0.017, -9.973e-7, -5.625e-7, 4.348e-7
-0.018, -9.991e-7, -5.637e-7, 4.354e-7
-0.019, -9.970e-7, -5.615e-7, 4.354e-7
-0.020, -9.948e-7, -5.619e-7, 4.330e-7
-0.021, -9.936e-7, -5.622e-7, 4.314e-7
-0.022, -9.939e-7, -5.612e-7, 4.327e-7
-0.023, -9.939e-7, -5.625e-7, 4.314e-7
-0.024, -9.921e-7, -5.619e-7, 4.302e-7
-0.025, -9.918e-7, -5.603e-7, 4.314e-7
-0.026, -9.930e-7, -5.606e-7, 4.324e-7
-0.027, -9.915e-7, -5.625e-7, 4.290e-7
-0.028, -9.912e-7, -5.603e-7, 4.308e-7
-0.029, -9.890e-7, -5.597e-7, 4.293e-7
-0.030, -9.893e-7, -5.606e-7, 4.287e-7
-0.031, -9.905e-7, -5.606e-7, 4.299e-7
-0.032, -9.899e-7, -5.600e-7, 4.299e-7
-0.033, -9.872e-7, -5.594e-7, 4.278e-7
-0.034, -9.863e-7, -5.582e-7, 4.281e-7
-0.035, -9.860e-7, -5.576e-7, 4.284e-7
-0.036, -9.875e-7, -5.600e-7, 4.275e-7
-0.037, -9.881e-7, -5.591e-7, 4.290e-7
-0.038, -9.854e-7, -5.576e-7, 4.278e-7
-0.039, -9.857e-7, -5.603e-7, 4.253e-7
-0.040, -9.866e-7, -5.591e-7, 4.275e-7
-0.041, -9.823e-7, -5.576e-7, 4.247e-7
-0.042, -9.832e-7, -5.582e-7, 4.250e-7
-0.043, -9.823e-7, -5.573e-7, 4.250e-7
-0.044, -9.805e-7, -5.573e-7, 4.232e-7
-0.045, -9.847e-7, -5.600e-7, 4.247e-7
-0.046, -9.838e-7, -5.579e-7, 4.259e-7
-0.047, -9.796e-7, -5.564e-7, 4.232e-7
-0.048, -9.811e-7, -5.585e-7, 4.226e-7
-0.049, -9.805e-7, -5.561e-7, 4.244e-7
-0.050, -9.783e-7, -5.561e-7, 4.223e-7
