Feb. 28, 2018   11:35:51
Square Wave Voltammetry
File: c:\users\electrochemist\desktop\2018\28022018_unbuffered_9,2\15_e5_9,2_0118_ph5,55_5.txt
Data Source:  Experiment
Instrument Model:  CHI1040A
Header: 
Note: 

Init E (V) = 0.5
Final E (V) = -0.05
Incr E (V) = 0.001
Amplitude (V) = 0.1
Frequency (Hz) = 150
Quiet Time (sec) = 0
Sensitivity (A/V) = 1e-6

Difference:

Forward:

Reverse:

Potential/V, Diff(i/A), For(i/A), Rev(i/A)

0.499, -7.302e-7, -1.743e-7, 5.559e-7
0.498, -8.865e-7, -4.022e-7, 4.842e-7
0.497, -8.795e-7, -4.148e-7, 4.647e-7
0.496, -8.691e-7, -4.206e-7, 4.485e-7
0.495, -8.648e-7, -4.248e-7, 4.400e-7
0.494, -8.593e-7, -4.270e-7, 4.324e-7
0.493, -8.557e-7, -4.285e-7, 4.272e-7
0.492, -8.505e-7, -4.297e-7, 4.208e-7
0.491, -8.462e-7, -4.297e-7, 4.165e-7
0.490, -8.438e-7, -4.300e-7, 4.137e-7
0.489, -8.444e-7, -4.328e-7, 4.116e-7
0.488, -8.392e-7, -4.322e-7, 4.070e-7
0.487, -8.377e-7, -4.322e-7, 4.055e-7
0.486, -8.374e-7, -4.331e-7, 4.043e-7
0.485, -8.331e-7, -4.315e-7, 4.015e-7
0.484, -8.313e-7, -4.318e-7, 3.994e-7
0.483, -8.297e-7, -4.322e-7, 3.976e-7
0.482, -8.294e-7, -4.337e-7, 3.957e-7
0.481, -8.285e-7, -4.337e-7, 3.948e-7
0.480, -8.248e-7, -4.340e-7, 3.909e-7
0.479, -8.264e-7, -4.364e-7, 3.899e-7
0.478, -8.294e-7, -4.352e-7, 3.942e-7
0.477, -8.245e-7, -4.355e-7, 3.890e-7
0.476, -8.251e-7, -4.349e-7, 3.902e-7
0.475, -8.233e-7, -4.364e-7, 3.869e-7
0.474, -8.236e-7, -4.358e-7, 3.878e-7
0.473, -8.230e-7, -4.373e-7, 3.857e-7
0.472, -8.218e-7, -4.361e-7, 3.857e-7
0.471, -8.215e-7, -4.358e-7, 3.857e-7
0.470, -8.200e-7, -4.358e-7, 3.841e-7
0.469, -8.193e-7, -4.373e-7, 3.820e-7
0.468, -8.184e-7, -4.361e-7, 3.823e-7
0.467, -8.212e-7, -4.389e-7, 3.823e-7
0.466, -8.200e-7, -4.386e-7, 3.814e-7
0.465, -8.187e-7, -4.395e-7, 3.793e-7
0.464, -8.181e-7, -4.398e-7, 3.783e-7
0.463, -8.193e-7, -4.392e-7, 3.802e-7
0.462, -8.197e-7, -4.401e-7, 3.796e-7
0.461, -8.190e-7, -4.401e-7, 3.790e-7
0.460, -8.184e-7, -4.398e-7, 3.787e-7
0.459, -8.209e-7, -4.422e-7, 3.787e-7
0.458, -8.200e-7, -4.428e-7, 3.771e-7
0.457, -8.190e-7, -4.422e-7, 3.768e-7
0.456, -8.175e-7, -4.419e-7, 3.756e-7
0.455, -8.197e-7, -4.450e-7, 3.747e-7
0.454, -8.184e-7, -4.425e-7, 3.759e-7
0.453, -8.203e-7, -4.441e-7, 3.762e-7
0.452, -8.197e-7, -4.450e-7, 3.747e-7
0.451, -8.230e-7, -4.459e-7, 3.771e-7
0.450, -8.203e-7, -4.453e-7, 3.750e-7
0.449, -8.218e-7, -4.453e-7, 3.765e-7
0.448, -8.224e-7, -4.462e-7, 3.762e-7
0.447, -8.230e-7, -4.459e-7, 3.771e-7
0.446, -8.221e-7, -4.483e-7, 3.738e-7
0.445, -8.200e-7, -4.459e-7, 3.741e-7
0.444, -8.230e-7, -4.489e-7, 3.741e-7
0.443, -8.224e-7, -4.480e-7, 3.744e-7
0.442, -8.242e-7, -4.499e-7, 3.744e-7
0.441, -8.236e-7, -4.492e-7, 3.744e-7
0.440, -8.251e-7, -4.499e-7, 3.753e-7
0.439, -8.224e-7, -4.502e-7, 3.722e-7
0.438, -8.255e-7, -4.526e-7, 3.729e-7
0.437, -8.215e-7, -4.502e-7, 3.713e-7
0.436, -8.273e-7, -4.529e-7, 3.744e-7
0.435, -8.239e-7, -4.520e-7, 3.719e-7
0.434, -8.264e-7, -4.532e-7, 3.732e-7
0.433, -8.267e-7, -4.535e-7, 3.732e-7
0.432, -8.261e-7, -4.547e-7, 3.713e-7
0.431, -8.276e-7, -4.547e-7, 3.729e-7
0.430, -8.267e-7, -4.547e-7, 3.719e-7
0.429, -8.270e-7, -4.544e-7, 3.725e-7
0.428, -8.309e-7, -4.569e-7, 3.741e-7
0.427, -8.309e-7, -4.575e-7, 3.735e-7
0.426, -8.285e-7, -4.572e-7, 3.713e-7
0.425, -8.273e-7, -4.575e-7, 3.698e-7
0.424, -8.316e-7, -4.590e-7, 3.725e-7
0.423, -8.306e-7, -4.587e-7, 3.719e-7
0.422, -8.337e-7, -4.608e-7, 3.729e-7
0.421, -8.337e-7, -4.614e-7, 3.722e-7
0.420, -8.340e-7, -4.608e-7, 3.732e-7
0.419, -8.346e-7, -4.624e-7, 3.722e-7
0.418, -8.334e-7, -4.621e-7, 3.713e-7
0.417, -8.367e-7, -4.639e-7, 3.729e-7
0.416, -8.358e-7, -4.627e-7, 3.732e-7
0.415, -8.374e-7, -4.651e-7, 3.722e-7
0.414, -8.367e-7, -4.651e-7, 3.716e-7
0.413, -8.398e-7, -4.663e-7, 3.735e-7
0.412, -8.386e-7, -4.663e-7, 3.722e-7
0.411, -8.383e-7, -4.679e-7, 3.704e-7
0.410, -8.398e-7, -4.679e-7, 3.719e-7
0.409, -8.401e-7, -4.679e-7, 3.722e-7
0.408, -8.462e-7, -4.724e-7, 3.738e-7
0.407, -8.419e-7, -4.685e-7, 3.735e-7
0.406, -8.444e-7, -4.712e-7, 3.732e-7
0.405, -8.450e-7, -4.718e-7, 3.732e-7
0.404, -8.435e-7, -4.709e-7, 3.725e-7
0.403, -8.474e-7, -4.718e-7, 3.756e-7
0.402, -8.486e-7, -4.740e-7, 3.747e-7
0.401, -8.477e-7, -4.737e-7, 3.741e-7
0.400, -8.444e-7, -4.727e-7, 3.716e-7
0.399, -8.496e-7, -4.758e-7, 3.738e-7
0.398, -8.511e-7, -4.764e-7, 3.747e-7
0.397, -8.477e-7, -4.755e-7, 3.722e-7
0.396, -8.529e-7, -4.785e-7, 3.744e-7
0.395, -8.535e-7, -4.776e-7, 3.759e-7
0.394, -8.517e-7, -4.785e-7, 3.732e-7
0.393, -8.544e-7, -4.804e-7, 3.741e-7
0.392, -8.551e-7, -4.813e-7, 3.738e-7
0.391, -8.569e-7, -4.819e-7, 3.750e-7
0.390, -8.572e-7, -4.828e-7, 3.744e-7
0.389, -8.569e-7, -4.816e-7, 3.753e-7
0.388, -8.596e-7, -4.840e-7, 3.756e-7
0.387, -8.593e-7, -4.837e-7, 3.756e-7
0.386, -8.618e-7, -4.849e-7, 3.768e-7
0.385, -8.621e-7, -4.865e-7, 3.756e-7
0.384, -8.627e-7, -4.865e-7, 3.762e-7
0.383, -8.633e-7, -4.871e-7, 3.762e-7
0.382, -8.670e-7, -4.895e-7, 3.774e-7
0.381, -8.666e-7, -4.911e-7, 3.756e-7
0.380, -8.691e-7, -4.923e-7, 3.768e-7
0.379, -8.670e-7, -4.911e-7, 3.759e-7
0.378, -8.679e-7, -4.929e-7, 3.750e-7
0.377, -8.712e-7, -4.929e-7, 3.783e-7
0.376, -8.715e-7, -4.923e-7, 3.793e-7
0.375, -8.712e-7, -4.938e-7, 3.774e-7
0.374, -8.758e-7, -4.968e-7, 3.790e-7
0.373, -8.761e-7, -4.972e-7, 3.790e-7
0.372, -8.758e-7, -4.975e-7, 3.783e-7
0.371, -8.773e-7, -4.978e-7, 3.796e-7
0.370, -8.764e-7, -4.984e-7, 3.780e-7
0.369, -8.807e-7, -5.008e-7, 3.799e-7
0.368, -8.819e-7, -5.014e-7, 3.805e-7
0.367, -8.795e-7, -5.011e-7, 3.783e-7
0.366, -8.828e-7, -5.033e-7, 3.796e-7
0.365, -8.850e-7, -5.042e-7, 3.808e-7
0.364, -8.840e-7, -5.042e-7, 3.799e-7
0.363, -8.877e-7, -5.063e-7, 3.814e-7
0.362, -8.892e-7, -5.078e-7, 3.814e-7
0.361, -8.874e-7, -5.066e-7, 3.808e-7
0.360, -8.883e-7, -5.081e-7, 3.802e-7
0.359, -8.929e-7, -5.106e-7, 3.823e-7
0.358, -8.889e-7, -5.091e-7, 3.799e-7
0.357, -8.911e-7, -5.103e-7, 3.808e-7
0.356, -8.978e-7, -5.121e-7, 3.857e-7
0.355, -8.990e-7, -5.158e-7, 3.832e-7
0.354, -8.962e-7, -5.155e-7, 3.808e-7
0.353, -8.990e-7, -5.155e-7, 3.835e-7
0.352, -8.993e-7, -5.167e-7, 3.826e-7
0.351, -9.017e-7, -5.191e-7, 3.826e-7
0.350, -9.027e-7, -5.173e-7, 3.854e-7
0.349, -9.036e-7, -5.207e-7, 3.829e-7
0.348, -9.060e-7, -5.228e-7, 3.832e-7
0.347, -9.094e-7, -5.225e-7, 3.869e-7
0.346, -9.078e-7, -5.225e-7, 3.854e-7
0.345, -9.100e-7, -5.240e-7, 3.860e-7
0.344, -9.100e-7, -5.249e-7, 3.851e-7
0.343, -9.112e-7, -5.255e-7, 3.857e-7
0.342, -9.139e-7, -5.258e-7, 3.881e-7
0.341, -9.158e-7, -5.283e-7, 3.875e-7
0.340, -9.136e-7, -5.280e-7, 3.857e-7
0.339, -9.161e-7, -5.295e-7, 3.866e-7
0.338, -9.197e-7, -5.298e-7, 3.899e-7
0.337, -9.176e-7, -5.310e-7, 3.866e-7
0.336, -9.201e-7, -5.319e-7, 3.881e-7
0.335, -9.246e-7, -5.344e-7, 3.902e-7
0.334, -9.246e-7, -5.356e-7, 3.890e-7
0.333, -9.295e-7, -5.384e-7, 3.912e-7
0.332, -9.280e-7, -5.371e-7, 3.909e-7
0.331, -9.292e-7, -5.380e-7, 3.912e-7
0.330, -9.316e-7, -5.402e-7, 3.915e-7
0.329, -9.338e-7, -5.408e-7, 3.930e-7
0.328, -9.335e-7, -5.417e-7, 3.918e-7
0.327, -9.365e-7, -5.441e-7, 3.924e-7
0.326, -9.384e-7, -5.451e-7, 3.933e-7
0.325, -9.384e-7, -5.457e-7, 3.927e-7
0.324, -9.417e-7, -5.466e-7, 3.951e-7
0.323, -9.420e-7, -5.475e-7, 3.945e-7
0.322, -9.439e-7, -5.493e-7, 3.945e-7
0.321, -9.432e-7, -5.496e-7, 3.936e-7
0.320, -9.457e-7, -5.496e-7, 3.960e-7
0.319, -9.472e-7, -5.524e-7, 3.948e-7
0.318, -9.490e-7, -5.536e-7, 3.954e-7
0.317, -9.497e-7, -5.530e-7, 3.967e-7
0.316, -9.512e-7, -5.545e-7, 3.967e-7
0.315, -9.545e-7, -5.582e-7, 3.963e-7
0.314, -9.582e-7, -5.582e-7, 4.000e-7
0.313, -9.561e-7, -5.591e-7, 3.970e-7
0.312, -9.585e-7, -5.606e-7, 3.979e-7
0.311, -9.597e-7, -5.600e-7, 3.997e-7
0.310, -9.612e-7, -5.625e-7, 3.988e-7
0.309, -9.631e-7, -5.637e-7, 3.994e-7
0.308, -9.664e-7, -5.655e-7, 4.009e-7
0.307, -9.680e-7, -5.661e-7, 4.018e-7
0.306, -9.667e-7, -5.661e-7, 4.006e-7
0.305, -9.686e-7, -5.676e-7, 4.009e-7
0.304, -9.716e-7, -5.695e-7, 4.021e-7
0.303, -9.753e-7, -5.728e-7, 4.025e-7
0.302, -9.756e-7, -5.716e-7, 4.040e-7
0.301, -9.777e-7, -5.734e-7, 4.043e-7
0.300, -9.796e-7, -5.750e-7, 4.046e-7
0.299, -9.820e-7, -5.759e-7, 4.061e-7
0.298, -9.783e-7, -5.747e-7, 4.037e-7
0.297, -9.835e-7, -5.780e-7, 4.055e-7
0.296, -9.878e-7, -5.795e-7, 4.082e-7
0.295, -9.857e-7, -5.799e-7, 4.058e-7
0.294, -9.887e-7, -5.823e-7, 4.064e-7
0.293, -9.866e-7, -5.792e-7, 4.073e-7
0.292, -9.918e-7, -5.838e-7, 4.079e-7
0.291, -9.942e-7, -5.853e-7, 4.089e-7
0.290, -9.945e-7, -5.844e-7, 4.101e-7
0.289, -9.963e-7, -5.884e-7, 4.079e-7
0.288, -9.976e-7, -5.881e-7, 4.095e-7
0.287, -1.002e-6, -5.890e-7, 4.131e-7
0.286, -1.002e-6, -5.921e-7, 4.104e-7
0.285, -1.005e-6, -5.918e-7, 4.128e-7
0.284, -1.006e-6, -5.930e-7, 4.131e-7
0.283, -1.009e-6, -5.933e-7, 4.156e-7
0.282, -1.010e-6, -5.945e-7, 4.159e-7
0.281, -1.008e-6, -5.939e-7, 4.137e-7
0.280, -1.010e-6, -5.963e-7, 4.134e-7
0.279, -1.013e-6, -5.988e-7, 4.137e-7
0.278, -1.016e-6, -6.000e-7, 4.159e-7
0.277, -1.018e-6, -6.009e-7, 4.168e-7
0.276, -1.018e-6, -6.024e-7, 4.159e-7
0.275, -1.020e-6, -6.030e-7, 4.174e-7
0.274, -1.023e-6, -6.043e-7, 4.186e-7
0.273, -1.026e-6, -6.079e-7, 4.177e-7
0.272, -1.022e-6, -6.030e-7, 4.192e-7
0.271, -1.024e-6, -6.058e-7, 4.186e-7
0.270, -1.032e-6, -6.113e-7, 4.208e-7
0.269, -1.031e-6, -6.095e-7, 4.220e-7
0.268, -1.029e-6, -6.085e-7, 4.205e-7
0.267, -1.034e-6, -6.113e-7, 4.229e-7
0.266, -1.034e-6, -6.113e-7, 4.232e-7
0.265, -1.036e-6, -6.137e-7, 4.223e-7
0.264, -1.038e-6, -6.140e-7, 4.238e-7
0.263, -1.040e-6, -6.153e-7, 4.250e-7
0.262, -1.042e-6, -6.177e-7, 4.244e-7
0.261, -1.046e-6, -6.195e-7, 4.263e-7
0.260, -1.046e-6, -6.183e-7, 4.278e-7
0.259, -1.046e-6, -6.198e-7, 4.266e-7
0.258, -1.046e-6, -6.207e-7, 4.250e-7
0.257, -1.052e-6, -6.220e-7, 4.305e-7
0.256, -1.051e-6, -6.223e-7, 4.284e-7
0.255, -1.050e-6, -6.235e-7, 4.263e-7
0.254, -1.054e-6, -6.238e-7, 4.299e-7
0.253, -1.056e-6, -6.256e-7, 4.299e-7
0.252, -1.058e-6, -6.275e-7, 4.308e-7
0.251, -1.059e-6, -6.290e-7, 4.302e-7
0.250, -1.062e-6, -6.302e-7, 4.321e-7
0.249, -1.063e-6, -6.299e-7, 4.330e-7
0.248, -1.066e-6, -6.305e-7, 4.351e-7
0.247, -1.067e-6, -6.333e-7, 4.339e-7
0.246, -1.070e-6, -6.342e-7, 4.357e-7
0.245, -1.071e-6, -6.345e-7, 4.369e-7
0.244, -1.073e-6, -6.363e-7, 4.363e-7
0.243, -1.074e-6, -6.366e-7, 4.369e-7
0.242, -1.074e-6, -6.357e-7, 4.378e-7
0.241, -1.076e-6, -6.375e-7, 4.388e-7
0.240, -1.077e-6, -6.363e-7, 4.406e-7
0.239, -1.077e-6, -6.378e-7, 4.394e-7
0.238, -1.081e-6, -6.409e-7, 4.400e-7
0.237, -1.083e-6, -6.433e-7, 4.397e-7
0.236, -1.085e-6, -6.421e-7, 4.427e-7
0.235, -1.084e-6, -6.424e-7, 4.412e-7
0.234, -1.085e-6, -6.445e-7, 4.409e-7
0.233, -1.090e-6, -6.455e-7, 4.443e-7
0.232, -1.091e-6, -6.467e-7, 4.446e-7
0.231, -1.091e-6, -6.467e-7, 4.440e-7
0.230, -1.092e-6, -6.470e-7, 4.452e-7
0.229, -1.093e-6, -6.470e-7, 4.458e-7
0.228, -1.094e-6, -6.470e-7, 4.470e-7
0.227, -1.094e-6, -6.473e-7, 4.470e-7
0.226, -1.098e-6, -6.497e-7, 4.482e-7
0.225, -1.102e-6, -6.513e-7, 4.507e-7
0.224, -1.101e-6, -6.503e-7, 4.507e-7
0.223, -1.104e-6, -6.531e-7, 4.507e-7
0.222, -1.107e-6, -6.537e-7, 4.528e-7
0.221, -1.105e-6, -6.534e-7, 4.513e-7
0.220, -1.107e-6, -6.540e-7, 4.525e-7
0.219, -1.108e-6, -6.543e-7, 4.534e-7
0.218, -1.108e-6, -6.531e-7, 4.549e-7
0.217, -1.113e-6, -6.568e-7, 4.559e-7
0.216, -1.110e-6, -6.558e-7, 4.543e-7
0.215, -1.114e-6, -6.574e-7, 4.565e-7
0.214, -1.115e-6, -6.589e-7, 4.559e-7
0.213, -1.117e-6, -6.589e-7, 4.586e-7
0.212, -1.117e-6, -6.598e-7, 4.571e-7
0.211, -1.120e-6, -6.607e-7, 4.589e-7
0.210, -1.116e-6, -6.595e-7, 4.565e-7
0.209, -1.119e-6, -6.589e-7, 4.598e-7
0.208, -1.120e-6, -6.595e-7, 4.601e-7
0.207, -1.123e-6, -6.607e-7, 4.623e-7
0.206, -1.123e-6, -6.604e-7, 4.626e-7
0.205, -1.124e-6, -6.622e-7, 4.620e-7
0.204, -1.125e-6, -6.629e-7, 4.626e-7
0.203, -1.125e-6, -6.635e-7, 4.620e-7
0.202, -1.128e-6, -6.635e-7, 4.647e-7
0.201, -1.130e-6, -6.641e-7, 4.659e-7
0.200, -1.129e-6, -6.641e-7, 4.653e-7
0.199, -1.130e-6, -6.635e-7, 4.665e-7
0.198, -1.132e-6, -6.650e-7, 4.671e-7
0.197, -1.132e-6, -6.653e-7, 4.668e-7
0.196, -1.133e-6, -6.659e-7, 4.671e-7
0.195, -1.134e-6, -6.653e-7, 4.684e-7
0.194, -1.137e-6, -6.656e-7, 4.717e-7
0.193, -1.136e-6, -6.656e-7, 4.702e-7
0.192, -1.137e-6, -6.668e-7, 4.705e-7
0.191, -1.138e-6, -6.659e-7, 4.723e-7
0.190, -1.140e-6, -6.687e-7, 4.711e-7
0.189, -1.141e-6, -6.687e-7, 4.723e-7
0.188, -1.140e-6, -6.671e-7, 4.732e-7
0.187, -1.141e-6, -6.674e-7, 4.739e-7
0.186, -1.142e-6, -6.683e-7, 4.736e-7
0.185, -1.144e-6, -6.680e-7, 4.760e-7
0.184, -1.144e-6, -6.687e-7, 4.754e-7
0.183, -1.144e-6, -6.683e-7, 4.760e-7
0.182, -1.144e-6, -6.674e-7, 4.769e-7
0.181, -1.145e-6, -6.693e-7, 4.760e-7
0.180, -1.146e-6, -6.693e-7, 4.769e-7
0.179, -1.146e-6, -6.674e-7, 4.784e-7
0.178, -1.147e-6, -6.687e-7, 4.781e-7
0.177, -1.147e-6, -6.690e-7, 4.781e-7
0.176, -1.150e-6, -6.683e-7, 4.815e-7
0.175, -1.148e-6, -6.687e-7, 4.790e-7
0.174, -1.151e-6, -6.705e-7, 4.806e-7
0.173, -1.150e-6, -6.690e-7, 4.809e-7
0.172, -1.153e-6, -6.705e-7, 4.821e-7
0.171, -1.150e-6, -6.693e-7, 4.809e-7
0.170, -1.153e-6, -6.699e-7, 4.836e-7
0.169, -1.151e-6, -6.683e-7, 4.827e-7
0.168, -1.152e-6, -6.683e-7, 4.836e-7
0.167, -1.153e-6, -6.680e-7, 4.845e-7
0.166, -1.150e-6, -6.674e-7, 4.827e-7
0.165, -1.153e-6, -6.683e-7, 4.842e-7
0.164, -1.155e-6, -6.690e-7, 4.864e-7
0.163, -1.152e-6, -6.665e-7, 4.855e-7
0.162, -1.155e-6, -6.690e-7, 4.861e-7
0.161, -1.153e-6, -6.659e-7, 4.867e-7
0.160, -1.155e-6, -6.671e-7, 4.876e-7
0.159, -1.153e-6, -6.662e-7, 4.867e-7
0.158, -1.154e-6, -6.662e-7, 4.882e-7
0.157, -1.154e-6, -6.671e-7, 4.870e-7
0.156, -1.156e-6, -6.665e-7, 4.894e-7
0.155, -1.153e-6, -6.644e-7, 4.882e-7
0.154, -1.154e-6, -6.668e-7, 4.876e-7
0.153, -1.153e-6, -6.644e-7, 4.885e-7
0.152, -1.153e-6, -6.638e-7, 4.894e-7
0.151, -1.153e-6, -6.632e-7, 4.903e-7
0.150, -1.153e-6, -6.635e-7, 4.900e-7
0.149, -1.154e-6, -6.626e-7, 4.919e-7
0.148, -1.153e-6, -6.629e-7, 4.897e-7
0.147, -1.155e-6, -6.629e-7, 4.919e-7
0.146, -1.154e-6, -6.629e-7, 4.909e-7
0.145, -1.152e-6, -6.610e-7, 4.913e-7
0.144, -1.153e-6, -6.613e-7, 4.922e-7
0.143, -1.153e-6, -6.610e-7, 4.916e-7
0.142, -1.153e-6, -6.613e-7, 4.916e-7
0.141, -1.152e-6, -6.607e-7, 4.913e-7
0.140, -1.153e-6, -6.601e-7, 4.925e-7
0.139, -1.151e-6, -6.589e-7, 4.919e-7
0.138, -1.152e-6, -6.589e-7, 4.928e-7
0.137, -1.152e-6, -6.589e-7, 4.931e-7
0.136, -1.150e-6, -6.574e-7, 4.928e-7
0.135, -1.151e-6, -6.574e-7, 4.940e-7
0.134, -1.150e-6, -6.568e-7, 4.934e-7
0.133, -1.149e-6, -6.555e-7, 4.937e-7
0.132, -1.150e-6, -6.561e-7, 4.937e-7
0.131, -1.148e-6, -6.540e-7, 4.943e-7
0.130, -1.147e-6, -6.531e-7, 4.940e-7
0.129, -1.148e-6, -6.540e-7, 4.940e-7
0.128, -1.146e-6, -6.537e-7, 4.922e-7
0.127, -1.148e-6, -6.531e-7, 4.952e-7
0.126, -1.146e-6, -6.519e-7, 4.937e-7
0.125, -1.146e-6, -6.516e-7, 4.943e-7
0.124, -1.144e-6, -6.507e-7, 4.937e-7
0.123, -1.143e-6, -6.488e-7, 4.943e-7
0.122, -1.144e-6, -6.485e-7, 4.952e-7
0.121, -1.142e-6, -6.488e-7, 4.931e-7
0.120, -1.142e-6, -6.485e-7, 4.934e-7
0.119, -1.141e-6, -6.464e-7, 4.946e-7
0.118, -1.143e-6, -6.473e-7, 4.952e-7
0.117, -1.140e-6, -6.455e-7, 4.946e-7
0.116, -1.139e-6, -6.442e-7, 4.946e-7
0.115, -1.136e-6, -6.442e-7, 4.922e-7
0.114, -1.138e-6, -6.427e-7, 4.952e-7
0.113, -1.137e-6, -6.436e-7, 4.934e-7
0.112, -1.138e-6, -6.433e-7, 4.946e-7
0.111, -1.136e-6, -6.418e-7, 4.946e-7
0.110, -1.134e-6, -6.412e-7, 4.928e-7
0.109, -1.134e-6, -6.409e-7, 4.934e-7
0.108, -1.132e-6, -6.381e-7, 4.940e-7
0.107, -1.130e-6, -6.372e-7, 4.931e-7
0.106, -1.132e-6, -6.391e-7, 4.928e-7
0.105, -1.131e-6, -6.372e-7, 4.940e-7
0.104, -1.131e-6, -6.363e-7, 4.943e-7
0.103, -1.126e-6, -6.351e-7, 4.909e-7
0.102, -1.126e-6, -6.342e-7, 4.922e-7
0.101, -1.125e-6, -6.342e-7, 4.913e-7
0.100, -1.123e-6, -6.320e-7, 4.913e-7
0.099, -1.123e-6, -6.323e-7, 4.903e-7
0.098, -1.123e-6, -6.308e-7, 4.922e-7
0.097, -1.124e-6, -6.326e-7, 4.913e-7
0.096, -1.121e-6, -6.302e-7, 4.913e-7
0.095, -1.120e-6, -6.287e-7, 4.909e-7
0.094, -1.119e-6, -6.281e-7, 4.909e-7
0.093, -1.119e-6, -6.278e-7, 4.909e-7
0.092, -1.115e-6, -6.256e-7, 4.891e-7
0.091, -1.114e-6, -6.265e-7, 4.876e-7
0.090, -1.115e-6, -6.259e-7, 4.891e-7
0.089, -1.113e-6, -6.241e-7, 4.888e-7
0.088, -1.111e-6, -6.232e-7, 4.882e-7
0.087, -1.109e-6, -6.220e-7, 4.867e-7
0.086, -1.110e-6, -6.214e-7, 4.885e-7
0.085, -1.107e-6, -6.207e-7, 4.864e-7
0.084, -1.109e-6, -6.201e-7, 4.888e-7
0.083, -1.107e-6, -6.189e-7, 4.879e-7
0.082, -1.107e-6, -6.195e-7, 4.870e-7
0.081, -1.104e-6, -6.177e-7, 4.867e-7
0.080, -1.102e-6, -6.165e-7, 4.855e-7
0.079, -1.102e-6, -6.165e-7, 4.851e-7
0.078, -1.099e-6, -6.159e-7, 4.833e-7
0.077, -1.096e-6, -6.122e-7, 4.833e-7
0.076, -1.096e-6, -6.131e-7, 4.827e-7
0.075, -1.097e-6, -6.128e-7, 4.842e-7
0.074, -1.095e-6, -6.113e-7, 4.836e-7
0.073, -1.095e-6, -6.125e-7, 4.824e-7
0.072, -1.093e-6, -6.101e-7, 4.827e-7
0.071, -1.091e-6, -6.091e-7, 4.818e-7
0.070, -1.089e-6, -6.085e-7, 4.803e-7
0.069, -1.090e-6, -6.088e-7, 4.809e-7
0.068, -1.088e-6, -6.073e-7, 4.806e-7
0.067, -1.088e-6, -6.067e-7, 4.815e-7
0.066, -1.086e-6, -6.067e-7, 4.790e-7
0.065, -1.083e-6, -6.043e-7, 4.787e-7
0.064, -1.082e-6, -6.049e-7, 4.769e-7
0.063, -1.083e-6, -6.040e-7, 4.787e-7
0.062, -1.081e-6, -6.030e-7, 4.775e-7
0.061, -1.078e-6, -6.024e-7, 4.757e-7
0.060, -1.078e-6, -6.006e-7, 4.772e-7
0.059, -1.074e-6, -6.000e-7, 4.745e-7
0.058, -1.073e-6, -5.988e-7, 4.745e-7
0.057, -1.073e-6, -5.982e-7, 4.751e-7
0.056, -1.072e-6, -5.979e-7, 4.742e-7
0.055, -1.070e-6, -5.972e-7, 4.732e-7
0.054, -1.070e-6, -5.966e-7, 4.736e-7
0.053, -1.069e-6, -5.954e-7, 4.732e-7
0.052, -1.067e-6, -5.948e-7, 4.720e-7
0.051, -1.067e-6, -5.948e-7, 4.717e-7
0.050, -1.065e-6, -5.933e-7, 4.717e-7
0.049, -1.063e-6, -5.939e-7, 4.696e-7
0.048, -1.064e-6, -5.933e-7, 4.711e-7
0.047, -1.062e-6, -5.911e-7, 4.705e-7
0.046, -1.060e-6, -5.915e-7, 4.690e-7
0.045, -1.059e-6, -5.905e-7, 4.687e-7
0.044, -1.058e-6, -5.890e-7, 4.690e-7
0.043, -1.056e-6, -5.890e-7, 4.668e-7
0.042, -1.056e-6, -5.884e-7, 4.681e-7
0.041, -1.053e-6, -5.875e-7, 4.656e-7
0.040, -1.052e-6, -5.875e-7, 4.647e-7
0.039, -1.050e-6, -5.853e-7, 4.647e-7
0.038, -1.052e-6, -5.844e-7, 4.671e-7
0.037, -1.049e-6, -5.863e-7, 4.632e-7
0.036, -1.047e-6, -5.844e-7, 4.626e-7
0.035, -1.047e-6, -5.844e-7, 4.623e-7
0.034, -1.047e-6, -5.844e-7, 4.623e-7
0.033, -1.045e-6, -5.835e-7, 4.613e-7
0.032, -1.042e-6, -5.820e-7, 4.604e-7
0.031, -1.043e-6, -5.829e-7, 4.604e-7
0.030, -1.042e-6, -5.805e-7, 4.613e-7
0.029, -1.040e-6, -5.808e-7, 4.589e-7
0.028, -1.040e-6, -5.811e-7, 4.586e-7
0.027, -1.038e-6, -5.789e-7, 4.589e-7
0.026, -1.036e-6, -5.786e-7, 4.574e-7
0.025, -1.034e-6, -5.777e-7, 4.562e-7
0.024, -1.034e-6, -5.774e-7, 4.565e-7
0.023, -1.034e-6, -5.774e-7, 4.568e-7
0.022, -1.032e-6, -5.771e-7, 4.546e-7
0.021, -1.031e-6, -5.762e-7, 4.546e-7
0.020, -1.030e-6, -5.756e-7, 4.540e-7
0.019, -1.029e-6, -5.756e-7, 4.531e-7
0.018, -1.029e-6, -5.759e-7, 4.534e-7
0.017, -1.027e-6, -5.747e-7, 4.528e-7
0.016, -1.025e-6, -5.734e-7, 4.516e-7
0.015, -1.025e-6, -5.731e-7, 4.519e-7
0.014, -1.022e-6, -5.722e-7, 4.501e-7
0.013, -1.024e-6, -5.734e-7, 4.504e-7
0.012, -1.022e-6, -5.725e-7, 4.497e-7
0.011, -1.021e-6, -5.719e-7, 4.491e-7
0.010, -1.020e-6, -5.707e-7, 4.488e-7
0.009, -1.019e-6, -5.707e-7, 4.482e-7
0.008, -1.019e-6, -5.713e-7, 4.473e-7
0.007, -1.017e-6, -5.710e-7, 4.458e-7
0.006, -1.018e-6, -5.710e-7, 4.467e-7
0.005, -1.016e-6, -5.698e-7, 4.458e-7
0.004, -1.016e-6, -5.701e-7, 4.455e-7
0.003, -1.013e-6, -5.680e-7, 4.452e-7
0.002, -1.013e-6, -5.689e-7, 4.443e-7
0.001, -1.013e-6, -5.686e-7, 4.449e-7
-0.000, -1.011e-6, -5.670e-7, 4.436e-7
-0.001, -1.013e-6, -5.689e-7, 4.440e-7
-0.002, -1.010e-6, -5.680e-7, 4.421e-7
-0.003, -1.010e-6, -5.667e-7, 4.430e-7
-0.004, -1.008e-6, -5.661e-7, 4.415e-7
-0.005, -1.005e-6, -5.649e-7, 4.406e-7
-0.006, -1.008e-6, -5.658e-7, 4.421e-7
-0.007, -1.007e-6, -5.655e-7, 4.415e-7
-0.008, -1.005e-6, -5.649e-7, 4.397e-7
-0.009, -1.004e-6, -5.649e-7, 4.394e-7
-0.010, -1.003e-6, -5.643e-7, 4.388e-7
-0.011, -1.002e-6, -5.643e-7, 4.372e-7
-0.012, -1.002e-6, -5.637e-7, 4.388e-7
-0.013, -1.004e-6, -5.655e-7, 4.382e-7
-0.014, -1.002e-6, -5.646e-7, 4.372e-7
-0.015, -1.000e-6, -5.631e-7, 4.372e-7
-0.016, -1.000e-6, -5.640e-7, 4.363e-7
-0.017, -9.976e-7, -5.628e-7, 4.348e-7
-0.018, -9.976e-7, -5.622e-7, 4.354e-7
-0.019, -9.960e-7, -5.619e-7, 4.342e-7
-0.020, -9.966e-7, -5.625e-7, 4.342e-7
-0.021, -9.942e-7, -5.615e-7, 4.327e-7
-0.022, -9.966e-7, -5.625e-7, 4.342e-7
-0.023, -9.942e-7, -5.622e-7, 4.320e-7
-0.024, -9.948e-7, -5.612e-7, 4.336e-7
-0.025, -9.933e-7, -5.619e-7, 4.314e-7
-0.026, -9.933e-7, -5.612e-7, 4.320e-7
-0.027, -9.924e-7, -5.606e-7, 4.317e-7
-0.028, -9.905e-7, -5.597e-7, 4.308e-7
-0.029, -9.902e-7, -5.600e-7, 4.302e-7
-0.030, -9.912e-7, -5.606e-7, 4.305e-7
-0.031, -9.890e-7, -5.603e-7, 4.287e-7
-0.032, -9.896e-7, -5.597e-7, 4.299e-7
-0.033, -9.893e-7, -5.597e-7, 4.296e-7
-0.034, -9.884e-7, -5.600e-7, 4.284e-7
-0.035, -9.881e-7, -5.600e-7, 4.281e-7
-0.036, -9.890e-7, -5.597e-7, 4.293e-7
-0.037, -9.866e-7, -5.594e-7, 4.272e-7
-0.038, -9.875e-7, -5.597e-7, 4.278e-7
-0.039, -9.860e-7, -5.579e-7, 4.281e-7
-0.040, -9.838e-7, -5.579e-7, 4.259e-7
-0.041, -9.851e-7, -5.591e-7, 4.259e-7
-0.042, -9.847e-7, -5.582e-7, 4.266e-7
-0.043, -9.847e-7, -5.579e-7, 4.269e-7
-0.044, -9.838e-7, -5.585e-7, 4.253e-7
-0.045, -9.844e-7, -5.585e-7, 4.259e-7
-0.046, -9.814e-7, -5.573e-7, 4.241e-7
-0.047, -9.814e-7, -5.582e-7, 4.232e-7
-0.048, -9.823e-7, -5.573e-7, 4.250e-7
-0.049, -9.802e-7, -5.567e-7, 4.235e-7
-0.050, -9.817e-7, -5.576e-7, 4.241e-7
