Feb. 28, 2018   11:36:38
Square Wave Voltammetry
File: c:\users\electrochemist\desktop\2018\28022018_unbuffered_9,2\16_e6_9,2_0118_ph5,55_1.txt
Data Source:  Experiment
Instrument Model:  CHI1040A
Header: 
Note: 

Init E (V) = 0.5
Final E (V) = -0.05
Incr E (V) = 0.001
Amplitude (V) = 0.1
Frequency (Hz) = 150
Quiet Time (sec) = 0
Sensitivity (A/V) = 1e-6

Difference:

Forward:

Reverse:
Potential/V, Diff(i/A), For(i/A), Rev(i/A)

0.499, -8.425e-7, -2.094e-7, 6.332e-7
0.498, -1.029e-6, -4.886e-7, 5.401e-7
0.497, -1.015e-6, -5.072e-7, 5.074e-7
0.496, -1.003e-6, -5.124e-7, 4.909e-7
0.495, -9.951e-7, -5.164e-7, 4.787e-7
0.494, -9.875e-7, -5.188e-7, 4.687e-7
0.493, -9.820e-7, -5.194e-7, 4.626e-7
0.492, -9.774e-7, -5.222e-7, 4.552e-7
0.491, -9.725e-7, -5.231e-7, 4.494e-7
0.490, -9.701e-7, -5.249e-7, 4.452e-7
0.489, -9.664e-7, -5.249e-7, 4.415e-7
0.488, -9.637e-7, -5.252e-7, 4.385e-7
0.487, -9.612e-7, -5.268e-7, 4.345e-7
0.486, -9.622e-7, -5.292e-7, 4.330e-7
0.485, -9.594e-7, -5.295e-7, 4.299e-7
0.484, -9.582e-7, -5.286e-7, 4.296e-7
0.483, -9.570e-7, -5.301e-7, 4.269e-7
0.482, -9.564e-7, -5.326e-7, 4.238e-7
0.481, -9.548e-7, -5.301e-7, 4.247e-7
0.480, -9.539e-7, -5.319e-7, 4.220e-7
0.479, -9.539e-7, -5.335e-7, 4.205e-7
0.478, -9.548e-7, -5.338e-7, 4.211e-7
0.477, -9.539e-7, -5.359e-7, 4.180e-7
0.476, -9.542e-7, -5.365e-7, 4.177e-7
0.475, -9.515e-7, -5.353e-7, 4.162e-7
0.474, -9.530e-7, -5.371e-7, 4.159e-7
0.473, -9.533e-7, -5.399e-7, 4.134e-7
0.472, -9.533e-7, -5.380e-7, 4.153e-7
0.471, -9.503e-7, -5.380e-7, 4.122e-7
0.470, -9.554e-7, -5.423e-7, 4.131e-7
0.469, -9.551e-7, -5.408e-7, 4.144e-7
0.468, -9.521e-7, -5.411e-7, 4.110e-7
0.467, -9.545e-7, -5.426e-7, 4.119e-7
0.466, -9.542e-7, -5.429e-7, 4.113e-7
0.465, -9.545e-7, -5.445e-7, 4.101e-7
0.464, -9.582e-7, -5.475e-7, 4.107e-7
0.463, -9.570e-7, -5.466e-7, 4.104e-7
0.462, -9.555e-7, -5.472e-7, 4.083e-7
0.461, -9.600e-7, -5.512e-7, 4.089e-7
0.460, -9.585e-7, -5.496e-7, 4.089e-7
0.459, -9.573e-7, -5.493e-7, 4.079e-7
0.458, -9.600e-7, -5.542e-7, 4.058e-7
0.457, -9.606e-7, -5.515e-7, 4.092e-7
0.456, -9.612e-7, -5.530e-7, 4.083e-7
0.455, -9.622e-7, -5.548e-7, 4.073e-7
0.454, -9.631e-7, -5.554e-7, 4.076e-7
0.453, -9.634e-7, -5.567e-7, 4.067e-7
0.452, -9.658e-7, -5.582e-7, 4.076e-7
0.451, -9.637e-7, -5.573e-7, 4.064e-7
0.450, -9.667e-7, -5.594e-7, 4.073e-7
0.449, -9.683e-7, -5.615e-7, 4.067e-7
0.448, -9.686e-7, -5.609e-7, 4.076e-7
0.447, -9.698e-7, -5.618e-7, 4.079e-7
0.446, -9.713e-7, -5.646e-7, 4.067e-7
0.445, -9.738e-7, -5.652e-7, 4.086e-7
0.444, -9.716e-7, -5.652e-7, 4.064e-7
0.443, -9.716e-7, -5.673e-7, 4.043e-7
0.442, -9.768e-7, -5.683e-7, 4.086e-7
0.441, -9.750e-7, -5.692e-7, 4.058e-7
0.440, -9.780e-7, -5.713e-7, 4.067e-7
0.439, -9.780e-7, -5.716e-7, 4.064e-7
0.438, -9.780e-7, -5.716e-7, 4.064e-7
0.437, -9.808e-7, -5.747e-7, 4.061e-7
0.436, -9.811e-7, -5.731e-7, 4.079e-7
0.435, -9.823e-7, -5.765e-7, 4.058e-7
0.434, -9.841e-7, -5.780e-7, 4.061e-7
0.433, -9.847e-7, -5.777e-7, 4.070e-7
0.432, -9.851e-7, -5.783e-7, 4.067e-7
0.431, -9.893e-7, -5.823e-7, 4.070e-7
0.430, -9.878e-7, -5.817e-7, 4.061e-7
0.429, -9.915e-7, -5.835e-7, 4.079e-7
0.428, -9.912e-7, -5.850e-7, 4.061e-7
0.427, -9.966e-7, -5.863e-7, 4.104e-7
0.426, -9.942e-7, -5.869e-7, 4.073e-7
0.425, -9.973e-7, -5.881e-7, 4.092e-7
0.424, -9.994e-7, -5.908e-7, 4.086e-7
0.423, -9.976e-7, -5.896e-7, 4.079e-7
0.422, -1.002e-6, -5.921e-7, 4.101e-7
0.421, -1.002e-6, -5.930e-7, 4.092e-7
0.420, -1.001e-6, -5.936e-7, 4.073e-7
0.419, -1.006e-6, -5.966e-7, 4.098e-7
0.418, -1.006e-6, -5.963e-7, 4.098e-7
0.417, -1.006e-6, -5.972e-7, 4.086e-7
0.416, -1.012e-6, -6.003e-7, 4.119e-7
0.415, -1.012e-6, -6.003e-7, 4.119e-7
0.414, -1.010e-6, -6.009e-7, 4.092e-7
0.413, -1.014e-6, -6.033e-7, 4.107e-7
0.412, -1.016e-6, -6.043e-7, 4.113e-7
0.411, -1.016e-6, -6.046e-7, 4.116e-7
0.410, -1.018e-6, -6.070e-7, 4.113e-7
0.409, -1.022e-6, -6.088e-7, 4.128e-7
0.408, -1.021e-6, -6.095e-7, 4.119e-7
0.407, -1.027e-6, -6.131e-7, 4.137e-7
0.406, -1.028e-6, -6.116e-7, 4.162e-7
0.405, -1.029e-6, -6.140e-7, 4.147e-7
0.404, -1.029e-6, -6.152e-7, 4.134e-7
0.403, -1.031e-6, -6.171e-7, 4.144e-7
0.402, -1.032e-6, -6.168e-7, 4.150e-7
0.401, -1.034e-6, -6.204e-7, 4.140e-7
0.400, -1.037e-6, -6.201e-7, 4.168e-7
0.399, -1.038e-6, -6.220e-7, 4.156e-7
0.398, -1.041e-6, -6.247e-7, 4.162e-7
0.397, -1.043e-6, -6.247e-7, 4.186e-7
0.396, -1.042e-6, -6.253e-7, 4.162e-7
0.395, -1.046e-6, -6.281e-7, 4.180e-7
0.394, -1.049e-6, -6.296e-7, 4.198e-7
0.393, -1.049e-6, -6.302e-7, 4.183e-7
0.392, -1.052e-6, -6.336e-7, 4.180e-7
0.391, -1.053e-6, -6.333e-7, 4.198e-7
0.390, -1.054e-6, -6.348e-7, 4.195e-7
0.389, -1.058e-6, -6.381e-7, 4.195e-7
0.388, -1.059e-6, -6.375e-7, 4.211e-7
0.387, -1.060e-6, -6.397e-7, 4.208e-7
0.386, -1.062e-6, -6.418e-7, 4.205e-7
0.385, -1.066e-6, -6.433e-7, 4.223e-7
0.384, -1.065e-6, -6.448e-7, 4.205e-7
0.383, -1.071e-6, -6.476e-7, 4.232e-7
0.382, -1.070e-6, -6.470e-7, 4.226e-7
0.381, -1.071e-6, -6.479e-7, 4.229e-7
0.380, -1.075e-6, -6.513e-7, 4.235e-7
0.379, -1.077e-6, -6.506e-7, 4.266e-7
0.378, -1.077e-6, -6.522e-7, 4.247e-7
0.377, -1.081e-6, -6.561e-7, 4.247e-7
0.376, -1.084e-6, -6.571e-7, 4.269e-7
0.375, -1.085e-6, -6.577e-7, 4.278e-7
0.374, -1.086e-6, -6.598e-7, 4.266e-7
0.373, -1.089e-6, -6.607e-7, 4.284e-7
0.372, -1.091e-6, -6.622e-7, 4.290e-7
0.371, -1.092e-6, -6.644e-7, 4.281e-7
0.370, -1.098e-6, -6.683e-7, 4.296e-7
0.369, -1.099e-6, -6.680e-7, 4.305e-7
0.368, -1.100e-6, -6.699e-7, 4.299e-7
0.367, -1.102e-6, -6.702e-7, 4.321e-7
0.366, -1.104e-6, -6.729e-7, 4.314e-7
0.365, -1.108e-6, -6.769e-7, 4.308e-7
0.364, -1.112e-6, -6.772e-7, 4.348e-7
0.363, -1.109e-6, -6.769e-7, 4.324e-7
0.362, -1.113e-6, -6.793e-7, 4.333e-7
0.361, -1.114e-6, -6.799e-7, 4.336e-7
0.360, -1.117e-6, -6.818e-7, 4.354e-7
0.359, -1.119e-6, -6.845e-7, 4.345e-7
0.358, -1.123e-6, -6.860e-7, 4.372e-7
0.357, -1.122e-6, -6.864e-7, 4.354e-7
0.356, -1.127e-6, -6.903e-7, 4.369e-7
0.355, -1.130e-6, -6.909e-7, 4.388e-7
0.354, -1.132e-6, -6.918e-7, 4.400e-7
0.353, -1.131e-6, -6.943e-7, 4.363e-7
0.352, -1.137e-6, -6.964e-7, 4.403e-7
0.351, -1.135e-6, -6.958e-7, 4.391e-7
0.350, -1.140e-6, -6.998e-7, 4.400e-7
0.349, -1.144e-6, -7.025e-7, 4.412e-7
0.348, -1.143e-6, -7.016e-7, 4.412e-7
0.347, -1.147e-6, -7.056e-7, 4.418e-7
0.346, -1.151e-6, -7.062e-7, 4.449e-7
0.345, -1.153e-6, -7.080e-7, 4.449e-7
0.344, -1.156e-6, -7.117e-7, 4.446e-7
0.343, -1.157e-6, -7.111e-7, 4.458e-7
0.342, -1.160e-6, -7.126e-7, 4.473e-7
0.341, -1.163e-6, -7.172e-7, 4.461e-7
0.340, -1.165e-6, -7.166e-7, 4.482e-7
0.339, -1.167e-6, -7.178e-7, 4.494e-7
0.338, -1.169e-6, -7.205e-7, 4.485e-7
0.337, -1.172e-6, -7.224e-7, 4.491e-7
0.336, -1.174e-6, -7.230e-7, 4.507e-7
0.335, -1.175e-6, -7.260e-7, 4.491e-7
0.334, -1.178e-6, -7.272e-7, 4.507e-7
0.333, -1.179e-6, -7.272e-7, 4.519e-7
0.332, -1.184e-6, -7.312e-7, 4.528e-7
0.331, -1.185e-6, -7.321e-7, 4.531e-7
0.330, -1.186e-6, -7.327e-7, 4.534e-7
0.329, -1.193e-6, -7.379e-7, 4.546e-7
0.328, -1.194e-6, -7.385e-7, 4.559e-7
0.327, -1.195e-6, -7.382e-7, 4.568e-7
0.326, -1.198e-6, -7.416e-7, 4.565e-7
0.325, -1.200e-6, -7.425e-7, 4.577e-7
0.324, -1.202e-6, -7.434e-7, 4.589e-7
0.323, -1.204e-6, -7.468e-7, 4.577e-7
0.322, -1.208e-6, -7.486e-7, 4.598e-7
0.321, -1.211e-6, -7.501e-7, 4.607e-7
0.320, -1.215e-6, -7.538e-7, 4.613e-7
0.319, -1.217e-6, -7.532e-7, 4.641e-7
0.318, -1.218e-6, -7.544e-7, 4.641e-7
0.317, -1.220e-6, -7.578e-7, 4.626e-7
0.316, -1.222e-6, -7.571e-7, 4.647e-7
0.315, -1.224e-6, -7.593e-7, 4.644e-7
0.314, -1.228e-6, -7.633e-7, 4.647e-7
0.313, -1.233e-6, -7.636e-7, 4.696e-7
0.312, -1.231e-6, -7.648e-7, 4.665e-7
0.311, -1.235e-6, -7.675e-7, 4.671e-7
0.310, -1.240e-6, -7.703e-7, 4.699e-7
0.309, -1.240e-6, -7.697e-7, 4.702e-7
0.308, -1.243e-6, -7.727e-7, 4.699e-7
0.307, -1.245e-6, -7.733e-7, 4.714e-7
0.306, -1.247e-6, -7.752e-7, 4.717e-7
0.305, -1.252e-6, -7.791e-7, 4.732e-7
0.304, -1.253e-6, -7.788e-7, 4.745e-7
0.303, -1.253e-6, -7.797e-7, 4.736e-7
0.302, -1.256e-6, -7.828e-7, 4.736e-7
0.301, -1.261e-6, -7.825e-7, 4.784e-7
0.300, -1.262e-6, -7.852e-7, 4.769e-7
0.299, -1.264e-6, -7.880e-7, 4.760e-7
0.298, -1.265e-6, -7.877e-7, 4.775e-7
0.297, -1.269e-6, -7.895e-7, 4.794e-7
0.296, -1.274e-6, -7.941e-7, 4.803e-7
0.295, -1.276e-6, -7.929e-7, 4.830e-7
0.294, -1.276e-6, -7.956e-7, 4.809e-7
0.293, -1.281e-6, -7.993e-7, 4.818e-7
0.292, -1.284e-6, -7.987e-7, 4.851e-7
0.291, -1.285e-6, -7.993e-7, 4.855e-7
0.290, -1.287e-6, -8.023e-7, 4.851e-7
0.289, -1.293e-6, -8.051e-7, 4.876e-7
0.288, -1.291e-6, -8.044e-7, 4.864e-7
0.287, -1.297e-6, -8.093e-7, 4.873e-7
0.286, -1.298e-6, -8.081e-7, 4.894e-7
0.285, -1.299e-6, -8.090e-7, 4.897e-7
0.284, -1.302e-6, -8.118e-7, 4.900e-7
0.283, -1.306e-6, -8.151e-7, 4.906e-7
0.282, -1.305e-6, -8.139e-7, 4.916e-7
0.281, -1.309e-6, -8.173e-7, 4.919e-7
0.280, -1.313e-6, -8.185e-7, 4.943e-7
0.279, -1.314e-6, -8.206e-7, 4.937e-7
0.278, -1.317e-6, -8.215e-7, 4.955e-7
0.277, -1.319e-6, -8.228e-7, 4.961e-7
0.276, -1.319e-6, -8.225e-7, 4.967e-7
0.275, -1.323e-6, -8.261e-7, 4.967e-7
0.274, -1.325e-6, -8.261e-7, 4.986e-7
0.273, -1.327e-6, -8.276e-7, 4.998e-7
0.272, -1.331e-6, -8.304e-7, 5.004e-7
0.271, -1.335e-6, -8.307e-7, 5.041e-7
0.270, -1.335e-6, -8.316e-7, 5.032e-7
0.269, -1.336e-6, -8.331e-7, 5.025e-7
0.268, -1.342e-6, -8.368e-7, 5.056e-7
0.267, -1.343e-6, -8.374e-7, 5.053e-7
0.266, -1.344e-6, -8.395e-7, 5.044e-7
0.265, -1.348e-6, -8.402e-7, 5.083e-7
0.264, -1.346e-6, -8.395e-7, 5.065e-7
0.263, -1.350e-6, -8.429e-7, 5.071e-7
0.262, -1.354e-6, -8.435e-7, 5.108e-7
0.261, -1.354e-6, -8.438e-7, 5.102e-7
0.260, -1.357e-6, -8.469e-7, 5.105e-7
0.259, -1.360e-6, -8.490e-7, 5.114e-7
0.258, -1.359e-6, -8.456e-7, 5.138e-7
0.257, -1.363e-6, -8.496e-7, 5.132e-7
0.256, -1.366e-6, -8.514e-7, 5.151e-7
0.255, -1.365e-6, -8.502e-7, 5.147e-7
0.254, -1.370e-6, -8.539e-7, 5.166e-7
0.253, -1.374e-6, -8.545e-7, 5.199e-7
0.252, -1.374e-6, -8.542e-7, 5.193e-7
0.251, -1.376e-6, -8.572e-7, 5.184e-7
0.250, -1.377e-6, -8.569e-7, 5.202e-7
0.249, -1.380e-6, -8.594e-7, 5.202e-7
0.248, -1.383e-6, -8.609e-7, 5.218e-7
0.247, -1.384e-6, -8.606e-7, 5.230e-7
0.246, -1.384e-6, -8.600e-7, 5.242e-7
0.245, -1.388e-6, -8.636e-7, 5.239e-7
0.244, -1.390e-6, -8.627e-7, 5.273e-7
0.243, -1.391e-6, -8.646e-7, 5.263e-7
0.242, -1.391e-6, -8.661e-7, 5.251e-7
0.241, -1.396e-6, -8.664e-7, 5.294e-7
0.240, -1.397e-6, -8.685e-7, 5.288e-7
0.239, -1.399e-6, -8.698e-7, 5.291e-7
0.238, -1.399e-6, -8.676e-7, 5.315e-7
0.237, -1.400e-6, -8.688e-7, 5.315e-7
0.236, -1.404e-6, -8.725e-7, 5.318e-7
0.235, -1.404e-6, -8.719e-7, 5.324e-7
0.234, -1.406e-6, -8.707e-7, 5.355e-7
0.233, -1.409e-6, -8.734e-7, 5.352e-7
0.232, -1.409e-6, -8.737e-7, 5.352e-7
0.231, -1.410e-6, -8.728e-7, 5.370e-7
0.230, -1.414e-6, -8.765e-7, 5.376e-7
0.229, -1.416e-6, -8.759e-7, 5.401e-7
0.228, -1.416e-6, -8.752e-7, 5.404e-7
0.227, -1.418e-6, -8.798e-7, 5.386e-7
0.226, -1.420e-6, -8.777e-7, 5.419e-7
0.225, -1.418e-6, -8.777e-7, 5.407e-7
0.224, -1.419e-6, -8.798e-7, 5.395e-7
0.223, -1.424e-6, -8.795e-7, 5.450e-7
0.222, -1.423e-6, -8.792e-7, 5.434e-7
0.221, -1.428e-6, -8.829e-7, 5.450e-7
0.220, -1.430e-6, -8.820e-7, 5.483e-7
0.219, -1.428e-6, -8.804e-7, 5.474e-7
0.218, -1.431e-6, -8.832e-7, 5.477e-7
0.217, -1.430e-6, -8.801e-7, 5.498e-7
0.216, -1.430e-6, -8.820e-7, 5.483e-7
0.215, -1.435e-6, -8.832e-7, 5.514e-7
0.214, -1.435e-6, -8.832e-7, 5.520e-7
0.213, -1.434e-6, -8.832e-7, 5.508e-7
0.212, -1.435e-6, -8.841e-7, 5.508e-7
0.211, -1.437e-6, -8.835e-7, 5.538e-7
0.210, -1.439e-6, -8.847e-7, 5.547e-7
0.209, -1.440e-6, -8.859e-7, 5.538e-7
0.208, -1.442e-6, -8.853e-7, 5.569e-7
0.207, -1.440e-6, -8.847e-7, 5.556e-7
0.206, -1.443e-6, -8.868e-7, 5.559e-7
0.205, -1.445e-6, -8.853e-7, 5.593e-7
0.204, -1.443e-6, -8.844e-7, 5.590e-7
0.203, -1.444e-6, -8.875e-7, 5.569e-7
0.202, -1.447e-6, -8.868e-7, 5.605e-7
0.201, -1.445e-6, -8.841e-7, 5.608e-7
0.200, -1.449e-6, -8.868e-7, 5.624e-7
0.199, -1.449e-6, -8.862e-7, 5.630e-7
0.198, -1.449e-6, -8.856e-7, 5.636e-7
0.197, -1.451e-6, -8.868e-7, 5.639e-7
0.196, -1.453e-6, -8.865e-7, 5.663e-7
0.195, -1.448e-6, -8.841e-7, 5.639e-7
0.194, -1.453e-6, -8.884e-7, 5.651e-7
0.193, -1.454e-6, -8.875e-7, 5.666e-7
0.192, -1.453e-6, -8.865e-7, 5.666e-7
0.191, -1.453e-6, -8.868e-7, 5.666e-7
0.190, -1.453e-6, -8.838e-7, 5.694e-7
0.189, -1.452e-6, -8.853e-7, 5.669e-7
0.188, -1.456e-6, -8.868e-7, 5.688e-7
0.187, -1.456e-6, -8.850e-7, 5.712e-7
0.186, -1.454e-6, -8.832e-7, 5.706e-7
0.185, -1.456e-6, -8.859e-7, 5.703e-7
0.184, -1.457e-6, -8.841e-7, 5.727e-7
0.183, -1.455e-6, -8.835e-7, 5.718e-7
0.182, -1.456e-6, -8.832e-7, 5.724e-7
0.181, -1.458e-6, -8.844e-7, 5.739e-7
0.180, -1.457e-6, -8.829e-7, 5.736e-7
0.179, -1.455e-6, -8.823e-7, 5.730e-7
0.178, -1.457e-6, -8.817e-7, 5.752e-7
0.177, -1.454e-6, -8.798e-7, 5.746e-7
0.176, -1.456e-6, -8.823e-7, 5.733e-7
0.175, -1.458e-6, -8.813e-7, 5.767e-7
0.174, -1.456e-6, -8.786e-7, 5.770e-7
0.173, -1.455e-6, -8.798e-7, 5.755e-7
0.172, -1.458e-6, -8.807e-7, 5.776e-7
0.171, -1.456e-6, -8.783e-7, 5.773e-7
0.170, -1.457e-6, -8.795e-7, 5.779e-7
0.169, -1.458e-6, -8.765e-7, 5.813e-7
0.168, -1.456e-6, -8.759e-7, 5.804e-7
0.167, -1.456e-6, -8.777e-7, 5.785e-7
0.166, -1.458e-6, -8.762e-7, 5.822e-7
0.165, -1.455e-6, -8.740e-7, 5.810e-7
0.164, -1.457e-6, -8.762e-7, 5.807e-7
0.163, -1.454e-6, -8.731e-7, 5.813e-7
0.162, -1.453e-6, -8.722e-7, 5.807e-7
0.161, -1.453e-6, -8.716e-7, 5.816e-7
0.160, -1.452e-6, -8.704e-7, 5.816e-7
0.159, -1.451e-6, -8.688e-7, 5.822e-7
0.158, -1.451e-6, -8.710e-7, 5.804e-7
0.157, -1.453e-6, -8.685e-7, 5.840e-7
0.156, -1.449e-6, -8.664e-7, 5.822e-7
0.155, -1.451e-6, -8.691e-7, 5.819e-7
0.154, -1.452e-6, -8.664e-7, 5.852e-7
0.153, -1.449e-6, -8.643e-7, 5.849e-7
0.152, -1.448e-6, -8.649e-7, 5.828e-7
0.151, -1.451e-6, -8.640e-7, 5.868e-7
0.150, -1.446e-6, -8.612e-7, 5.849e-7
0.149, -1.446e-6, -8.630e-7, 5.834e-7
0.148, -1.447e-6, -8.606e-7, 5.862e-7
0.147, -1.444e-6, -8.600e-7, 5.837e-7
0.146, -1.444e-6, -8.609e-7, 5.834e-7
0.145, -1.444e-6, -8.585e-7, 5.852e-7
0.144, -1.440e-6, -8.554e-7, 5.849e-7
0.143, -1.443e-6, -8.579e-7, 5.849e-7
0.142, -1.443e-6, -8.554e-7, 5.874e-7
0.141, -1.439e-6, -8.533e-7, 5.862e-7
0.140, -1.439e-6, -8.536e-7, 5.852e-7
0.139, -1.439e-6, -8.527e-7, 5.868e-7
0.138, -1.436e-6, -8.493e-7, 5.865e-7
0.137, -1.436e-6, -8.511e-7, 5.852e-7
0.136, -1.436e-6, -8.490e-7, 5.868e-7
0.135, -1.433e-6, -8.469e-7, 5.858e-7
0.134, -1.432e-6, -8.478e-7, 5.840e-7
0.133, -1.432e-6, -8.447e-7, 5.877e-7
0.132, -1.428e-6, -8.426e-7, 5.852e-7
0.131, -1.428e-6, -8.435e-7, 5.840e-7
0.130, -1.430e-6, -8.432e-7, 5.868e-7
0.129, -1.426e-6, -8.405e-7, 5.852e-7
0.128, -1.424e-6, -8.405e-7, 5.834e-7
0.127, -1.424e-6, -8.377e-7, 5.858e-7
0.126, -1.419e-6, -8.356e-7, 5.834e-7
0.125, -1.421e-6, -8.377e-7, 5.831e-7
0.124, -1.422e-6, -8.353e-7, 5.865e-7
0.123, -1.417e-6, -8.331e-7, 5.840e-7
0.122, -1.417e-6, -8.344e-7, 5.822e-7
0.121, -1.416e-6, -8.316e-7, 5.843e-7
0.120, -1.413e-6, -8.292e-7, 5.840e-7
0.119, -1.413e-6, -8.304e-7, 5.831e-7
0.118, -1.412e-6, -8.270e-7, 5.846e-7
0.117, -1.411e-6, -8.270e-7, 5.837e-7
0.116, -1.409e-6, -8.270e-7, 5.816e-7
0.115, -1.409e-6, -8.255e-7, 5.831e-7
0.114, -1.405e-6, -8.237e-7, 5.813e-7
0.113, -1.402e-6, -8.221e-7, 5.801e-7
0.112, -1.404e-6, -8.203e-7, 5.837e-7
0.111, -1.397e-6, -8.164e-7, 5.807e-7
0.110, -1.398e-6, -8.182e-7, 5.797e-7
0.109, -1.396e-6, -8.157e-7, 5.801e-7
0.108, -1.393e-6, -8.160e-7, 5.770e-7
0.107, -1.393e-6, -8.154e-7, 5.773e-7
0.106, -1.393e-6, -8.136e-7, 5.791e-7
0.105, -1.391e-6, -8.112e-7, 5.801e-7
0.104, -1.390e-6, -8.127e-7, 5.776e-7
0.103, -1.388e-6, -8.090e-7, 5.791e-7
0.102, -1.385e-6, -8.081e-7, 5.773e-7
0.101, -1.385e-6, -8.090e-7, 5.755e-7
0.100, -1.384e-6, -8.054e-7, 5.788e-7
0.099, -1.379e-6, -8.038e-7, 5.749e-7
0.098, -1.376e-6, -8.044e-7, 5.718e-7
0.097, -1.378e-6, -8.035e-7, 5.749e-7
0.096, -1.376e-6, -8.002e-7, 5.758e-7
0.095, -1.374e-6, -8.014e-7, 5.721e-7
0.094, -1.372e-6, -7.993e-7, 5.730e-7
0.093, -1.367e-6, -7.953e-7, 5.721e-7
0.092, -1.368e-6, -7.974e-7, 5.709e-7
0.091, -1.369e-6, -7.962e-7, 5.727e-7
0.090, -1.363e-6, -7.932e-7, 5.697e-7
0.089, -1.363e-6, -7.932e-7, 5.697e-7
0.088, -1.361e-6, -7.898e-7, 5.712e-7
0.087, -1.358e-6, -7.904e-7, 5.672e-7
0.086, -1.356e-6, -7.877e-7, 5.688e-7
0.085, -1.359e-6, -7.895e-7, 5.694e-7
0.084, -1.352e-6, -7.871e-7, 5.654e-7
0.083, -1.352e-6, -7.868e-7, 5.657e-7
0.082, -1.353e-6, -7.849e-7, 5.678e-7
0.081, -1.346e-6, -7.822e-7, 5.639e-7
0.080, -1.346e-6, -7.825e-7, 5.636e-7
0.079, -1.346e-6, -7.813e-7, 5.645e-7
0.078, -1.343e-6, -7.813e-7, 5.620e-7
0.077, -1.340e-6, -7.791e-7, 5.608e-7
0.076, -1.341e-6, -7.785e-7, 5.620e-7
0.075, -1.336e-6, -7.761e-7, 5.602e-7
0.074, -1.337e-6, -7.773e-7, 5.593e-7
0.073, -1.335e-6, -7.752e-7, 5.596e-7
0.072, -1.332e-6, -7.736e-7, 5.581e-7
0.071, -1.329e-6, -7.727e-7, 5.566e-7
0.070, -1.331e-6, -7.730e-7, 5.581e-7
0.069, -1.327e-6, -7.706e-7, 5.559e-7
0.068, -1.326e-6, -7.715e-7, 5.544e-7
0.067, -1.325e-6, -7.697e-7, 5.550e-7
0.066, -1.323e-6, -7.681e-7, 5.547e-7
0.065, -1.322e-6, -7.684e-7, 5.535e-7
0.064, -1.320e-6, -7.654e-7, 5.541e-7
0.063, -1.315e-6, -7.626e-7, 5.523e-7
0.062, -1.316e-6, -7.648e-7, 5.508e-7
0.061, -1.316e-6, -7.639e-7, 5.526e-7
0.060, -1.311e-6, -7.605e-7, 5.501e-7
0.059, -1.309e-6, -7.620e-7, 5.474e-7
0.058, -1.310e-6, -7.596e-7, 5.505e-7
0.057, -1.305e-6, -7.584e-7, 5.468e-7
0.056, -1.306e-6, -7.587e-7, 5.471e-7
0.055, -1.304e-6, -7.575e-7, 5.465e-7
0.054, -1.299e-6, -7.541e-7, 5.447e-7
0.053, -1.300e-6, -7.568e-7, 5.431e-7
0.052, -1.300e-6, -7.556e-7, 5.440e-7
0.051, -1.294e-6, -7.520e-7, 5.422e-7
0.050, -1.293e-6, -7.523e-7, 5.404e-7
0.049, -1.291e-6, -7.504e-7, 5.410e-7
0.048, -1.291e-6, -7.501e-7, 5.404e-7
0.047, -1.290e-6, -7.517e-7, 5.382e-7
0.046, -1.287e-6, -7.477e-7, 5.398e-7
0.045, -1.286e-6, -7.483e-7, 5.376e-7
0.044, -1.282e-6, -7.474e-7, 5.349e-7
0.043, -1.285e-6, -7.483e-7, 5.367e-7
0.042, -1.280e-6, -7.453e-7, 5.352e-7
0.041, -1.278e-6, -7.446e-7, 5.331e-7
0.040, -1.280e-6, -7.446e-7, 5.349e-7
0.039, -1.277e-6, -7.431e-7, 5.343e-7
0.038, -1.274e-6, -7.428e-7, 5.312e-7
0.037, -1.274e-6, -7.428e-7, 5.312e-7
0.036, -1.273e-6, -7.413e-7, 5.312e-7
0.035, -1.273e-6, -7.425e-7, 5.300e-7
0.034, -1.271e-6, -7.407e-7, 5.300e-7
0.033, -1.267e-6, -7.382e-7, 5.291e-7
0.032, -1.266e-6, -7.401e-7, 5.263e-7
0.031, -1.266e-6, -7.391e-7, 5.273e-7
0.030, -1.261e-6, -7.352e-7, 5.260e-7
0.029, -1.262e-6, -7.379e-7, 5.245e-7
0.028, -1.262e-6, -7.367e-7, 5.251e-7
0.027, -1.258e-6, -7.343e-7, 5.242e-7
0.026, -1.255e-6, -7.330e-7, 5.221e-7
0.025, -1.258e-6, -7.346e-7, 5.233e-7
0.024, -1.255e-6, -7.324e-7, 5.221e-7
0.023, -1.254e-6, -7.343e-7, 5.193e-7
0.022, -1.253e-6, -7.321e-7, 5.209e-7
0.021, -1.251e-6, -7.306e-7, 5.202e-7
0.020, -1.249e-6, -7.315e-7, 5.178e-7
0.019, -1.249e-6, -7.303e-7, 5.190e-7
0.018, -1.247e-6, -7.294e-7, 5.172e-7
0.017, -1.246e-6, -7.303e-7, 5.160e-7
0.016, -1.247e-6, -7.306e-7, 5.163e-7
0.015, -1.243e-6, -7.276e-7, 5.157e-7
0.014, -1.242e-6, -7.297e-7, 5.126e-7
0.013, -1.243e-6, -7.272e-7, 5.154e-7
0.012, -1.240e-6, -7.272e-7, 5.126e-7
0.011, -1.239e-6, -7.279e-7, 5.108e-7
0.010, -1.238e-6, -7.248e-7, 5.129e-7
0.009, -1.235e-6, -7.233e-7, 5.114e-7
0.008, -1.234e-6, -7.254e-7, 5.083e-7
0.007, -1.235e-6, -7.251e-7, 5.099e-7
0.006, -1.231e-6, -7.224e-7, 5.089e-7
0.005, -1.233e-6, -7.260e-7, 5.071e-7
0.004, -1.233e-6, -7.248e-7, 5.080e-7
0.003, -1.229e-6, -7.227e-7, 5.065e-7
0.002, -1.227e-6, -7.218e-7, 5.056e-7
0.001, -1.229e-6, -7.218e-7, 5.071e-7
-0.000, -1.227e-6, -7.221e-7, 5.053e-7
-0.001, -1.227e-6, -7.230e-7, 5.038e-7
-0.002, -1.226e-6, -7.205e-7, 5.056e-7
-0.003, -1.223e-6, -7.199e-7, 5.032e-7
-0.004, -1.223e-6, -7.211e-7, 5.016e-7
-0.005, -1.224e-6, -7.202e-7, 5.038e-7
-0.006, -1.222e-6, -7.187e-7, 5.028e-7
-0.007, -1.219e-6, -7.202e-7, 4.989e-7
-0.008, -1.222e-6, -7.193e-7, 5.022e-7
-0.009, -1.218e-6, -7.184e-7, 5.001e-7
-0.010, -1.216e-6, -7.175e-7, 4.986e-7
-0.011, -1.218e-6, -7.178e-7, 5.007e-7
-0.012, -1.216e-6, -7.163e-7, 5.001e-7
-0.013, -1.215e-6, -7.178e-7, 4.974e-7
-0.014, -1.214e-6, -7.160e-7, 4.977e-7
-0.015, -1.214e-6, -7.160e-7, 4.983e-7
-0.016, -1.211e-6, -7.163e-7, 4.949e-7
-0.017, -1.211e-6, -7.157e-7, 4.955e-7
-0.018, -1.209e-6, -7.150e-7, 4.943e-7
-0.019, -1.209e-6, -7.160e-7, 4.934e-7
-0.020, -1.208e-6, -7.129e-7, 4.946e-7
-0.021, -1.207e-6, -7.126e-7, 4.946e-7
-0.022, -1.206e-6, -7.138e-7, 4.925e-7
-0.023, -1.209e-6, -7.144e-7, 4.943e-7
-0.024, -1.206e-6, -7.135e-7, 4.922e-7
-0.025, -1.205e-6, -7.138e-7, 4.909e-7
-0.026, -1.205e-6, -7.129e-7, 4.925e-7
-0.027, -1.201e-6, -7.111e-7, 4.897e-7
-0.028, -1.204e-6, -7.144e-7, 4.900e-7
-0.029, -1.204e-6, -7.123e-7, 4.916e-7
-0.030, -1.200e-6, -7.099e-7, 4.903e-7
-0.031, -1.201e-6, -7.111e-7, 4.897e-7
-0.032, -1.200e-6, -7.108e-7, 4.894e-7
-0.033, -1.198e-6, -7.092e-7, 4.888e-7
-0.034, -1.199e-6, -7.108e-7, 4.882e-7
-0.035, -1.199e-6, -7.099e-7, 4.888e-7
-0.036, -1.196e-6, -7.089e-7, 4.870e-7
-0.037, -1.197e-6, -7.105e-7, 4.870e-7
-0.038, -1.196e-6, -7.092e-7, 4.864e-7
-0.039, -1.195e-6, -7.077e-7, 4.873e-7
-0.040, -1.195e-6, -7.099e-7, 4.848e-7
-0.041, -1.196e-6, -7.083e-7, 4.876e-7
-0.042, -1.194e-6, -7.077e-7, 4.864e-7
-0.043, -1.194e-6, -7.083e-7, 4.858e-7
-0.044, -1.193e-6, -7.068e-7, 4.861e-7
-0.045, -1.191e-6, -7.065e-7, 4.842e-7
-0.046, -1.189e-6, -7.068e-7, 4.824e-7
-0.047, -1.192e-6, -7.080e-7, 4.839e-7
-0.048, -1.190e-6, -7.059e-7, 4.839e-7
-0.049, -1.190e-6, -7.077e-7, 4.827e-7
-0.050, -1.190e-6, -7.062e-7, 4.842e-7
