Feb. 28, 2018   11:36:43
Square Wave Voltammetry
File: c:\users\electrochemist\desktop\2018\28022018_unbuffered_9,2\16_e6_9,2_0118_ph5,55_2.txt
Data Source:  Experiment
Instrument Model:  CHI1040A
Header: 
Note: 

Init E (V) = 0.5
Final E (V) = -0.05
Incr E (V) = 0.001
Amplitude (V) = 0.1
Frequency (Hz) = 150
Quiet Time (sec) = 0
Sensitivity (A/V) = 1e-6

Difference:

Forward:

Reverse:

Potential/V, Diff(i/A), For(i/A), Rev(i/A)

0.499, -7.992e-7, -2.045e-7, 5.947e-7
0.498, -9.991e-7, -4.859e-7, 5.132e-7
0.497, -9.899e-7, -5.023e-7, 4.876e-7
0.496, -9.817e-7, -5.103e-7, 4.714e-7
0.495, -9.759e-7, -5.133e-7, 4.626e-7
0.494, -9.707e-7, -5.170e-7, 4.537e-7
0.493, -9.652e-7, -5.173e-7, 4.479e-7
0.492, -9.622e-7, -5.194e-7, 4.427e-7
0.491, -9.573e-7, -5.182e-7, 4.391e-7
0.490, -9.561e-7, -5.225e-7, 4.336e-7
0.489, -9.579e-7, -5.234e-7, 4.345e-7
0.488, -9.542e-7, -5.237e-7, 4.305e-7
0.487, -9.551e-7, -5.252e-7, 4.299e-7
0.486, -9.509e-7, -5.249e-7, 4.260e-7
0.485, -9.478e-7, -5.261e-7, 4.217e-7
0.484, -9.500e-7, -5.274e-7, 4.226e-7
0.483, -9.493e-7, -5.292e-7, 4.202e-7
0.482, -9.497e-7, -5.298e-7, 4.198e-7
0.481, -9.484e-7, -5.313e-7, 4.171e-7
0.480, -9.487e-7, -5.295e-7, 4.192e-7
0.479, -9.481e-7, -5.322e-7, 4.159e-7
0.478, -9.466e-7, -5.313e-7, 4.153e-7
0.477, -9.484e-7, -5.344e-7, 4.140e-7
0.476, -9.481e-7, -5.347e-7, 4.134e-7
0.475, -9.493e-7, -5.368e-7, 4.125e-7
0.474, -9.481e-7, -5.359e-7, 4.122e-7
0.473, -9.475e-7, -5.353e-7, 4.122e-7
0.472, -9.500e-7, -5.396e-7, 4.104e-7
0.471, -9.509e-7, -5.390e-7, 4.119e-7
0.470, -9.500e-7, -5.411e-7, 4.089e-7
0.469, -9.500e-7, -5.408e-7, 4.092e-7
0.468, -9.506e-7, -5.417e-7, 4.089e-7
0.467, -9.503e-7, -5.408e-7, 4.095e-7
0.466, -9.524e-7, -5.435e-7, 4.089e-7
0.465, -9.515e-7, -5.438e-7, 4.076e-7
0.464, -9.521e-7, -5.445e-7, 4.076e-7
0.463, -9.527e-7, -5.457e-7, 4.070e-7
0.462, -9.542e-7, -5.478e-7, 4.064e-7
0.461, -9.524e-7, -5.469e-7, 4.055e-7
0.460, -9.536e-7, -5.481e-7, 4.055e-7
0.459, -9.548e-7, -5.490e-7, 4.058e-7
0.458, -9.573e-7, -5.512e-7, 4.061e-7
0.457, -9.558e-7, -5.521e-7, 4.037e-7
0.456, -9.594e-7, -5.551e-7, 4.043e-7
0.455, -9.579e-7, -5.515e-7, 4.064e-7
0.454, -9.591e-7, -5.539e-7, 4.052e-7
0.453, -9.619e-7, -5.557e-7, 4.061e-7
0.452, -9.628e-7, -5.567e-7, 4.061e-7
0.451, -9.628e-7, -5.579e-7, 4.049e-7
0.450, -9.634e-7, -5.582e-7, 4.052e-7
0.449, -9.640e-7, -5.591e-7, 4.049e-7
0.448, -9.655e-7, -5.612e-7, 4.043e-7
0.447, -9.680e-7, -5.631e-7, 4.049e-7
0.446, -9.680e-7, -5.622e-7, 4.058e-7
0.445, -9.692e-7, -5.652e-7, 4.040e-7
0.444, -9.722e-7, -5.667e-7, 4.055e-7
0.443, -9.707e-7, -5.664e-7, 4.043e-7
0.442, -9.722e-7, -5.676e-7, 4.046e-7
0.441, -9.747e-7, -5.686e-7, 4.061e-7
0.440, -9.728e-7, -5.686e-7, 4.043e-7
0.439, -9.750e-7, -5.707e-7, 4.043e-7
0.438, -9.771e-7, -5.722e-7, 4.049e-7
0.437, -9.783e-7, -5.725e-7, 4.058e-7
0.436, -9.796e-7, -5.744e-7, 4.052e-7
0.435, -9.808e-7, -5.753e-7, 4.055e-7
0.434, -9.817e-7, -5.756e-7, 4.061e-7
0.433, -9.841e-7, -5.789e-7, 4.052e-7
0.432, -9.860e-7, -5.795e-7, 4.064e-7
0.431, -9.863e-7, -5.799e-7, 4.064e-7
0.430, -9.890e-7, -5.823e-7, 4.067e-7
0.429, -9.902e-7, -5.823e-7, 4.079e-7
0.428, -9.908e-7, -5.844e-7, 4.064e-7
0.427, -9.908e-7, -5.853e-7, 4.055e-7
0.426, -9.936e-7, -5.863e-7, 4.073e-7
0.425, -9.936e-7, -5.860e-7, 4.076e-7
0.424, -9.973e-7, -5.908e-7, 4.064e-7
0.423, -1.000e-6, -5.905e-7, 4.095e-7
0.422, -9.985e-7, -5.896e-7, 4.089e-7
0.421, -1.002e-6, -5.939e-7, 4.086e-7
0.420, -1.004e-6, -5.939e-7, 4.098e-7
0.419, -1.004e-6, -5.951e-7, 4.092e-7
0.418, -1.005e-6, -5.963e-7, 4.092e-7
0.417, -1.008e-6, -5.982e-7, 4.101e-7
0.416, -1.008e-6, -5.994e-7, 4.089e-7
0.415, -1.010e-6, -6.009e-7, 4.092e-7
0.414, -1.013e-6, -6.024e-7, 4.107e-7
0.413, -1.014e-6, -6.027e-7, 4.110e-7
0.412, -1.015e-6, -6.043e-7, 4.104e-7
0.411, -1.018e-6, -6.070e-7, 4.110e-7
0.410, -1.017e-6, -6.064e-7, 4.110e-7
0.409, -1.020e-6, -6.088e-7, 4.110e-7
0.408, -1.025e-6, -6.113e-7, 4.137e-7
0.407, -1.025e-6, -6.113e-7, 4.134e-7
0.406, -1.024e-6, -6.119e-7, 4.122e-7
0.405, -1.027e-6, -6.137e-7, 4.137e-7
0.404, -1.028e-6, -6.152e-7, 4.131e-7
0.403, -1.029e-6, -6.159e-7, 4.134e-7
0.402, -1.033e-6, -6.186e-7, 4.144e-7
0.401, -1.034e-6, -6.192e-7, 4.147e-7
0.400, -1.035e-6, -6.214e-7, 4.134e-7
0.399, -1.038e-6, -6.214e-7, 4.165e-7
0.398, -1.038e-6, -6.229e-7, 4.156e-7
0.397, -1.041e-6, -6.250e-7, 4.162e-7
0.396, -1.044e-6, -6.262e-7, 4.174e-7
0.395, -1.046e-6, -6.284e-7, 4.177e-7
0.394, -1.046e-6, -6.287e-7, 4.177e-7
0.393, -1.049e-6, -6.317e-7, 4.171e-7
0.392, -1.050e-6, -6.308e-7, 4.189e-7
0.391, -1.052e-6, -6.342e-7, 4.180e-7
0.390, -1.052e-6, -6.342e-7, 4.183e-7
0.389, -1.056e-6, -6.366e-7, 4.195e-7
0.388, -1.059e-6, -6.391e-7, 4.195e-7
0.387, -1.061e-6, -6.412e-7, 4.202e-7
0.386, -1.065e-6, -6.427e-7, 4.226e-7
0.385, -1.064e-6, -6.448e-7, 4.189e-7
0.384, -1.069e-6, -6.461e-7, 4.226e-7
0.383, -1.069e-6, -6.464e-7, 4.229e-7
0.382, -1.069e-6, -6.482e-7, 4.205e-7
0.381, -1.075e-6, -6.500e-7, 4.250e-7
0.380, -1.074e-6, -6.503e-7, 4.235e-7
0.379, -1.075e-6, -6.522e-7, 4.229e-7
0.378, -1.080e-6, -6.555e-7, 4.241e-7
0.377, -1.083e-6, -6.568e-7, 4.263e-7
0.376, -1.081e-6, -6.574e-7, 4.235e-7
0.375, -1.087e-6, -6.592e-7, 4.278e-7
0.374, -1.088e-6, -6.607e-7, 4.272e-7
0.373, -1.089e-6, -6.632e-7, 4.263e-7
0.372, -1.092e-6, -6.650e-7, 4.269e-7
0.371, -1.096e-6, -6.665e-7, 4.299e-7
0.370, -1.096e-6, -6.668e-7, 4.296e-7
0.369, -1.097e-6, -6.677e-7, 4.290e-7
0.368, -1.100e-6, -6.699e-7, 4.299e-7
0.367, -1.103e-6, -6.723e-7, 4.305e-7
0.366, -1.106e-6, -6.745e-7, 4.317e-7
0.365, -1.107e-6, -6.757e-7, 4.314e-7
0.364, -1.108e-6, -6.769e-7, 4.308e-7
0.363, -1.116e-6, -6.809e-7, 4.348e-7
0.362, -1.113e-6, -6.790e-7, 4.336e-7
0.361, -1.116e-6, -6.836e-7, 4.324e-7
0.360, -1.117e-6, -6.827e-7, 4.345e-7
0.359, -1.122e-6, -6.857e-7, 4.363e-7
0.358, -1.123e-6, -6.879e-7, 4.348e-7
0.357, -1.127e-6, -6.894e-7, 4.372e-7
0.356, -1.127e-6, -6.906e-7, 4.366e-7
0.355, -1.132e-6, -6.946e-7, 4.369e-7
0.354, -1.135e-6, -6.946e-7, 4.406e-7
0.353, -1.135e-6, -6.964e-7, 4.391e-7
0.352, -1.140e-6, -6.986e-7, 4.412e-7
0.351, -1.143e-6, -7.004e-7, 4.424e-7
0.350, -1.144e-6, -7.022e-7, 4.415e-7
0.349, -1.143e-6, -7.028e-7, 4.406e-7
0.348, -1.148e-6, -7.050e-7, 4.427e-7
0.347, -1.148e-6, -7.056e-7, 4.424e-7
0.346, -1.149e-6, -7.071e-7, 4.418e-7
0.345, -1.154e-6, -7.105e-7, 4.440e-7
0.344, -1.156e-6, -7.108e-7, 4.452e-7
0.343, -1.159e-6, -7.141e-7, 4.452e-7
0.342, -1.163e-6, -7.172e-7, 4.461e-7
0.341, -1.163e-6, -7.172e-7, 4.458e-7
0.340, -1.165e-6, -7.181e-7, 4.467e-7
0.339, -1.171e-6, -7.224e-7, 4.488e-7
0.338, -1.169e-6, -7.208e-7, 4.482e-7
0.337, -1.173e-6, -7.230e-7, 4.498e-7
0.336, -1.176e-6, -7.263e-7, 4.501e-7
0.335, -1.178e-6, -7.288e-7, 4.491e-7
0.334, -1.181e-6, -7.294e-7, 4.513e-7
0.333, -1.181e-6, -7.300e-7, 4.513e-7
0.332, -1.187e-6, -7.327e-7, 4.546e-7
0.331, -1.190e-6, -7.361e-7, 4.534e-7
0.330, -1.194e-6, -7.385e-7, 4.559e-7
0.329, -1.193e-6, -7.382e-7, 4.552e-7
0.328, -1.197e-6, -7.416e-7, 4.549e-7
0.327, -1.199e-6, -7.425e-7, 4.562e-7
0.326, -1.201e-6, -7.431e-7, 4.580e-7
0.325, -1.204e-6, -7.465e-7, 4.577e-7
0.324, -1.204e-6, -7.477e-7, 4.562e-7
0.323, -1.208e-6, -7.480e-7, 4.598e-7
0.322, -1.210e-6, -7.501e-7, 4.601e-7
0.321, -1.213e-6, -7.523e-7, 4.607e-7
0.320, -1.216e-6, -7.541e-7, 4.617e-7
0.319, -1.220e-6, -7.575e-7, 4.623e-7
0.318, -1.222e-6, -7.568e-7, 4.650e-7
0.317, -1.224e-6, -7.590e-7, 4.650e-7
0.316, -1.227e-6, -7.623e-7, 4.644e-7
0.315, -1.229e-6, -7.633e-7, 4.656e-7
0.314, -1.231e-6, -7.642e-7, 4.671e-7
0.313, -1.235e-6, -7.666e-7, 4.684e-7
0.312, -1.238e-6, -7.694e-7, 4.687e-7
0.311, -1.239e-6, -7.697e-7, 4.690e-7
0.310, -1.240e-6, -7.715e-7, 4.684e-7
0.309, -1.246e-6, -7.742e-7, 4.714e-7
0.308, -1.247e-6, -7.748e-7, 4.720e-7
0.307, -1.248e-6, -7.776e-7, 4.705e-7
0.306, -1.254e-6, -7.813e-7, 4.723e-7
0.305, -1.254e-6, -7.800e-7, 4.736e-7
0.304, -1.256e-6, -7.834e-7, 4.729e-7
0.303, -1.257e-6, -7.831e-7, 4.742e-7
0.302, -1.262e-6, -7.855e-7, 4.769e-7
0.301, -1.263e-6, -7.871e-7, 4.757e-7
0.300, -1.269e-6, -7.913e-7, 4.781e-7
0.299, -1.268e-6, -7.898e-7, 4.784e-7
0.298, -1.271e-6, -7.932e-7, 4.778e-7
0.297, -1.276e-6, -7.959e-7, 4.803e-7
0.296, -1.279e-6, -7.962e-7, 4.824e-7
0.295, -1.279e-6, -7.977e-7, 4.809e-7
0.294, -1.284e-6, -7.999e-7, 4.839e-7
0.293, -1.286e-6, -8.017e-7, 4.845e-7
0.292, -1.287e-6, -8.029e-7, 4.842e-7
0.291, -1.289e-6, -8.035e-7, 4.851e-7
0.290, -1.294e-6, -8.069e-7, 4.876e-7
0.289, -1.295e-6, -8.090e-7, 4.861e-7
0.288, -1.299e-6, -8.099e-7, 4.894e-7
0.287, -1.301e-6, -8.112e-7, 4.897e-7
0.286, -1.303e-6, -8.127e-7, 4.900e-7
0.285, -1.305e-6, -8.148e-7, 4.903e-7
0.284, -1.307e-6, -8.151e-7, 4.919e-7
0.283, -1.307e-6, -8.157e-7, 4.913e-7
0.282, -1.313e-6, -8.200e-7, 4.931e-7
0.281, -1.317e-6, -8.221e-7, 4.946e-7
0.280, -1.319e-6, -8.234e-7, 4.952e-7
0.279, -1.321e-6, -8.240e-7, 4.971e-7
0.278, -1.321e-6, -8.243e-7, 4.971e-7
0.277, -1.327e-6, -8.286e-7, 4.983e-7
0.276, -1.329e-6, -8.292e-7, 4.995e-7
0.275, -1.331e-6, -8.304e-7, 5.004e-7
0.274, -1.334e-6, -8.340e-7, 4.998e-7
0.273, -1.334e-6, -8.334e-7, 5.007e-7
0.272, -1.338e-6, -8.344e-7, 5.032e-7
0.271, -1.337e-6, -8.350e-7, 5.016e-7
0.270, -1.344e-6, -8.386e-7, 5.050e-7
0.269, -1.341e-6, -8.368e-7, 5.038e-7
0.268, -1.347e-6, -8.405e-7, 5.068e-7
0.267, -1.350e-6, -8.423e-7, 5.080e-7
0.266, -1.350e-6, -8.414e-7, 5.086e-7
0.265, -1.352e-6, -8.444e-7, 5.080e-7
0.264, -1.357e-6, -8.472e-7, 5.102e-7
0.263, -1.360e-6, -8.475e-7, 5.126e-7
0.262, -1.360e-6, -8.484e-7, 5.120e-7
0.261, -1.362e-6, -8.514e-7, 5.108e-7
0.260, -1.365e-6, -8.493e-7, 5.154e-7
0.259, -1.366e-6, -8.530e-7, 5.132e-7
0.258, -1.368e-6, -8.530e-7, 5.151e-7
0.257, -1.370e-6, -8.542e-7, 5.157e-7
0.256, -1.372e-6, -8.557e-7, 5.160e-7
0.255, -1.374e-6, -8.569e-7, 5.172e-7
0.254, -1.377e-6, -8.582e-7, 5.184e-7
0.253, -1.379e-6, -8.600e-7, 5.193e-7
0.252, -1.383e-6, -8.633e-7, 5.199e-7
0.251, -1.383e-6, -8.621e-7, 5.209e-7
0.250, -1.386e-6, -8.636e-7, 5.227e-7
0.249, -1.387e-6, -8.630e-7, 5.239e-7
0.248, -1.390e-6, -8.655e-7, 5.245e-7
0.247, -1.393e-6, -8.679e-7, 5.251e-7
0.246, -1.396e-6, -8.685e-7, 5.276e-7
0.245, -1.396e-6, -8.685e-7, 5.276e-7
0.244, -1.397e-6, -8.707e-7, 5.267e-7
0.243, -1.400e-6, -8.719e-7, 5.285e-7
0.242, -1.400e-6, -8.701e-7, 5.303e-7
0.241, -1.403e-6, -8.722e-7, 5.306e-7
0.240, -1.406e-6, -8.746e-7, 5.315e-7
0.239, -1.409e-6, -8.749e-7, 5.337e-7
0.238, -1.408e-6, -8.746e-7, 5.334e-7
0.237, -1.411e-6, -8.777e-7, 5.337e-7
0.236, -1.415e-6, -8.777e-7, 5.370e-7
0.235, -1.413e-6, -8.774e-7, 5.358e-7
0.234, -1.417e-6, -8.801e-7, 5.367e-7
0.233, -1.418e-6, -8.810e-7, 5.367e-7
0.232, -1.418e-6, -8.807e-7, 5.373e-7
0.231, -1.421e-6, -8.810e-7, 5.401e-7
0.230, -1.425e-6, -8.832e-7, 5.419e-7
0.229, -1.424e-6, -8.835e-7, 5.410e-7
0.228, -1.427e-6, -8.835e-7, 5.437e-7
0.227, -1.428e-6, -8.850e-7, 5.431e-7
0.226, -1.431e-6, -8.881e-7, 5.425e-7
0.225, -1.430e-6, -8.871e-7, 5.431e-7
0.224, -1.433e-6, -8.859e-7, 5.474e-7
0.223, -1.434e-6, -8.875e-7, 5.465e-7
0.222, -1.435e-6, -8.887e-7, 5.465e-7
0.221, -1.437e-6, -8.871e-7, 5.495e-7
0.220, -1.439e-6, -8.896e-7, 5.492e-7
0.219, -1.440e-6, -8.890e-7, 5.514e-7
0.218, -1.442e-6, -8.902e-7, 5.520e-7
0.217, -1.442e-6, -8.908e-7, 5.514e-7
0.216, -1.446e-6, -8.923e-7, 5.535e-7
0.215, -1.445e-6, -8.908e-7, 5.544e-7
0.214, -1.447e-6, -8.929e-7, 5.538e-7
0.213, -1.449e-6, -8.917e-7, 5.569e-7
0.212, -1.448e-6, -8.911e-7, 5.566e-7
0.211, -1.448e-6, -8.914e-7, 5.569e-7
0.210, -1.450e-6, -8.929e-7, 5.575e-7
0.209, -1.454e-6, -8.929e-7, 5.608e-7
0.208, -1.454e-6, -8.951e-7, 5.590e-7
0.207, -1.455e-6, -8.942e-7, 5.608e-7
0.206, -1.455e-6, -8.939e-7, 5.614e-7
0.205, -1.455e-6, -8.948e-7, 5.605e-7
0.204, -1.456e-6, -8.945e-7, 5.614e-7
0.203, -1.458e-6, -8.942e-7, 5.642e-7
0.202, -1.461e-6, -8.969e-7, 5.639e-7
0.201, -1.461e-6, -8.963e-7, 5.648e-7
0.200, -1.459e-6, -8.932e-7, 5.657e-7
0.199, -1.461e-6, -8.957e-7, 5.657e-7
0.198, -1.461e-6, -8.957e-7, 5.657e-7
0.197, -1.462e-6, -8.945e-7, 5.678e-7
0.196, -1.462e-6, -8.954e-7, 5.663e-7
0.195, -1.465e-6, -8.954e-7, 5.700e-7
0.194, -1.468e-6, -8.972e-7, 5.706e-7
0.193, -1.466e-6, -8.966e-7, 5.694e-7
0.192, -1.466e-6, -8.948e-7, 5.712e-7
0.191, -1.467e-6, -8.954e-7, 5.715e-7
0.190, -1.467e-6, -8.957e-7, 5.715e-7
0.189, -1.468e-6, -8.957e-7, 5.724e-7
0.188, -1.468e-6, -8.942e-7, 5.736e-7
0.187, -1.467e-6, -8.920e-7, 5.746e-7
0.186, -1.471e-6, -8.948e-7, 5.764e-7
0.185, -1.469e-6, -8.939e-7, 5.749e-7
0.184, -1.467e-6, -8.920e-7, 5.749e-7
0.183, -1.469e-6, -8.929e-7, 5.764e-7
0.182, -1.471e-6, -8.932e-7, 5.776e-7
0.181, -1.470e-6, -8.923e-7, 5.776e-7
0.180, -1.472e-6, -8.932e-7, 5.788e-7
0.179, -1.468e-6, -8.902e-7, 5.779e-7
0.178, -1.470e-6, -8.905e-7, 5.794e-7
0.177, -1.470e-6, -8.914e-7, 5.782e-7
0.176, -1.470e-6, -8.893e-7, 5.804e-7
0.175, -1.470e-6, -8.899e-7, 5.801e-7
0.174, -1.472e-6, -8.905e-7, 5.819e-7
0.173, -1.471e-6, -8.890e-7, 5.816e-7
0.172, -1.471e-6, -8.881e-7, 5.825e-7
0.171, -1.469e-6, -8.878e-7, 5.816e-7
0.170, -1.472e-6, -8.878e-7, 5.846e-7
0.169, -1.473e-6, -8.881e-7, 5.846e-7
0.168, -1.471e-6, -8.868e-7, 5.843e-7
0.167, -1.471e-6, -8.844e-7, 5.865e-7
0.166, -1.470e-6, -8.838e-7, 5.862e-7
0.165, -1.472e-6, -8.856e-7, 5.862e-7
0.164, -1.470e-6, -8.829e-7, 5.871e-7
0.163, -1.471e-6, -8.850e-7, 5.855e-7
0.162, -1.470e-6, -8.820e-7, 5.877e-7
0.161, -1.469e-6, -8.804e-7, 5.889e-7
0.160, -1.468e-6, -8.820e-7, 5.859e-7
0.159, -1.468e-6, -8.801e-7, 5.877e-7
0.158, -1.468e-6, -8.786e-7, 5.895e-7
0.157, -1.465e-6, -8.768e-7, 5.886e-7
0.156, -1.467e-6, -8.774e-7, 5.895e-7
0.155, -1.467e-6, -8.749e-7, 5.916e-7
0.154, -1.462e-6, -8.740e-7, 5.880e-7
0.153, -1.464e-6, -8.743e-7, 5.895e-7
0.152, -1.464e-6, -8.743e-7, 5.895e-7
0.151, -1.463e-6, -8.737e-7, 5.895e-7
0.150, -1.462e-6, -8.725e-7, 5.892e-7
0.149, -1.463e-6, -8.719e-7, 5.907e-7
0.148, -1.460e-6, -8.701e-7, 5.904e-7
0.147, -1.459e-6, -8.701e-7, 5.886e-7
0.146, -1.461e-6, -8.679e-7, 5.932e-7
0.145, -1.460e-6, -8.682e-7, 5.920e-7
0.144, -1.459e-6, -8.676e-7, 5.913e-7
0.143, -1.458e-6, -8.649e-7, 5.932e-7
0.142, -1.457e-6, -8.649e-7, 5.923e-7
0.141, -1.457e-6, -8.637e-7, 5.932e-7
0.140, -1.454e-6, -8.615e-7, 5.923e-7
0.139, -1.453e-6, -8.600e-7, 5.929e-7
0.138, -1.453e-6, -8.600e-7, 5.935e-7
0.137, -1.451e-6, -8.588e-7, 5.923e-7
0.136, -1.451e-6, -8.582e-7, 5.926e-7
0.135, -1.448e-6, -8.560e-7, 5.920e-7
0.134, -1.447e-6, -8.548e-7, 5.920e-7
0.133, -1.445e-6, -8.545e-7, 5.907e-7
0.132, -1.446e-6, -8.551e-7, 5.907e-7
0.131, -1.446e-6, -8.527e-7, 5.929e-7
0.130, -1.443e-6, -8.514e-7, 5.913e-7
0.129, -1.444e-6, -8.505e-7, 5.932e-7
0.128, -1.442e-6, -8.496e-7, 5.920e-7
0.127, -1.438e-6, -8.469e-7, 5.910e-7
0.126, -1.439e-6, -8.481e-7, 5.910e-7
0.125, -1.437e-6, -8.444e-7, 5.929e-7
0.124, -1.435e-6, -8.444e-7, 5.910e-7
0.123, -1.435e-6, -8.435e-7, 5.910e-7
0.122, -1.432e-6, -8.408e-7, 5.910e-7
0.121, -1.429e-6, -8.398e-7, 5.895e-7
0.120, -1.427e-6, -8.371e-7, 5.901e-7
0.119, -1.429e-6, -8.380e-7, 5.907e-7
0.118, -1.426e-6, -8.371e-7, 5.892e-7
0.117, -1.424e-6, -8.347e-7, 5.892e-7
0.116, -1.425e-6, -8.347e-7, 5.901e-7
0.115, -1.422e-6, -8.337e-7, 5.886e-7
0.114, -1.421e-6, -8.322e-7, 5.892e-7
0.113, -1.419e-6, -8.292e-7, 5.898e-7
0.112, -1.416e-6, -8.292e-7, 5.865e-7
0.111, -1.416e-6, -8.289e-7, 5.868e-7
0.110, -1.412e-6, -8.252e-7, 5.868e-7
0.109, -1.410e-6, -8.246e-7, 5.855e-7
0.108, -1.410e-6, -8.243e-7, 5.862e-7
0.107, -1.409e-6, -8.225e-7, 5.865e-7
0.106, -1.407e-6, -8.218e-7, 5.849e-7
0.105, -1.406e-6, -8.197e-7, 5.858e-7
0.104, -1.403e-6, -8.182e-7, 5.846e-7
0.103, -1.402e-6, -8.176e-7, 5.843e-7
0.102, -1.400e-6, -8.160e-7, 5.837e-7
0.101, -1.401e-6, -8.154e-7, 5.852e-7
0.100, -1.396e-6, -8.136e-7, 5.825e-7
0.099, -1.395e-6, -8.127e-7, 5.828e-7
0.098, -1.393e-6, -8.109e-7, 5.822e-7
0.097, -1.391e-6, -8.102e-7, 5.810e-7
0.096, -1.391e-6, -8.096e-7, 5.810e-7
0.095, -1.387e-6, -8.060e-7, 5.810e-7
0.094, -1.385e-6, -8.048e-7, 5.797e-7
0.093, -1.384e-6, -8.045e-7, 5.797e-7
0.092, -1.384e-6, -8.038e-7, 5.801e-7
0.091, -1.380e-6, -8.011e-7, 5.785e-7
0.090, -1.377e-6, -8.008e-7, 5.764e-7
0.089, -1.377e-6, -7.990e-7, 5.776e-7
0.088, -1.374e-6, -7.983e-7, 5.755e-7
0.087, -1.374e-6, -7.983e-7, 5.755e-7
0.086, -1.372e-6, -7.950e-7, 5.767e-7
0.085, -1.370e-6, -7.956e-7, 5.749e-7
0.084, -1.366e-6, -7.929e-7, 5.736e-7
0.083, -1.366e-6, -7.913e-7, 5.743e-7
0.082, -1.364e-6, -7.913e-7, 5.727e-7
0.081, -1.363e-6, -7.892e-7, 5.736e-7
0.080, -1.361e-6, -7.886e-7, 5.727e-7
0.079, -1.359e-6, -7.880e-7, 5.706e-7
0.078, -1.356e-6, -7.861e-7, 5.697e-7
0.077, -1.354e-6, -7.846e-7, 5.697e-7
0.076, -1.352e-6, -7.834e-7, 5.691e-7
0.075, -1.351e-6, -7.822e-7, 5.688e-7
0.074, -1.348e-6, -7.800e-7, 5.675e-7
0.073, -1.345e-6, -7.785e-7, 5.669e-7
0.072, -1.346e-6, -7.803e-7, 5.660e-7
0.071, -1.341e-6, -7.767e-7, 5.639e-7
0.070, -1.338e-6, -7.752e-7, 5.633e-7
0.069, -1.338e-6, -7.770e-7, 5.608e-7
0.068, -1.336e-6, -7.745e-7, 5.617e-7
0.067, -1.334e-6, -7.724e-7, 5.617e-7
0.066, -1.335e-6, -7.730e-7, 5.617e-7
0.065, -1.330e-6, -7.697e-7, 5.599e-7
0.064, -1.328e-6, -7.694e-7, 5.590e-7
0.063, -1.329e-6, -7.703e-7, 5.590e-7
0.062, -1.326e-6, -7.669e-7, 5.590e-7
0.061, -1.321e-6, -7.657e-7, 5.556e-7
0.060, -1.321e-6, -7.663e-7, 5.547e-7
0.059, -1.320e-6, -7.648e-7, 5.550e-7
0.058, -1.317e-6, -7.633e-7, 5.541e-7
0.057, -1.317e-6, -7.633e-7, 5.541e-7
0.056, -1.313e-6, -7.599e-7, 5.535e-7
0.055, -1.312e-6, -7.602e-7, 5.520e-7
0.054, -1.311e-6, -7.608e-7, 5.498e-7
0.053, -1.306e-6, -7.575e-7, 5.486e-7
0.052, -1.305e-6, -7.568e-7, 5.486e-7
0.051, -1.303e-6, -7.550e-7, 5.480e-7
0.050, -1.303e-6, -7.553e-7, 5.480e-7
0.049, -1.297e-6, -7.541e-7, 5.431e-7
0.048, -1.304e-6, -7.572e-7, 5.465e-7
0.047, -1.300e-6, -7.541e-7, 5.456e-7
0.046, -1.297e-6, -7.526e-7, 5.440e-7
0.045, -1.295e-6, -7.526e-7, 5.428e-7
0.044, -1.295e-6, -7.523e-7, 5.425e-7
0.043, -1.291e-6, -7.492e-7, 5.413e-7
0.042, -1.289e-6, -7.483e-7, 5.407e-7
0.041, -1.286e-6, -7.471e-7, 5.389e-7
0.040, -1.285e-6, -7.465e-7, 5.385e-7
0.039, -1.286e-6, -7.480e-7, 5.379e-7
0.038, -1.283e-6, -7.449e-7, 5.376e-7
0.037, -1.280e-6, -7.446e-7, 5.355e-7
0.036, -1.280e-6, -7.443e-7, 5.355e-7
0.035, -1.277e-6, -7.422e-7, 5.352e-7
0.034, -1.276e-6, -7.422e-7, 5.340e-7
0.033, -1.275e-6, -7.425e-7, 5.324e-7
0.032, -1.273e-6, -7.398e-7, 5.331e-7
0.031, -1.271e-6, -7.401e-7, 5.306e-7
0.030, -1.270e-6, -7.398e-7, 5.303e-7
0.029, -1.267e-6, -7.385e-7, 5.285e-7
0.028, -1.266e-6, -7.373e-7, 5.288e-7
0.027, -1.267e-6, -7.361e-7, 5.309e-7
0.026, -1.265e-6, -7.355e-7, 5.294e-7
0.025, -1.261e-6, -7.346e-7, 5.263e-7
0.024, -1.263e-6, -7.358e-7, 5.273e-7
0.023, -1.261e-6, -7.352e-7, 5.254e-7
0.022, -1.257e-6, -7.343e-7, 5.227e-7
0.021, -1.257e-6, -7.352e-7, 5.221e-7
0.020, -1.257e-6, -7.346e-7, 5.221e-7
0.019, -1.255e-6, -7.324e-7, 5.221e-7
0.018, -1.251e-6, -7.309e-7, 5.199e-7
0.017, -1.252e-6, -7.297e-7, 5.227e-7
0.016, -1.249e-6, -7.303e-7, 5.187e-7
0.015, -1.249e-6, -7.303e-7, 5.190e-7
0.014, -1.247e-6, -7.282e-7, 5.190e-7
0.013, -1.245e-6, -7.294e-7, 5.154e-7
0.012, -1.246e-6, -7.285e-7, 5.172e-7
0.011, -1.244e-6, -7.266e-7, 5.172e-7
0.010, -1.241e-6, -7.263e-7, 5.147e-7
0.009, -1.239e-6, -7.260e-7, 5.129e-7
0.008, -1.241e-6, -7.269e-7, 5.144e-7
0.007, -1.238e-6, -7.251e-7, 5.129e-7
0.006, -1.236e-6, -7.248e-7, 5.114e-7
0.005, -1.235e-6, -7.236e-7, 5.114e-7
0.004, -1.232e-6, -7.224e-7, 5.099e-7
0.003, -1.233e-6, -7.242e-7, 5.093e-7
0.002, -1.232e-6, -7.224e-7, 5.096e-7
0.001, -1.230e-6, -7.218e-7, 5.083e-7
-0.000, -1.231e-6, -7.227e-7, 5.080e-7
-0.001, -1.228e-6, -7.218e-7, 5.062e-7
-0.002, -1.228e-6, -7.218e-7, 5.065e-7
-0.003, -1.228e-6, -7.208e-7, 5.068e-7
-0.004, -1.224e-6, -7.199e-7, 5.044e-7
-0.005, -1.225e-6, -7.193e-7, 5.053e-7
-0.006, -1.223e-6, -7.193e-7, 5.041e-7
-0.007, -1.222e-6, -7.181e-7, 5.038e-7
-0.008, -1.221e-6, -7.190e-7, 5.022e-7
-0.009, -1.221e-6, -7.181e-7, 5.032e-7
-0.010, -1.219e-6, -7.169e-7, 5.025e-7
-0.011, -1.218e-6, -7.181e-7, 4.998e-7
-0.012, -1.216e-6, -7.163e-7, 4.995e-7
-0.013, -1.217e-6, -7.172e-7, 4.995e-7
-0.014, -1.214e-6, -7.150e-7, 4.986e-7
-0.015, -1.215e-6, -7.157e-7, 4.989e-7
-0.016, -1.214e-6, -7.153e-7, 4.989e-7
-0.017, -1.214e-6, -7.157e-7, 4.983e-7
-0.018, -1.212e-6, -7.150e-7, 4.970e-7
-0.019, -1.211e-6, -7.138e-7, 4.977e-7
-0.020, -1.211e-6, -7.141e-7, 4.974e-7
-0.021, -1.211e-6, -7.144e-7, 4.964e-7
-0.022, -1.210e-6, -7.129e-7, 4.967e-7
-0.023, -1.208e-6, -7.141e-7, 4.937e-7
-0.024, -1.206e-6, -7.126e-7, 4.937e-7
-0.025, -1.206e-6, -7.120e-7, 4.943e-7
-0.026, -1.208e-6, -7.126e-7, 4.958e-7
-0.027, -1.205e-6, -7.126e-7, 4.928e-7
-0.028, -1.202e-6, -7.111e-7, 4.906e-7
-0.029, -1.205e-6, -7.123e-7, 4.928e-7
-0.030, -1.205e-6, -7.129e-7, 4.922e-7
-0.031, -1.200e-6, -7.105e-7, 4.900e-7
-0.032, -1.200e-6, -7.095e-7, 4.906e-7
-0.033, -1.201e-6, -7.117e-7, 4.894e-7
-0.034, -1.198e-6, -7.080e-7, 4.897e-7
-0.035, -1.199e-6, -7.089e-7, 4.897e-7
-0.036, -1.199e-6, -7.089e-7, 4.897e-7
-0.037, -1.197e-6, -7.083e-7, 4.888e-7
-0.038, -1.197e-6, -7.086e-7, 4.882e-7
-0.039, -1.194e-6, -7.083e-7, 4.861e-7
-0.040, -1.196e-6, -7.077e-7, 4.882e-7
-0.041, -1.193e-6, -7.068e-7, 4.864e-7
-0.042, -1.195e-6, -7.080e-7, 4.870e-7
-0.043, -1.195e-6, -7.080e-7, 4.870e-7
-0.044, -1.194e-6, -7.071e-7, 4.870e-7
-0.045, -1.194e-6, -7.083e-7, 4.855e-7
-0.046, -1.190e-6, -7.053e-7, 4.848e-7
-0.047, -1.192e-6, -7.068e-7, 4.851e-7
-0.048, -1.190e-6, -7.053e-7, 4.842e-7
-0.049, -1.189e-6, -7.050e-7, 4.836e-7
-0.050, -1.187e-6, -7.047e-7, 4.827e-7
