Feb. 28, 2018   11:36:52
Square Wave Voltammetry
File: c:\users\electrochemist\desktop\2018\28022018_unbuffered_9,2\16_e6_9,2_0118_ph5,55_4.txt
Data Source:  Experiment
Instrument Model:  CHI1040A
Header: 
Note: 

Init E (V) = 0.5
Final E (V) = -0.05
Incr E (V) = 0.001
Amplitude (V) = 0.1
Frequency (Hz) = 150
Quiet Time (sec) = 0
Sensitivity (A/V) = 1e-6

Difference:

Forward:

Reverse:

Potential/V, Diff(i/A), For(i/A), Rev(i/A)

0.499, -7.910e-7, -2.054e-7, 5.855e-7
0.498, -9.869e-7, -4.819e-7, 5.050e-7
0.497, -9.789e-7, -5.017e-7, 4.772e-7
0.496, -9.738e-7, -5.084e-7, 4.653e-7
0.495, -9.680e-7, -5.121e-7, 4.559e-7
0.494, -9.606e-7, -5.133e-7, 4.473e-7
0.493, -9.585e-7, -5.164e-7, 4.421e-7
0.492, -9.515e-7, -5.155e-7, 4.360e-7
0.491, -9.503e-7, -5.194e-7, 4.308e-7
0.490, -9.509e-7, -5.213e-7, 4.296e-7
0.489, -9.509e-7, -5.213e-7, 4.296e-7
0.488, -9.457e-7, -5.210e-7, 4.247e-7
0.487, -9.481e-7, -5.240e-7, 4.241e-7
0.486, -9.454e-7, -5.234e-7, 4.220e-7
0.485, -9.439e-7, -5.252e-7, 4.186e-7
0.484, -9.457e-7, -5.283e-7, 4.174e-7
0.483, -9.445e-7, -5.271e-7, 4.174e-7
0.482, -9.429e-7, -5.283e-7, 4.147e-7
0.481, -9.432e-7, -5.286e-7, 4.147e-7
0.480, -9.411e-7, -5.286e-7, 4.125e-7
0.479, -9.423e-7, -5.307e-7, 4.116e-7
0.478, -9.417e-7, -5.319e-7, 4.098e-7
0.477, -9.423e-7, -5.304e-7, 4.119e-7
0.476, -9.417e-7, -5.322e-7, 4.095e-7
0.475, -9.423e-7, -5.344e-7, 4.079e-7
0.474, -9.417e-7, -5.338e-7, 4.079e-7
0.473, -9.429e-7, -5.356e-7, 4.073e-7
0.472, -9.439e-7, -5.365e-7, 4.073e-7
0.471, -9.439e-7, -5.365e-7, 4.073e-7
0.470, -9.439e-7, -5.380e-7, 4.058e-7
0.469, -9.448e-7, -5.402e-7, 4.046e-7
0.468, -9.451e-7, -5.393e-7, 4.058e-7
0.467, -9.451e-7, -5.402e-7, 4.049e-7
0.466, -9.481e-7, -5.420e-7, 4.061e-7
0.465, -9.460e-7, -5.414e-7, 4.046e-7
0.464, -9.478e-7, -5.441e-7, 4.037e-7
0.463, -9.500e-7, -5.463e-7, 4.037e-7
0.462, -9.475e-7, -5.441e-7, 4.034e-7
0.461, -9.445e-7, -5.457e-7, 3.988e-7
0.460, -9.515e-7, -5.490e-7, 4.025e-7
0.459, -9.521e-7, -5.484e-7, 4.037e-7
0.458, -9.527e-7, -5.515e-7, 4.012e-7
0.457, -9.542e-7, -5.512e-7, 4.031e-7
0.456, -9.573e-7, -5.518e-7, 4.055e-7
0.455, -9.539e-7, -5.524e-7, 4.015e-7
0.454, -9.573e-7, -5.542e-7, 4.031e-7
0.453, -9.576e-7, -5.542e-7, 4.034e-7
0.452, -9.561e-7, -5.545e-7, 4.015e-7
0.451, -9.603e-7, -5.582e-7, 4.021e-7
0.450, -9.579e-7, -5.551e-7, 4.028e-7
0.449, -9.609e-7, -5.594e-7, 4.015e-7
0.448, -9.628e-7, -5.609e-7, 4.018e-7
0.447, -9.643e-7, -5.606e-7, 4.037e-7
0.446, -9.655e-7, -5.634e-7, 4.021e-7
0.445, -9.658e-7, -5.634e-7, 4.025e-7
0.444, -9.674e-7, -5.634e-7, 4.040e-7
0.443, -9.677e-7, -5.655e-7, 4.021e-7
0.442, -9.686e-7, -5.673e-7, 4.012e-7
0.441, -9.707e-7, -5.658e-7, 4.049e-7
0.440, -9.689e-7, -5.686e-7, 4.003e-7
0.439, -9.731e-7, -5.704e-7, 4.028e-7
0.438, -9.747e-7, -5.716e-7, 4.031e-7
0.437, -9.747e-7, -5.713e-7, 4.034e-7
0.436, -9.774e-7, -5.737e-7, 4.037e-7
0.435, -9.786e-7, -5.753e-7, 4.034e-7
0.434, -9.774e-7, -5.747e-7, 4.028e-7
0.433, -9.805e-7, -5.768e-7, 4.037e-7
0.432, -9.814e-7, -5.780e-7, 4.034e-7
0.431, -9.851e-7, -5.789e-7, 4.061e-7
0.430, -9.863e-7, -5.829e-7, 4.034e-7
0.429, -9.847e-7, -5.808e-7, 4.040e-7
0.428, -9.869e-7, -5.838e-7, 4.031e-7
0.427, -9.899e-7, -5.847e-7, 4.052e-7
0.426, -9.896e-7, -5.844e-7, 4.052e-7
0.425, -9.908e-7, -5.869e-7, 4.040e-7
0.424, -9.924e-7, -5.866e-7, 4.058e-7
0.423, -9.936e-7, -5.869e-7, 4.067e-7
0.422, -9.970e-7, -5.899e-7, 4.070e-7
0.421, -9.973e-7, -5.918e-7, 4.055e-7
0.420, -9.985e-7, -5.914e-7, 4.070e-7
0.419, -1.002e-6, -5.942e-7, 4.076e-7
0.418, -1.004e-6, -5.966e-7, 4.073e-7
0.417, -1.004e-6, -5.966e-7, 4.073e-7
0.416, -1.005e-6, -5.982e-7, 4.070e-7
0.415, -1.007e-6, -5.994e-7, 4.076e-7
0.414, -1.010e-6, -6.015e-7, 4.086e-7
0.413, -1.013e-6, -6.018e-7, 4.110e-7
0.412, -1.013e-6, -6.037e-7, 4.095e-7
0.411, -1.016e-6, -6.046e-7, 4.110e-7
0.410, -1.016e-6, -6.067e-7, 4.092e-7
0.409, -1.019e-6, -6.091e-7, 4.095e-7
0.408, -1.024e-6, -6.110e-7, 4.125e-7
0.407, -1.025e-6, -6.122e-7, 4.128e-7
0.406, -1.024e-6, -6.134e-7, 4.107e-7
0.405, -1.027e-6, -6.122e-7, 4.150e-7
0.404, -1.025e-6, -6.162e-7, 4.092e-7
0.403, -1.028e-6, -6.162e-7, 4.122e-7
0.402, -1.031e-6, -6.174e-7, 4.140e-7
0.401, -1.032e-6, -6.183e-7, 4.137e-7
0.400, -1.035e-6, -6.214e-7, 4.140e-7
0.399, -1.034e-6, -6.214e-7, 4.122e-7
0.398, -1.035e-6, -6.217e-7, 4.131e-7
0.397, -1.037e-6, -6.241e-7, 4.131e-7
0.396, -1.041e-6, -6.253e-7, 4.156e-7
0.395, -1.041e-6, -6.268e-7, 4.140e-7
0.394, -1.044e-6, -6.299e-7, 4.144e-7
0.393, -1.045e-6, -6.281e-7, 4.168e-7
0.392, -1.045e-6, -6.302e-7, 4.153e-7
0.391, -1.051e-6, -6.339e-7, 4.171e-7
0.390, -1.051e-6, -6.333e-7, 4.174e-7
0.389, -1.056e-6, -6.387e-7, 4.171e-7
0.388, -1.056e-6, -6.381e-7, 4.183e-7
0.387, -1.056e-6, -6.378e-7, 4.180e-7
0.386, -1.060e-6, -6.415e-7, 4.183e-7
0.385, -1.064e-6, -6.448e-7, 4.195e-7
0.384, -1.065e-6, -6.452e-7, 4.202e-7
0.383, -1.065e-6, -6.452e-7, 4.202e-7
0.382, -1.070e-6, -6.485e-7, 4.211e-7
0.381, -1.070e-6, -6.485e-7, 4.217e-7
0.380, -1.071e-6, -6.503e-7, 4.211e-7
0.379, -1.077e-6, -6.540e-7, 4.226e-7
0.378, -1.078e-6, -6.549e-7, 4.232e-7
0.377, -1.078e-6, -6.543e-7, 4.232e-7
0.376, -1.080e-6, -6.561e-7, 4.235e-7
0.375, -1.082e-6, -6.580e-7, 4.244e-7
0.374, -1.086e-6, -6.601e-7, 4.259e-7
0.373, -1.086e-6, -6.604e-7, 4.259e-7
0.372, -1.089e-6, -6.625e-7, 4.269e-7
0.371, -1.092e-6, -6.644e-7, 4.275e-7
0.370, -1.096e-6, -6.680e-7, 4.278e-7
0.369, -1.098e-6, -6.690e-7, 4.290e-7
0.368, -1.099e-6, -6.699e-7, 4.287e-7
0.367, -1.102e-6, -6.720e-7, 4.296e-7
0.366, -1.103e-6, -6.720e-7, 4.314e-7
0.365, -1.105e-6, -6.754e-7, 4.296e-7
0.364, -1.108e-6, -6.766e-7, 4.311e-7
0.363, -1.111e-6, -6.787e-7, 4.324e-7
0.362, -1.110e-6, -6.790e-7, 4.314e-7
0.361, -1.115e-6, -6.830e-7, 4.317e-7
0.360, -1.119e-6, -6.845e-7, 4.342e-7
0.359, -1.120e-6, -6.864e-7, 4.336e-7
0.358, -1.125e-6, -6.891e-7, 4.354e-7
0.357, -1.123e-6, -6.885e-7, 4.345e-7
0.356, -1.125e-6, -6.900e-7, 4.345e-7
0.355, -1.131e-6, -6.946e-7, 4.363e-7
0.354, -1.129e-6, -6.934e-7, 4.360e-7
0.353, -1.133e-6, -6.964e-7, 4.363e-7
0.352, -1.136e-6, -6.964e-7, 4.394e-7
0.351, -1.138e-6, -6.986e-7, 4.391e-7
0.350, -1.138e-6, -7.001e-7, 4.382e-7
0.349, -1.143e-6, -7.022e-7, 4.406e-7
0.348, -1.145e-6, -7.034e-7, 4.412e-7
0.347, -1.146e-6, -7.053e-7, 4.412e-7
0.346, -1.151e-6, -7.089e-7, 4.418e-7
0.345, -1.154e-6, -7.108e-7, 4.430e-7
0.344, -1.155e-6, -7.117e-7, 4.430e-7
0.343, -1.158e-6, -7.144e-7, 4.440e-7
0.342, -1.156e-6, -7.126e-7, 4.436e-7
0.341, -1.161e-6, -7.153e-7, 4.455e-7
0.340, -1.165e-6, -7.202e-7, 4.449e-7
0.339, -1.168e-6, -7.202e-7, 4.473e-7
0.338, -1.168e-6, -7.214e-7, 4.467e-7
0.337, -1.171e-6, -7.236e-7, 4.476e-7
0.336, -1.174e-6, -7.257e-7, 4.479e-7
0.335, -1.176e-6, -7.272e-7, 4.491e-7
0.334, -1.181e-6, -7.303e-7, 4.507e-7
0.333, -1.182e-6, -7.312e-7, 4.510e-7
0.332, -1.183e-6, -7.330e-7, 4.504e-7
0.331, -1.187e-6, -7.346e-7, 4.522e-7
0.330, -1.192e-6, -7.370e-7, 4.549e-7
0.329, -1.190e-6, -7.370e-7, 4.534e-7
0.328, -1.196e-6, -7.413e-7, 4.543e-7
0.327, -1.197e-6, -7.413e-7, 4.562e-7
0.326, -1.200e-6, -7.440e-7, 4.562e-7
0.325, -1.201e-6, -7.456e-7, 4.559e-7
0.324, -1.202e-6, -7.452e-7, 4.565e-7
0.323, -1.205e-6, -7.483e-7, 4.571e-7
0.322, -1.211e-6, -7.520e-7, 4.595e-7
0.321, -1.212e-6, -7.532e-7, 4.592e-7
0.320, -1.216e-6, -7.538e-7, 4.620e-7
0.319, -1.218e-6, -7.556e-7, 4.626e-7
0.318, -1.221e-6, -7.578e-7, 4.629e-7
0.317, -1.223e-6, -7.599e-7, 4.635e-7
0.316, -1.227e-6, -7.629e-7, 4.638e-7
0.315, -1.225e-6, -7.617e-7, 4.635e-7
0.314, -1.230e-6, -7.642e-7, 4.656e-7
0.313, -1.235e-6, -7.681e-7, 4.665e-7
0.312, -1.236e-6, -7.690e-7, 4.668e-7
0.311, -1.237e-6, -7.712e-7, 4.662e-7
0.310, -1.244e-6, -7.739e-7, 4.699e-7
0.309, -1.243e-6, -7.730e-7, 4.699e-7
0.308, -1.244e-6, -7.755e-7, 4.687e-7
0.307, -1.248e-6, -7.773e-7, 4.711e-7
0.306, -1.253e-6, -7.800e-7, 4.729e-7
0.305, -1.255e-6, -7.816e-7, 4.729e-7
0.304, -1.256e-6, -7.831e-7, 4.726e-7
0.303, -1.258e-6, -7.837e-7, 4.745e-7
0.302, -1.262e-6, -7.871e-7, 4.754e-7
0.301, -1.264e-6, -7.880e-7, 4.763e-7
0.300, -1.263e-6, -7.874e-7, 4.760e-7
0.299, -1.271e-6, -7.910e-7, 4.797e-7
0.298, -1.273e-6, -7.941e-7, 4.794e-7
0.297, -1.274e-6, -7.950e-7, 4.790e-7
0.296, -1.277e-6, -7.971e-7, 4.803e-7
0.295, -1.278e-6, -7.971e-7, 4.812e-7
0.294, -1.280e-6, -7.999e-7, 4.797e-7
0.293, -1.287e-6, -8.035e-7, 4.836e-7
0.292, -1.286e-6, -8.032e-7, 4.827e-7
0.291, -1.289e-6, -8.051e-7, 4.842e-7
0.290, -1.292e-6, -8.069e-7, 4.855e-7
0.289, -1.295e-6, -8.093e-7, 4.858e-7
0.288, -1.298e-6, -8.099e-7, 4.876e-7
0.287, -1.298e-6, -8.106e-7, 4.873e-7
0.286, -1.303e-6, -8.142e-7, 4.885e-7
0.285, -1.305e-6, -8.151e-7, 4.894e-7
0.284, -1.306e-6, -8.167e-7, 4.891e-7
0.283, -1.311e-6, -8.194e-7, 4.916e-7
0.282, -1.312e-6, -8.182e-7, 4.934e-7
0.281, -1.314e-6, -8.203e-7, 4.937e-7
0.280, -1.319e-6, -8.240e-7, 4.946e-7
0.279, -1.321e-6, -8.240e-7, 4.974e-7
0.278, -1.324e-6, -8.276e-7, 4.967e-7
0.277, -1.326e-6, -8.286e-7, 4.977e-7
0.276, -1.330e-6, -8.295e-7, 5.004e-7
0.275, -1.328e-6, -8.304e-7, 4.974e-7
0.274, -1.333e-6, -8.334e-7, 4.998e-7
0.273, -1.336e-6, -8.340e-7, 5.016e-7
0.272, -1.336e-6, -8.365e-7, 4.998e-7
0.271, -1.340e-6, -8.380e-7, 5.016e-7
0.270, -1.342e-6, -8.386e-7, 5.035e-7
0.269, -1.346e-6, -8.417e-7, 5.041e-7
0.268, -1.348e-6, -8.423e-7, 5.062e-7
0.267, -1.350e-6, -8.435e-7, 5.065e-7
0.266, -1.352e-6, -8.441e-7, 5.074e-7
0.265, -1.356e-6, -8.466e-7, 5.093e-7
0.264, -1.356e-6, -8.475e-7, 5.086e-7
0.263, -1.357e-6, -8.478e-7, 5.096e-7
0.262, -1.363e-6, -8.517e-7, 5.117e-7
0.261, -1.364e-6, -8.499e-7, 5.144e-7
0.260, -1.366e-6, -8.539e-7, 5.120e-7
0.259, -1.366e-6, -8.530e-7, 5.132e-7
0.258, -1.370e-6, -8.545e-7, 5.151e-7
0.257, -1.371e-6, -8.579e-7, 5.135e-7
0.256, -1.376e-6, -8.582e-7, 5.175e-7
0.255, -1.377e-6, -8.594e-7, 5.172e-7
0.254, -1.377e-6, -8.597e-7, 5.169e-7
0.253, -1.381e-6, -8.624e-7, 5.187e-7
0.252, -1.382e-6, -8.627e-7, 5.193e-7
0.251, -1.386e-6, -8.636e-7, 5.221e-7
0.250, -1.387e-6, -8.661e-7, 5.209e-7
0.249, -1.390e-6, -8.664e-7, 5.236e-7
0.248, -1.390e-6, -8.664e-7, 5.239e-7
0.247, -1.395e-6, -8.701e-7, 5.251e-7
0.246, -1.395e-6, -8.698e-7, 5.257e-7
0.245, -1.398e-6, -8.713e-7, 5.270e-7
0.244, -1.401e-6, -8.719e-7, 5.288e-7
0.243, -1.401e-6, -8.725e-7, 5.288e-7
0.242, -1.406e-6, -8.749e-7, 5.312e-7
0.241, -1.407e-6, -8.768e-7, 5.303e-7
0.240, -1.410e-6, -8.765e-7, 5.337e-7
0.239, -1.408e-6, -8.768e-7, 5.315e-7
0.238, -1.411e-6, -8.789e-7, 5.318e-7
0.237, -1.413e-6, -8.786e-7, 5.346e-7
0.236, -1.415e-6, -8.807e-7, 5.343e-7
0.235, -1.417e-6, -8.817e-7, 5.349e-7
0.234, -1.417e-6, -8.813e-7, 5.352e-7
0.233, -1.419e-6, -8.810e-7, 5.376e-7
0.232, -1.423e-6, -8.838e-7, 5.392e-7
0.231, -1.423e-6, -8.838e-7, 5.389e-7
0.230, -1.426e-6, -8.859e-7, 5.404e-7
0.229, -1.428e-6, -8.878e-7, 5.404e-7
0.228, -1.430e-6, -8.871e-7, 5.428e-7
0.227, -1.430e-6, -8.875e-7, 5.422e-7
0.226, -1.435e-6, -8.890e-7, 5.456e-7
0.225, -1.436e-6, -8.893e-7, 5.465e-7
0.224, -1.435e-6, -8.899e-7, 5.453e-7
0.223, -1.436e-6, -8.905e-7, 5.453e-7
0.222, -1.438e-6, -8.893e-7, 5.483e-7
0.221, -1.443e-6, -8.923e-7, 5.505e-7
0.220, -1.442e-6, -8.926e-7, 5.492e-7
0.219, -1.442e-6, -8.911e-7, 5.514e-7
0.218, -1.446e-6, -8.942e-7, 5.514e-7
0.217, -1.449e-6, -8.954e-7, 5.535e-7
0.216, -1.451e-6, -8.942e-7, 5.572e-7
0.215, -1.448e-6, -8.942e-7, 5.541e-7
0.214, -1.452e-6, -8.966e-7, 5.553e-7
0.213, -1.450e-6, -8.954e-7, 5.550e-7
0.212, -1.451e-6, -8.951e-7, 5.559e-7
0.211, -1.454e-6, -8.972e-7, 5.566e-7
0.210, -1.456e-6, -8.954e-7, 5.605e-7
0.209, -1.456e-6, -8.975e-7, 5.587e-7
0.208, -1.457e-6, -8.984e-7, 5.590e-7
0.207, -1.456e-6, -8.963e-7, 5.599e-7
0.206, -1.459e-6, -8.975e-7, 5.614e-7
0.205, -1.460e-6, -8.981e-7, 5.617e-7
0.204, -1.459e-6, -8.972e-7, 5.620e-7
0.203, -1.462e-6, -8.997e-7, 5.627e-7
0.202, -1.465e-6, -8.994e-7, 5.660e-7
0.201, -1.464e-6, -8.990e-7, 5.654e-7
0.200, -1.464e-6, -8.981e-7, 5.654e-7
0.199, -1.467e-6, -9.009e-7, 5.663e-7
0.198, -1.466e-6, -8.990e-7, 5.672e-7
0.197, -1.468e-6, -9.000e-7, 5.678e-7
0.196, -1.468e-6, -8.997e-7, 5.688e-7
0.195, -1.469e-6, -8.984e-7, 5.706e-7
0.194, -1.469e-6, -8.987e-7, 5.703e-7
0.193, -1.471e-6, -8.997e-7, 5.715e-7
0.192, -1.471e-6, -8.978e-7, 5.733e-7
0.191, -1.473e-6, -8.997e-7, 5.733e-7
0.190, -1.474e-6, -9.003e-7, 5.736e-7
0.189, -1.474e-6, -8.987e-7, 5.752e-7
0.188, -1.474e-6, -8.987e-7, 5.752e-7
0.187, -1.473e-6, -8.978e-7, 5.749e-7
0.186, -1.476e-6, -8.984e-7, 5.779e-7
0.185, -1.476e-6, -8.990e-7, 5.767e-7
0.184, -1.476e-6, -8.994e-7, 5.767e-7
0.183, -1.477e-6, -8.978e-7, 5.794e-7
0.182, -1.476e-6, -8.978e-7, 5.779e-7
0.181, -1.476e-6, -8.978e-7, 5.779e-7
0.180, -1.477e-6, -8.969e-7, 5.797e-7
0.179, -1.477e-6, -8.960e-7, 5.807e-7
0.178, -1.476e-6, -8.960e-7, 5.801e-7
0.177, -1.478e-6, -8.951e-7, 5.825e-7
0.176, -1.477e-6, -8.957e-7, 5.813e-7
0.175, -1.478e-6, -8.954e-7, 5.825e-7
0.174, -1.477e-6, -8.945e-7, 5.828e-7
0.173, -1.478e-6, -8.954e-7, 5.825e-7
0.172, -1.478e-6, -8.945e-7, 5.840e-7
0.171, -1.479e-6, -8.933e-7, 5.859e-7
0.170, -1.477e-6, -8.929e-7, 5.843e-7
0.169, -1.478e-6, -8.929e-7, 5.852e-7
0.168, -1.479e-6, -8.920e-7, 5.871e-7
0.167, -1.477e-6, -8.905e-7, 5.862e-7
0.166, -1.479e-6, -8.920e-7, 5.868e-7
0.165, -1.478e-6, -8.896e-7, 5.880e-7
0.164, -1.477e-6, -8.884e-7, 5.886e-7
0.163, -1.478e-6, -8.899e-7, 5.883e-7
0.162, -1.476e-6, -8.868e-7, 5.889e-7
0.161, -1.476e-6, -8.884e-7, 5.874e-7
0.160, -1.475e-6, -8.862e-7, 5.889e-7
0.159, -1.476e-6, -8.859e-7, 5.901e-7
0.158, -1.474e-6, -8.847e-7, 5.895e-7
0.157, -1.475e-6, -8.838e-7, 5.913e-7
0.156, -1.474e-6, -8.826e-7, 5.916e-7
0.155, -1.474e-6, -8.829e-7, 5.913e-7
0.154, -1.475e-6, -8.829e-7, 5.916e-7
0.153, -1.471e-6, -8.789e-7, 5.926e-7
0.152, -1.471e-6, -8.786e-7, 5.920e-7
0.151, -1.472e-6, -8.792e-7, 5.932e-7
0.150, -1.470e-6, -8.771e-7, 5.932e-7
0.149, -1.469e-6, -8.774e-7, 5.920e-7
0.148, -1.469e-6, -8.756e-7, 5.935e-7
0.147, -1.471e-6, -8.765e-7, 5.950e-7
0.146, -1.466e-6, -8.737e-7, 5.926e-7
0.145, -1.467e-6, -8.728e-7, 5.938e-7
0.144, -1.465e-6, -8.701e-7, 5.947e-7
0.143, -1.465e-6, -8.710e-7, 5.944e-7
0.142, -1.464e-6, -8.698e-7, 5.944e-7
0.141, -1.461e-6, -8.688e-7, 5.920e-7
0.140, -1.463e-6, -8.682e-7, 5.944e-7
0.139, -1.461e-6, -8.673e-7, 5.938e-7
0.138, -1.460e-6, -8.646e-7, 5.953e-7
0.137, -1.459e-6, -8.652e-7, 5.935e-7
0.136, -1.457e-6, -8.627e-7, 5.941e-7
0.135, -1.457e-6, -8.615e-7, 5.959e-7
0.134, -1.457e-6, -8.609e-7, 5.965e-7
0.133, -1.456e-6, -8.612e-7, 5.950e-7
0.132, -1.452e-6, -8.582e-7, 5.941e-7
0.131, -1.450e-6, -8.554e-7, 5.944e-7
0.130, -1.452e-6, -8.575e-7, 5.944e-7
0.129, -1.452e-6, -8.560e-7, 5.959e-7
0.128, -1.448e-6, -8.527e-7, 5.950e-7
0.127, -1.449e-6, -8.548e-7, 5.938e-7
0.126, -1.447e-6, -8.533e-7, 5.938e-7
0.125, -1.444e-6, -8.496e-7, 5.941e-7
0.124, -1.443e-6, -8.490e-7, 5.944e-7
0.123, -1.442e-6, -8.481e-7, 5.938e-7
0.122, -1.441e-6, -8.472e-7, 5.935e-7
0.121, -1.440e-6, -8.472e-7, 5.929e-7
0.120, -1.438e-6, -8.435e-7, 5.944e-7
0.119, -1.435e-6, -8.429e-7, 5.926e-7
0.118, -1.436e-6, -8.429e-7, 5.929e-7
0.117, -1.432e-6, -8.398e-7, 5.920e-7
0.116, -1.433e-6, -8.392e-7, 5.935e-7
0.115, -1.429e-6, -8.383e-7, 5.910e-7
0.114, -1.432e-6, -8.389e-7, 5.929e-7
0.113, -1.426e-6, -8.350e-7, 5.907e-7
0.112, -1.425e-6, -8.337e-7, 5.910e-7
0.111, -1.425e-6, -8.328e-7, 5.926e-7
0.110, -1.422e-6, -8.319e-7, 5.901e-7
0.109, -1.421e-6, -8.298e-7, 5.910e-7
0.108, -1.421e-6, -8.295e-7, 5.910e-7
0.107, -1.417e-6, -8.276e-7, 5.895e-7
0.106, -1.416e-6, -8.270e-7, 5.886e-7
0.105, -1.413e-6, -8.249e-7, 5.883e-7
0.104, -1.413e-6, -8.240e-7, 5.886e-7
0.103, -1.410e-6, -8.221e-7, 5.880e-7
0.102, -1.407e-6, -8.200e-7, 5.874e-7
0.101, -1.405e-6, -8.185e-7, 5.865e-7
0.100, -1.405e-6, -8.188e-7, 5.862e-7
0.099, -1.401e-6, -8.154e-7, 5.852e-7
0.098, -1.403e-6, -8.167e-7, 5.858e-7
0.097, -1.399e-6, -8.142e-7, 5.852e-7
0.096, -1.396e-6, -8.130e-7, 5.834e-7
0.095, -1.394e-6, -8.121e-7, 5.822e-7
0.094, -1.395e-6, -8.130e-7, 5.822e-7
0.093, -1.393e-6, -8.099e-7, 5.828e-7
0.092, -1.389e-6, -8.066e-7, 5.825e-7
0.091, -1.388e-6, -8.066e-7, 5.819e-7
0.090, -1.384e-6, -8.048e-7, 5.794e-7
0.089, -1.386e-6, -8.054e-7, 5.807e-7
0.088, -1.380e-6, -8.020e-7, 5.779e-7
0.087, -1.380e-6, -8.017e-7, 5.785e-7
0.086, -1.377e-6, -7.996e-7, 5.779e-7
0.085, -1.377e-6, -7.987e-7, 5.782e-7
0.084, -1.377e-6, -7.968e-7, 5.797e-7
0.083, -1.373e-6, -7.971e-7, 5.761e-7
0.082, -1.371e-6, -7.956e-7, 5.755e-7
0.081, -1.369e-6, -7.932e-7, 5.755e-7
0.080, -1.366e-6, -7.916e-7, 5.739e-7
0.079, -1.366e-6, -7.913e-7, 5.743e-7
0.078, -1.363e-6, -7.898e-7, 5.727e-7
0.077, -1.359e-6, -7.886e-7, 5.706e-7
0.076, -1.359e-6, -7.877e-7, 5.715e-7
0.075, -1.355e-6, -7.855e-7, 5.694e-7
0.074, -1.354e-6, -7.846e-7, 5.697e-7
0.073, -1.352e-6, -7.831e-7, 5.691e-7
0.072, -1.352e-6, -7.834e-7, 5.682e-7
0.071, -1.347e-6, -7.803e-7, 5.666e-7
0.070, -1.347e-6, -7.797e-7, 5.672e-7
0.069, -1.344e-6, -7.788e-7, 5.648e-7
0.068, -1.342e-6, -7.776e-7, 5.642e-7
0.067, -1.341e-6, -7.764e-7, 5.651e-7
0.066, -1.340e-6, -7.764e-7, 5.633e-7
0.065, -1.338e-6, -7.742e-7, 5.636e-7
0.064, -1.337e-6, -7.742e-7, 5.624e-7
0.063, -1.331e-6, -7.715e-7, 5.596e-7
0.062, -1.331e-6, -7.706e-7, 5.605e-7
0.061, -1.326e-6, -7.691e-7, 5.572e-7
0.060, -1.327e-6, -7.687e-7, 5.587e-7
0.059, -1.326e-6, -7.675e-7, 5.584e-7
0.058, -1.321e-6, -7.657e-7, 5.553e-7
0.057, -1.322e-6, -7.654e-7, 5.566e-7
0.056, -1.320e-6, -7.642e-7, 5.556e-7
0.055, -1.316e-6, -7.620e-7, 5.538e-7
0.054, -1.315e-6, -7.633e-7, 5.520e-7
0.053, -1.313e-6, -7.611e-7, 5.520e-7
0.052, -1.309e-6, -7.584e-7, 5.511e-7
0.051, -1.309e-6, -7.587e-7, 5.505e-7
0.050, -1.308e-6, -7.587e-7, 5.492e-7
0.049, -1.307e-6, -7.565e-7, 5.501e-7
0.048, -1.304e-6, -7.568e-7, 5.468e-7
0.047, -1.302e-6, -7.553e-7, 5.471e-7
0.046, -1.301e-6, -7.547e-7, 5.465e-7
0.045, -1.301e-6, -7.538e-7, 5.474e-7
0.044, -1.297e-6, -7.535e-7, 5.437e-7
0.043, -1.295e-6, -7.520e-7, 5.428e-7
0.042, -1.294e-6, -7.510e-7, 5.425e-7
0.041, -1.293e-6, -7.495e-7, 5.431e-7
0.040, -1.288e-6, -7.480e-7, 5.398e-7
0.039, -1.288e-6, -7.492e-7, 5.392e-7
0.038, -1.287e-6, -7.486e-7, 5.389e-7
0.037, -1.283e-6, -7.459e-7, 5.376e-7
0.036, -1.283e-6, -7.449e-7, 5.379e-7
0.035, -1.279e-6, -7.434e-7, 5.358e-7
0.034, -1.281e-6, -7.443e-7, 5.367e-7
0.033, -1.279e-6, -7.431e-7, 5.355e-7
0.032, -1.277e-6, -7.416e-7, 5.355e-7
0.031, -1.274e-6, -7.404e-7, 5.334e-7
0.030, -1.273e-6, -7.407e-7, 5.328e-7
0.029, -1.272e-6, -7.404e-7, 5.318e-7
0.028, -1.269e-6, -7.382e-7, 5.309e-7
0.027, -1.267e-6, -7.370e-7, 5.300e-7
0.026, -1.268e-6, -7.391e-7, 5.288e-7
0.025, -1.266e-6, -7.367e-7, 5.291e-7
0.024, -1.263e-6, -7.355e-7, 5.273e-7
0.023, -1.262e-6, -7.355e-7, 5.263e-7
0.022, -1.262e-6, -7.364e-7, 5.257e-7
0.021, -1.260e-6, -7.340e-7, 5.257e-7
0.020, -1.258e-6, -7.327e-7, 5.254e-7
0.019, -1.255e-6, -7.318e-7, 5.236e-7
0.018, -1.256e-6, -7.327e-7, 5.233e-7
0.017, -1.255e-6, -7.327e-7, 5.224e-7
0.016, -1.251e-6, -7.312e-7, 5.196e-7
0.015, -1.251e-6, -7.309e-7, 5.202e-7
0.014, -1.248e-6, -7.294e-7, 5.184e-7
0.013, -1.250e-6, -7.297e-7, 5.199e-7
0.012, -1.246e-6, -7.279e-7, 5.184e-7
0.011, -1.244e-6, -7.276e-7, 5.169e-7
0.010, -1.245e-6, -7.276e-7, 5.172e-7
0.009, -1.240e-6, -7.260e-7, 5.144e-7
0.008, -1.242e-6, -7.263e-7, 5.154e-7
0.007, -1.240e-6, -7.257e-7, 5.138e-7
0.006, -1.238e-6, -7.248e-7, 5.135e-7
0.005, -1.238e-6, -7.251e-7, 5.126e-7
0.004, -1.236e-6, -7.248e-7, 5.111e-7
0.003, -1.236e-6, -7.239e-7, 5.123e-7
0.002, -1.236e-6, -7.239e-7, 5.117e-7
0.001, -1.233e-6, -7.236e-7, 5.093e-7
-0.000, -1.231e-6, -7.227e-7, 5.086e-7
-0.001, -1.230e-6, -7.224e-7, 5.080e-7
-0.002, -1.231e-6, -7.218e-7, 5.093e-7
-0.003, -1.227e-6, -7.205e-7, 5.062e-7
-0.004, -1.229e-6, -7.202e-7, 5.083e-7
-0.005, -1.226e-6, -7.202e-7, 5.059e-7
-0.006, -1.225e-6, -7.190e-7, 5.059e-7
-0.007, -1.223e-6, -7.181e-7, 5.047e-7
-0.008, -1.223e-6, -7.196e-7, 5.035e-7
-0.009, -1.222e-6, -7.193e-7, 5.032e-7
-0.010, -1.219e-6, -7.166e-7, 5.028e-7
-0.011, -1.220e-6, -7.187e-7, 5.013e-7
-0.012, -1.218e-6, -7.178e-7, 5.007e-7
-0.013, -1.219e-6, -7.169e-7, 5.019e-7
-0.014, -1.215e-6, -7.166e-7, 4.989e-7
-0.015, -1.215e-6, -7.160e-7, 4.986e-7
-0.016, -1.216e-6, -7.163e-7, 5.001e-7
-0.017, -1.214e-6, -7.166e-7, 4.977e-7
-0.018, -1.211e-6, -7.135e-7, 4.980e-7
-0.019, -1.211e-6, -7.147e-7, 4.964e-7
-0.020, -1.209e-6, -7.135e-7, 4.952e-7
-0.021, -1.213e-6, -7.147e-7, 4.980e-7
-0.022, -1.209e-6, -7.135e-7, 4.952e-7
-0.023, -1.208e-6, -7.117e-7, 4.961e-7
-0.024, -1.205e-6, -7.126e-7, 4.928e-7
-0.025, -1.208e-6, -7.120e-7, 4.955e-7
-0.026, -1.205e-6, -7.126e-7, 4.928e-7
-0.027, -1.205e-6, -7.111e-7, 4.943e-7
-0.028, -1.206e-6, -7.114e-7, 4.946e-7
-0.029, -1.202e-6, -7.099e-7, 4.922e-7
-0.030, -1.201e-6, -7.099e-7, 4.912e-7
-0.031, -1.198e-6, -7.089e-7, 4.894e-7
-0.032, -1.201e-6, -7.105e-7, 4.909e-7
-0.033, -1.201e-6, -7.102e-7, 4.909e-7
-0.034, -1.201e-6, -7.105e-7, 4.903e-7
-0.035, -1.200e-6, -7.089e-7, 4.906e-7
-0.036, -1.198e-6, -7.092e-7, 4.885e-7
-0.037, -1.195e-6, -7.080e-7, 4.873e-7
-0.038, -1.196e-6, -7.074e-7, 4.882e-7
-0.039, -1.195e-6, -7.074e-7, 4.873e-7
-0.040, -1.196e-6, -7.074e-7, 4.882e-7
-0.041, -1.193e-6, -7.065e-7, 4.867e-7
-0.042, -1.192e-6, -7.062e-7, 4.858e-7
-0.043, -1.192e-6, -7.056e-7, 4.867e-7
-0.044, -1.192e-6, -7.068e-7, 4.855e-7
-0.045, -1.190e-6, -7.065e-7, 4.839e-7
-0.046, -1.190e-6, -7.056e-7, 4.848e-7
-0.047, -1.188e-6, -7.047e-7, 4.836e-7
-0.048, -1.189e-6, -7.050e-7, 4.842e-7
-0.049, -1.189e-6, -7.050e-7, 4.842e-7
-0.050, -1.189e-6, -7.044e-7, 4.842e-7
