Feb. 28, 2018   11:39:00
Square Wave Voltammetry
File: c:\users\electrochemist\desktop\2018\28022018_unbuffered_9,2\17_e1_9,2_0118_ph6,05_2.txt
Data Source:  Experiment
Instrument Model:  CHI1040A
Header: 
Note: 

Init E (V) = 0.5
Final E (V) = -0.05
Incr E (V) = 0.001
Amplitude (V) = 0.1
Frequency (Hz) = 150
Quiet Time (sec) = 0
Sensitivity (A/V) = 1e-6

Difference:

Forward:

Reverse:
Ep = 0.057V
ip = 7.628e-10A
Ah = 1.022e-11VA

Potential/V, Diff(i/A), For(i/A), Rev(i/A)

0.499, -5.966e-7, -1.392e-7, 4.574e-7
0.498, -7.135e-7, -3.134e-7, 4.000e-7
0.497, -7.064e-7, -3.269e-7, 3.796e-7
0.496, -6.976e-7, -3.308e-7, 3.668e-7
0.495, -6.936e-7, -3.333e-7, 3.603e-7
0.494, -6.869e-7, -3.357e-7, 3.512e-7
0.493, -6.857e-7, -3.376e-7, 3.481e-7
0.492, -6.811e-7, -3.372e-7, 3.439e-7
0.491, -6.778e-7, -3.394e-7, 3.384e-7
0.490, -6.759e-7, -3.400e-7, 3.359e-7
0.489, -6.717e-7, -3.388e-7, 3.329e-7
0.488, -6.695e-7, -3.403e-7, 3.292e-7
0.487, -6.692e-7, -3.406e-7, 3.286e-7
0.486, -6.668e-7, -3.403e-7, 3.265e-7
0.485, -6.631e-7, -3.406e-7, 3.225e-7
0.484, -6.631e-7, -3.424e-7, 3.207e-7
0.483, -6.625e-7, -3.421e-7, 3.204e-7
0.482, -6.591e-7, -3.418e-7, 3.173e-7
0.481, -6.579e-7, -3.412e-7, 3.167e-7
0.480, -6.585e-7, -3.424e-7, 3.161e-7
0.479, -6.561e-7, -3.424e-7, 3.137e-7
0.478, -6.558e-7, -3.440e-7, 3.118e-7
0.477, -6.518e-7, -3.415e-7, 3.103e-7
0.476, -6.533e-7, -3.440e-7, 3.094e-7
0.475, -6.530e-7, -3.443e-7, 3.088e-7
0.474, -6.521e-7, -3.430e-7, 3.091e-7
0.473, -6.515e-7, -3.452e-7, 3.063e-7
0.472, -6.512e-7, -3.443e-7, 3.069e-7
0.471, -6.485e-7, -3.437e-7, 3.048e-7
0.470, -6.482e-7, -3.452e-7, 3.030e-7
0.469, -6.500e-7, -3.455e-7, 3.045e-7
0.468, -6.497e-7, -3.458e-7, 3.039e-7
0.467, -6.482e-7, -3.458e-7, 3.024e-7
0.466, -6.482e-7, -3.458e-7, 3.024e-7
0.465, -6.472e-7, -3.464e-7, 3.008e-7
0.464, -6.469e-7, -3.473e-7, 2.996e-7
0.463, -6.475e-7, -3.476e-7, 2.999e-7
0.462, -6.460e-7, -3.470e-7, 2.990e-7
0.461, -6.448e-7, -3.470e-7, 2.978e-7
0.460, -6.457e-7, -3.473e-7, 2.984e-7
0.459, -6.442e-7, -3.479e-7, 2.963e-7
0.458, -6.454e-7, -3.488e-7, 2.966e-7
0.457, -6.466e-7, -3.507e-7, 2.960e-7
0.456, -6.433e-7, -3.479e-7, 2.953e-7
0.455, -6.448e-7, -3.498e-7, 2.950e-7
0.454, -6.433e-7, -3.498e-7, 2.935e-7
0.453, -6.433e-7, -3.492e-7, 2.941e-7
0.452, -6.439e-7, -3.504e-7, 2.935e-7
0.451, -6.436e-7, -3.504e-7, 2.932e-7
0.450, -6.451e-7, -3.513e-7, 2.938e-7
0.449, -6.451e-7, -3.525e-7, 2.926e-7
0.448, -6.442e-7, -3.522e-7, 2.920e-7
0.447, -6.463e-7, -3.531e-7, 2.932e-7
0.446, -6.430e-7, -3.519e-7, 2.911e-7
0.445, -6.448e-7, -3.531e-7, 2.917e-7
0.444, -6.448e-7, -3.543e-7, 2.905e-7
0.443, -6.445e-7, -3.540e-7, 2.905e-7
0.442, -6.442e-7, -3.537e-7, 2.905e-7
0.441, -6.439e-7, -3.531e-7, 2.908e-7
0.440, -6.439e-7, -3.553e-7, 2.886e-7
0.439, -6.442e-7, -3.556e-7, 2.886e-7
0.438, -6.454e-7, -3.559e-7, 2.895e-7
0.437, -6.439e-7, -3.562e-7, 2.877e-7
0.436, -6.457e-7, -3.565e-7, 2.892e-7
0.435, -6.448e-7, -3.565e-7, 2.883e-7
0.434, -6.439e-7, -3.574e-7, 2.865e-7
0.433, -6.472e-7, -3.592e-7, 2.880e-7
0.432, -6.448e-7, -3.586e-7, 2.862e-7
0.431, -6.466e-7, -3.601e-7, 2.865e-7
0.430, -6.463e-7, -3.589e-7, 2.874e-7
0.429, -6.472e-7, -3.595e-7, 2.877e-7
0.428, -6.463e-7, -3.604e-7, 2.859e-7
0.427, -6.479e-7, -3.614e-7, 2.865e-7
0.426, -6.479e-7, -3.614e-7, 2.865e-7
0.425, -6.454e-7, -3.611e-7, 2.844e-7
0.424, -6.482e-7, -3.626e-7, 2.856e-7
0.423, -6.466e-7, -3.614e-7, 2.853e-7
0.422, -6.482e-7, -3.629e-7, 2.853e-7
0.421, -6.503e-7, -3.656e-7, 2.847e-7
0.420, -6.494e-7, -3.647e-7, 2.847e-7
0.419, -6.503e-7, -3.662e-7, 2.841e-7
0.418, -6.509e-7, -3.665e-7, 2.844e-7
0.417, -6.521e-7, -3.656e-7, 2.865e-7
0.416, -6.506e-7, -3.675e-7, 2.831e-7
0.415, -6.512e-7, -3.669e-7, 2.844e-7
0.414, -6.524e-7, -3.672e-7, 2.853e-7
0.413, -6.518e-7, -3.687e-7, 2.831e-7
0.412, -6.530e-7, -3.687e-7, 2.844e-7
0.411, -6.536e-7, -3.702e-7, 2.834e-7
0.410, -6.527e-7, -3.699e-7, 2.828e-7
0.409, -6.564e-7, -3.720e-7, 2.844e-7
0.408, -6.564e-7, -3.717e-7, 2.847e-7
0.407, -6.546e-7, -3.717e-7, 2.828e-7
0.406, -6.567e-7, -3.723e-7, 2.844e-7
0.405, -6.567e-7, -3.723e-7, 2.844e-7
0.404, -6.582e-7, -3.739e-7, 2.844e-7
0.403, -6.601e-7, -3.742e-7, 2.859e-7
0.402, -6.585e-7, -3.739e-7, 2.847e-7
0.401, -6.616e-7, -3.769e-7, 2.847e-7
0.400, -6.613e-7, -3.769e-7, 2.844e-7
0.399, -6.607e-7, -3.760e-7, 2.847e-7
0.398, -6.604e-7, -3.775e-7, 2.828e-7
0.397, -6.634e-7, -3.775e-7, 2.859e-7
0.396, -6.622e-7, -3.772e-7, 2.850e-7
0.395, -6.637e-7, -3.800e-7, 2.837e-7
0.394, -6.643e-7, -3.806e-7, 2.837e-7
0.393, -6.652e-7, -3.806e-7, 2.847e-7
0.392, -6.656e-7, -3.812e-7, 2.844e-7
0.391, -6.677e-7, -3.818e-7, 2.859e-7
0.390, -6.662e-7, -3.824e-7, 2.837e-7
0.389, -6.683e-7, -3.833e-7, 2.850e-7
0.388, -6.707e-7, -3.852e-7, 2.856e-7
0.387, -6.707e-7, -3.855e-7, 2.853e-7
0.386, -6.704e-7, -3.861e-7, 2.844e-7
0.385, -6.720e-7, -3.870e-7, 2.850e-7
0.384, -6.720e-7, -3.861e-7, 2.859e-7
0.383, -6.738e-7, -3.888e-7, 2.850e-7
0.382, -6.756e-7, -3.900e-7, 2.856e-7
0.381, -6.744e-7, -3.897e-7, 2.847e-7
0.380, -6.735e-7, -3.891e-7, 2.844e-7
0.379, -6.765e-7, -3.907e-7, 2.859e-7
0.378, -6.784e-7, -3.913e-7, 2.871e-7
0.377, -6.787e-7, -3.931e-7, 2.856e-7
0.376, -6.793e-7, -3.937e-7, 2.856e-7
0.375, -6.805e-7, -3.946e-7, 2.859e-7
0.374, -6.808e-7, -3.949e-7, 2.859e-7
0.373, -6.836e-7, -3.965e-7, 2.871e-7
0.372, -6.823e-7, -3.958e-7, 2.865e-7
0.371, -6.836e-7, -3.974e-7, 2.862e-7
0.370, -6.829e-7, -3.971e-7, 2.859e-7
0.369, -6.854e-7, -3.986e-7, 2.868e-7
0.368, -6.851e-7, -3.986e-7, 2.865e-7
0.367, -6.875e-7, -3.998e-7, 2.877e-7
0.366, -6.875e-7, -4.004e-7, 2.871e-7
0.365, -6.884e-7, -4.010e-7, 2.874e-7
0.364, -6.894e-7, -4.016e-7, 2.877e-7
0.363, -6.906e-7, -4.026e-7, 2.880e-7
0.362, -6.909e-7, -4.050e-7, 2.859e-7
0.361, -6.933e-7, -4.050e-7, 2.883e-7
0.360, -6.955e-7, -4.056e-7, 2.898e-7
0.359, -6.939e-7, -4.059e-7, 2.880e-7
0.358, -6.955e-7, -4.065e-7, 2.889e-7
0.357, -6.976e-7, -4.077e-7, 2.898e-7
0.356, -6.979e-7, -4.087e-7, 2.892e-7
0.355, -7.000e-7, -4.096e-7, 2.905e-7
0.354, -7.013e-7, -4.102e-7, 2.911e-7
0.353, -7.013e-7, -4.123e-7, 2.889e-7
0.352, -7.025e-7, -4.129e-7, 2.895e-7
0.351, -7.028e-7, -4.120e-7, 2.908e-7
0.350, -7.061e-7, -4.151e-7, 2.911e-7
0.349, -7.064e-7, -4.163e-7, 2.902e-7
0.348, -7.052e-7, -4.148e-7, 2.905e-7
0.347, -7.074e-7, -4.172e-7, 2.902e-7
0.346, -7.086e-7, -4.175e-7, 2.911e-7
0.345, -7.092e-7, -4.172e-7, 2.920e-7
0.344, -7.119e-7, -4.206e-7, 2.914e-7
0.343, -7.132e-7, -4.199e-7, 2.932e-7
0.342, -7.132e-7, -4.206e-7, 2.926e-7
0.341, -7.153e-7, -4.233e-7, 2.920e-7
0.340, -7.165e-7, -4.227e-7, 2.938e-7
0.339, -7.153e-7, -4.233e-7, 2.920e-7
0.338, -7.190e-7, -4.257e-7, 2.932e-7
0.337, -7.186e-7, -4.248e-7, 2.938e-7
0.336, -7.171e-7, -4.242e-7, 2.929e-7
0.335, -7.211e-7, -4.276e-7, 2.935e-7
0.334, -7.229e-7, -4.279e-7, 2.950e-7
0.333, -7.232e-7, -4.279e-7, 2.953e-7
0.332, -7.238e-7, -4.297e-7, 2.941e-7
0.331, -7.254e-7, -4.297e-7, 2.956e-7
0.330, -7.281e-7, -4.315e-7, 2.966e-7
0.329, -7.281e-7, -4.331e-7, 2.950e-7
0.328, -7.299e-7, -4.331e-7, 2.969e-7
0.327, -7.302e-7, -4.337e-7, 2.966e-7
0.326, -7.312e-7, -4.352e-7, 2.960e-7
0.325, -7.333e-7, -4.364e-7, 2.969e-7
0.324, -7.324e-7, -4.361e-7, 2.963e-7
0.323, -7.354e-7, -4.389e-7, 2.966e-7
0.322, -7.363e-7, -4.395e-7, 2.969e-7
0.321, -7.379e-7, -4.392e-7, 2.987e-7
0.320, -7.397e-7, -4.413e-7, 2.984e-7
0.319, -7.382e-7, -4.401e-7, 2.981e-7
0.318, -7.412e-7, -4.425e-7, 2.987e-7
0.317, -7.412e-7, -4.422e-7, 2.990e-7
0.316, -7.449e-7, -4.441e-7, 3.008e-7
0.315, -7.449e-7, -4.444e-7, 3.005e-7
0.314, -7.455e-7, -4.453e-7, 3.002e-7
0.313, -7.486e-7, -4.480e-7, 3.005e-7
0.312, -7.507e-7, -4.483e-7, 3.024e-7
0.311, -7.495e-7, -4.489e-7, 3.005e-7
0.310, -7.516e-7, -4.495e-7, 3.021e-7
0.309, -7.534e-7, -4.505e-7, 3.030e-7
0.308, -7.531e-7, -4.514e-7, 3.017e-7
0.307, -7.562e-7, -4.532e-7, 3.030e-7
0.306, -7.559e-7, -4.532e-7, 3.027e-7
0.305, -7.562e-7, -4.541e-7, 3.021e-7
0.304, -7.614e-7, -4.566e-7, 3.048e-7
0.303, -7.601e-7, -4.563e-7, 3.039e-7
0.302, -7.605e-7, -4.572e-7, 3.033e-7
0.301, -7.663e-7, -4.596e-7, 3.066e-7
0.300, -7.611e-7, -4.575e-7, 3.036e-7
0.299, -7.641e-7, -4.596e-7, 3.045e-7
0.298, -7.678e-7, -4.615e-7, 3.063e-7
0.297, -7.669e-7, -4.608e-7, 3.060e-7
0.296, -7.705e-7, -4.645e-7, 3.060e-7
0.295, -7.717e-7, -4.639e-7, 3.079e-7
0.294, -7.714e-7, -4.645e-7, 3.069e-7
0.293, -7.721e-7, -4.648e-7, 3.072e-7
0.292, -7.748e-7, -4.666e-7, 3.082e-7
0.291, -7.757e-7, -4.672e-7, 3.085e-7
0.290, -7.769e-7, -4.685e-7, 3.085e-7
0.289, -7.788e-7, -4.691e-7, 3.097e-7
0.288, -7.788e-7, -4.697e-7, 3.091e-7
0.287, -7.815e-7, -4.715e-7, 3.100e-7
0.286, -7.830e-7, -4.718e-7, 3.112e-7
0.285, -7.836e-7, -4.727e-7, 3.109e-7
0.284, -7.846e-7, -4.743e-7, 3.103e-7
0.283, -7.864e-7, -4.749e-7, 3.115e-7
0.282, -7.867e-7, -4.755e-7, 3.112e-7
0.281, -7.897e-7, -4.779e-7, 3.118e-7
0.280, -7.901e-7, -4.776e-7, 3.124e-7
0.279, -7.907e-7, -4.782e-7, 3.124e-7
0.278, -7.913e-7, -4.788e-7, 3.124e-7
0.277, -7.943e-7, -4.801e-7, 3.143e-7
0.276, -7.940e-7, -4.801e-7, 3.140e-7
0.275, -7.977e-7, -4.831e-7, 3.146e-7
0.274, -7.983e-7, -4.831e-7, 3.152e-7
0.273, -7.995e-7, -4.843e-7, 3.152e-7
0.272, -7.992e-7, -4.843e-7, 3.149e-7
0.271, -8.017e-7, -4.856e-7, 3.161e-7
0.270, -8.020e-7, -4.865e-7, 3.155e-7
0.269, -8.038e-7, -4.880e-7, 3.158e-7
0.268, -8.068e-7, -4.889e-7, 3.179e-7
0.267, -8.062e-7, -4.886e-7, 3.176e-7
0.266, -8.084e-7, -4.895e-7, 3.188e-7
0.265, -8.093e-7, -4.904e-7, 3.188e-7
0.264, -8.105e-7, -4.923e-7, 3.182e-7
0.263, -8.114e-7, -4.932e-7, 3.182e-7
0.262, -8.142e-7, -4.935e-7, 3.207e-7
0.261, -8.154e-7, -4.950e-7, 3.204e-7
0.260, -8.169e-7, -4.962e-7, 3.207e-7
0.259, -8.172e-7, -4.962e-7, 3.210e-7
0.258, -8.193e-7, -4.968e-7, 3.225e-7
0.257, -8.197e-7, -4.984e-7, 3.213e-7
0.256, -8.206e-7, -4.981e-7, 3.225e-7
0.255, -8.230e-7, -4.996e-7, 3.234e-7
0.254, -8.236e-7, -5.005e-7, 3.231e-7
0.253, -8.258e-7, -5.023e-7, 3.234e-7
0.252, -8.255e-7, -5.014e-7, 3.240e-7
0.251, -8.264e-7, -5.030e-7, 3.234e-7
0.250, -8.291e-7, -5.039e-7, 3.252e-7
0.249, -8.297e-7, -5.048e-7, 3.249e-7
0.248, -8.316e-7, -5.054e-7, 3.262e-7
0.247, -8.325e-7, -5.060e-7, 3.265e-7
0.246, -8.343e-7, -5.072e-7, 3.271e-7
0.245, -8.367e-7, -5.103e-7, 3.265e-7
0.244, -8.355e-7, -5.081e-7, 3.274e-7
0.243, -8.380e-7, -5.100e-7, 3.280e-7
0.242, -8.380e-7, -5.100e-7, 3.280e-7
0.241, -8.398e-7, -5.106e-7, 3.292e-7
0.240, -8.410e-7, -5.106e-7, 3.304e-7
0.239, -8.413e-7, -5.124e-7, 3.289e-7
0.238, -8.444e-7, -5.133e-7, 3.310e-7
0.237, -8.444e-7, -5.127e-7, 3.317e-7
0.236, -8.450e-7, -5.149e-7, 3.301e-7
0.235, -8.468e-7, -5.155e-7, 3.313e-7
0.234, -8.486e-7, -5.158e-7, 3.329e-7
0.233, -8.486e-7, -5.167e-7, 3.320e-7
0.232, -8.520e-7, -5.182e-7, 3.338e-7
0.231, -8.526e-7, -5.176e-7, 3.350e-7
0.230, -8.511e-7, -5.188e-7, 3.323e-7
0.229, -8.535e-7, -5.194e-7, 3.341e-7
0.228, -8.538e-7, -5.197e-7, 3.341e-7
0.227, -8.547e-7, -5.207e-7, 3.341e-7
0.226, -8.566e-7, -5.213e-7, 3.353e-7
0.225, -8.578e-7, -5.219e-7, 3.359e-7
0.224, -8.590e-7, -5.231e-7, 3.359e-7
0.223, -8.602e-7, -5.240e-7, 3.362e-7
0.222, -8.605e-7, -5.237e-7, 3.368e-7
0.221, -8.624e-7, -5.255e-7, 3.368e-7
0.220, -8.627e-7, -5.246e-7, 3.381e-7
0.219, -8.639e-7, -5.258e-7, 3.381e-7
0.218, -8.630e-7, -5.258e-7, 3.371e-7
0.217, -8.666e-7, -5.277e-7, 3.390e-7
0.216, -8.676e-7, -5.280e-7, 3.396e-7
0.215, -8.676e-7, -5.286e-7, 3.390e-7
0.214, -8.688e-7, -5.283e-7, 3.405e-7
0.213, -8.697e-7, -5.280e-7, 3.417e-7
0.212, -8.706e-7, -5.301e-7, 3.405e-7
0.211, -8.731e-7, -5.304e-7, 3.426e-7
0.210, -8.728e-7, -5.304e-7, 3.423e-7
0.209, -8.743e-7, -5.319e-7, 3.423e-7
0.208, -8.752e-7, -5.316e-7, 3.436e-7
0.207, -8.755e-7, -5.319e-7, 3.436e-7
0.206, -8.767e-7, -5.335e-7, 3.433e-7
0.205, -8.782e-7, -5.344e-7, 3.439e-7
0.204, -8.767e-7, -5.335e-7, 3.433e-7
0.203, -8.813e-7, -5.350e-7, 3.463e-7
0.202, -8.804e-7, -5.344e-7, 3.460e-7
0.201, -8.807e-7, -5.353e-7, 3.454e-7
0.200, -8.825e-7, -5.359e-7, 3.466e-7
0.199, -8.840e-7, -5.368e-7, 3.472e-7
0.198, -8.834e-7, -5.356e-7, 3.478e-7
0.197, -8.850e-7, -5.371e-7, 3.478e-7
0.196, -8.853e-7, -5.377e-7, 3.475e-7
0.195, -8.856e-7, -5.374e-7, 3.481e-7
0.194, -8.880e-7, -5.387e-7, 3.494e-7
0.193, -8.880e-7, -5.387e-7, 3.494e-7
0.192, -8.883e-7, -5.393e-7, 3.490e-7
0.191, -8.892e-7, -5.405e-7, 3.487e-7
0.190, -8.892e-7, -5.396e-7, 3.497e-7
0.189, -8.895e-7, -5.390e-7, 3.506e-7
0.188, -8.905e-7, -5.402e-7, 3.503e-7
0.187, -8.920e-7, -5.402e-7, 3.518e-7
0.186, -8.911e-7, -5.402e-7, 3.509e-7
0.185, -8.911e-7, -5.405e-7, 3.506e-7
0.184, -8.941e-7, -5.405e-7, 3.536e-7
0.183, -8.947e-7, -5.414e-7, 3.533e-7
0.182, -8.962e-7, -5.435e-7, 3.527e-7
0.181, -8.966e-7, -5.420e-7, 3.545e-7
0.180, -8.947e-7, -5.408e-7, 3.539e-7
0.179, -8.972e-7, -5.432e-7, 3.539e-7
0.178, -8.972e-7, -5.423e-7, 3.548e-7
0.177, -8.969e-7, -5.420e-7, 3.548e-7
0.176, -8.969e-7, -5.423e-7, 3.545e-7
0.175, -8.984e-7, -5.432e-7, 3.552e-7
0.174, -9.008e-7, -5.432e-7, 3.576e-7
0.173, -8.993e-7, -5.432e-7, 3.561e-7
0.172, -9.008e-7, -5.435e-7, 3.573e-7
0.171, -9.008e-7, -5.429e-7, 3.579e-7
0.170, -8.993e-7, -5.426e-7, 3.567e-7
0.169, -9.011e-7, -5.429e-7, 3.582e-7
0.168, -9.011e-7, -5.426e-7, 3.585e-7
0.167, -9.030e-7, -5.445e-7, 3.585e-7
0.166, -9.039e-7, -5.445e-7, 3.594e-7
0.165, -9.039e-7, -5.442e-7, 3.597e-7
0.164, -9.030e-7, -5.442e-7, 3.588e-7
0.163, -9.036e-7, -5.435e-7, 3.600e-7
0.162, -9.048e-7, -5.442e-7, 3.606e-7
0.161, -9.045e-7, -5.435e-7, 3.609e-7
0.160, -9.048e-7, -5.438e-7, 3.609e-7
0.159, -9.048e-7, -5.438e-7, 3.609e-7
0.158, -9.033e-7, -5.426e-7, 3.606e-7
0.157, -9.054e-7, -5.435e-7, 3.619e-7
0.156, -9.063e-7, -5.438e-7, 3.625e-7
0.155, -9.063e-7, -5.445e-7, 3.619e-7
0.154, -9.048e-7, -5.438e-7, 3.609e-7
0.153, -9.045e-7, -5.423e-7, 3.622e-7
0.152, -9.060e-7, -5.435e-7, 3.625e-7
0.151, -9.054e-7, -5.429e-7, 3.625e-7
0.150, -9.066e-7, -5.429e-7, 3.637e-7
0.149, -9.072e-7, -5.435e-7, 3.637e-7
0.148, -9.063e-7, -5.426e-7, 3.637e-7
0.147, -9.060e-7, -5.420e-7, 3.640e-7
0.146, -9.072e-7, -5.426e-7, 3.646e-7
0.145, -9.078e-7, -5.417e-7, 3.661e-7
0.144, -9.060e-7, -5.411e-7, 3.649e-7
0.143, -9.072e-7, -5.423e-7, 3.649e-7
0.142, -9.075e-7, -5.417e-7, 3.658e-7
0.141, -9.085e-7, -5.411e-7, 3.674e-7
0.140, -9.066e-7, -5.399e-7, 3.667e-7
0.139, -9.069e-7, -5.408e-7, 3.661e-7
0.138, -9.060e-7, -5.396e-7, 3.664e-7
0.137, -9.072e-7, -5.405e-7, 3.667e-7
0.136, -9.051e-7, -5.384e-7, 3.667e-7
0.135, -9.063e-7, -5.393e-7, 3.671e-7
0.134, -9.051e-7, -5.387e-7, 3.664e-7
0.133, -9.057e-7, -5.377e-7, 3.680e-7
0.132, -9.051e-7, -5.377e-7, 3.674e-7
0.131, -9.057e-7, -5.380e-7, 3.677e-7
0.130, -9.042e-7, -5.365e-7, 3.677e-7
0.129, -9.039e-7, -5.362e-7, 3.677e-7
0.128, -9.033e-7, -5.371e-7, 3.661e-7
0.127, -9.060e-7, -5.368e-7, 3.692e-7
0.126, -9.030e-7, -5.347e-7, 3.683e-7
0.125, -9.039e-7, -5.365e-7, 3.674e-7
0.124, -9.033e-7, -5.350e-7, 3.683e-7
0.123, -9.033e-7, -5.338e-7, 3.695e-7
0.122, -9.024e-7, -5.341e-7, 3.683e-7
0.121, -9.042e-7, -5.344e-7, 3.698e-7
0.120, -9.017e-7, -5.332e-7, 3.686e-7
0.119, -9.002e-7, -5.326e-7, 3.677e-7
0.118, -9.014e-7, -5.316e-7, 3.698e-7
0.117, -9.002e-7, -5.307e-7, 3.695e-7
0.116, -9.002e-7, -5.319e-7, 3.683e-7
0.115, -8.996e-7, -5.301e-7, 3.695e-7
0.114, -8.990e-7, -5.295e-7, 3.695e-7
0.113, -8.984e-7, -5.301e-7, 3.683e-7
0.112, -8.984e-7, -5.289e-7, 3.695e-7
0.111, -8.956e-7, -5.277e-7, 3.680e-7
0.110, -8.969e-7, -5.277e-7, 3.692e-7
0.109, -8.959e-7, -5.268e-7, 3.692e-7
0.108, -8.953e-7, -5.261e-7, 3.692e-7
0.107, -8.944e-7, -5.261e-7, 3.683e-7
0.106, -8.944e-7, -5.252e-7, 3.692e-7
0.105, -8.941e-7, -5.246e-7, 3.695e-7
0.104, -8.917e-7, -5.237e-7, 3.680e-7
0.103, -8.938e-7, -5.246e-7, 3.692e-7
0.102, -8.920e-7, -5.231e-7, 3.689e-7
0.101, -8.914e-7, -5.228e-7, 3.686e-7
0.100, -8.926e-7, -5.228e-7, 3.698e-7
0.099, -8.889e-7, -5.203e-7, 3.686e-7
0.098, -8.883e-7, -5.200e-7, 3.683e-7
0.097, -8.892e-7, -5.207e-7, 3.686e-7
0.096, -8.874e-7, -5.188e-7, 3.686e-7
0.095, -8.880e-7, -5.194e-7, 3.686e-7
0.094, -8.859e-7, -5.182e-7, 3.677e-7
0.093, -8.843e-7, -5.170e-7, 3.674e-7
0.092, -8.828e-7, -5.158e-7, 3.671e-7
0.091, -8.834e-7, -5.161e-7, 3.674e-7
0.090, -8.816e-7, -5.139e-7, 3.677e-7
0.089, -8.819e-7, -5.142e-7, 3.677e-7
0.088, -8.828e-7, -5.139e-7, 3.689e-7
0.087, -8.789e-7, -5.115e-7, 3.674e-7
0.086, -8.786e-7, -5.118e-7, 3.667e-7
0.085, -8.779e-7, -5.109e-7, 3.671e-7
0.084, -8.773e-7, -5.106e-7, 3.667e-7
0.083, -8.752e-7, -5.103e-7, 3.649e-7
0.082, -8.752e-7, -5.091e-7, 3.661e-7
0.081, -8.746e-7, -5.084e-7, 3.661e-7
0.080, -8.749e-7, -5.088e-7, 3.661e-7
0.079, -8.728e-7, -5.069e-7, 3.658e-7
0.078, -8.706e-7, -5.057e-7, 3.649e-7
0.077, -8.694e-7, -5.045e-7, 3.649e-7
0.076, -8.709e-7, -5.051e-7, 3.658e-7
0.075, -8.688e-7, -5.036e-7, 3.652e-7
0.074, -8.676e-7, -5.030e-7, 3.646e-7
0.073, -8.682e-7, -5.030e-7, 3.652e-7
0.072, -8.654e-7, -5.017e-7, 3.637e-7
0.071, -8.654e-7, -5.011e-7, 3.643e-7
0.070, -8.630e-7, -5.005e-7, 3.625e-7
0.069, -8.609e-7, -4.981e-7, 3.628e-7
0.068, -8.605e-7, -4.981e-7, 3.625e-7
0.067, -8.602e-7, -4.978e-7, 3.625e-7
0.066, -8.581e-7, -4.953e-7, 3.628e-7
0.065, -8.569e-7, -4.956e-7, 3.613e-7
0.064, -8.587e-7, -4.965e-7, 3.622e-7
0.063, -8.554e-7, -4.947e-7, 3.606e-7
0.062, -8.541e-7, -4.944e-7, 3.597e-7
0.061, -8.544e-7, -4.929e-7, 3.616e-7
0.060, -8.523e-7, -4.923e-7, 3.600e-7
0.059, -8.529e-7, -4.920e-7, 3.609e-7
0.058, -8.499e-7, -4.901e-7, 3.597e-7
0.057, -8.514e-7, -4.901e-7, 3.613e-7
0.056, -8.483e-7, -4.889e-7, 3.594e-7
0.055, -8.471e-7, -4.889e-7, 3.582e-7
0.054, -8.453e-7, -4.868e-7, 3.585e-7
0.053, -8.447e-7, -4.871e-7, 3.576e-7
0.052, -8.447e-7, -4.862e-7, 3.585e-7
0.051, -8.416e-7, -4.850e-7, 3.567e-7
0.050, -8.410e-7, -4.850e-7, 3.561e-7
0.049, -8.401e-7, -4.837e-7, 3.564e-7
0.048, -8.380e-7, -4.822e-7, 3.558e-7
0.047, -8.374e-7, -4.828e-7, 3.545e-7
0.046, -8.367e-7, -4.807e-7, 3.561e-7
0.045, -8.361e-7, -4.810e-7, 3.551e-7
0.044, -8.346e-7, -4.810e-7, 3.536e-7
0.043, -8.322e-7, -4.776e-7, 3.545e-7
0.042, -8.303e-7, -4.770e-7, 3.533e-7
0.041, -8.291e-7, -4.767e-7, 3.524e-7
0.040, -8.300e-7, -4.779e-7, 3.521e-7
0.039, -8.279e-7, -4.755e-7, 3.524e-7
0.038, -8.282e-7, -4.755e-7, 3.527e-7
0.037, -8.261e-7, -4.746e-7, 3.515e-7
0.036, -8.230e-7, -4.730e-7, 3.500e-7
0.035, -8.239e-7, -4.743e-7, 3.497e-7
0.034, -8.227e-7, -4.734e-7, 3.494e-7
0.033, -8.224e-7, -4.724e-7, 3.500e-7
0.032, -8.197e-7, -4.715e-7, 3.481e-7
0.031, -8.190e-7, -4.709e-7, 3.481e-7
0.030, -8.184e-7, -4.703e-7, 3.481e-7
0.029, -8.178e-7, -4.700e-7, 3.478e-7
0.028, -8.169e-7, -4.691e-7, 3.478e-7
0.027, -8.151e-7, -4.679e-7, 3.472e-7
0.026, -8.132e-7, -4.669e-7, 3.463e-7
0.025, -8.126e-7, -4.669e-7, 3.457e-7
0.024, -8.117e-7, -4.654e-7, 3.463e-7
0.023, -8.105e-7, -4.657e-7, 3.448e-7
0.022, -8.087e-7, -4.648e-7, 3.439e-7
0.021, -8.078e-7, -4.642e-7, 3.436e-7
0.020, -8.068e-7, -4.633e-7, 3.436e-7
0.019, -8.068e-7, -4.630e-7, 3.439e-7
0.018, -8.038e-7, -4.615e-7, 3.423e-7
0.017, -8.044e-7, -4.627e-7, 3.417e-7
0.016, -8.041e-7, -4.621e-7, 3.420e-7
0.015, -8.007e-7, -4.602e-7, 3.405e-7
0.014, -8.013e-7, -4.602e-7, 3.411e-7
0.013, -8.001e-7, -4.596e-7, 3.405e-7
0.012, -7.980e-7, -4.581e-7, 3.399e-7
0.011, -7.965e-7, -4.584e-7, 3.381e-7
0.010, -7.962e-7, -4.566e-7, 3.396e-7
0.009, -7.937e-7, -4.554e-7, 3.384e-7
0.008, -7.940e-7, -4.569e-7, 3.371e-7
0.007, -7.919e-7, -4.550e-7, 3.368e-7
0.006, -7.901e-7, -4.544e-7, 3.356e-7
0.005, -7.910e-7, -4.547e-7, 3.362e-7
0.004, -7.897e-7, -4.544e-7, 3.353e-7
0.003, -7.888e-7, -4.535e-7, 3.353e-7
0.002, -7.882e-7, -4.529e-7, 3.353e-7
0.001, -7.876e-7, -4.526e-7, 3.350e-7
-0.000, -7.855e-7, -4.514e-7, 3.341e-7
-0.001, -7.855e-7, -4.514e-7, 3.341e-7
-0.002, -7.846e-7, -4.514e-7, 3.332e-7
-0.003, -7.833e-7, -4.505e-7, 3.329e-7
-0.004, -7.809e-7, -4.499e-7, 3.310e-7
-0.005, -7.818e-7, -4.496e-7, 3.323e-7
-0.006, -7.803e-7, -4.489e-7, 3.313e-7
-0.007, -7.800e-7, -4.492e-7, 3.307e-7
-0.008, -7.788e-7, -4.480e-7, 3.307e-7
-0.009, -7.782e-7, -4.483e-7, 3.298e-7
-0.010, -7.778e-7, -4.477e-7, 3.301e-7
-0.011, -7.763e-7, -4.483e-7, 3.280e-7
-0.012, -7.760e-7, -4.477e-7, 3.283e-7
-0.013, -7.745e-7, -4.468e-7, 3.277e-7
-0.014, -7.745e-7, -4.465e-7, 3.280e-7
-0.015, -7.714e-7, -4.447e-7, 3.268e-7
-0.016, -7.721e-7, -4.456e-7, 3.265e-7
-0.017, -7.708e-7, -4.447e-7, 3.262e-7
-0.018, -7.696e-7, -4.434e-7, 3.262e-7
-0.019, -7.684e-7, -4.441e-7, 3.243e-7
-0.020, -7.684e-7, -4.441e-7, 3.243e-7
-0.021, -7.675e-7, -4.419e-7, 3.255e-7
-0.022, -7.669e-7, -4.425e-7, 3.243e-7
-0.023, -7.678e-7, -4.434e-7, 3.243e-7
-0.024, -7.647e-7, -4.416e-7, 3.231e-7
-0.025, -7.626e-7, -4.413e-7, 3.213e-7
-0.026, -7.647e-7, -4.422e-7, 3.225e-7
-0.027, -7.635e-7, -4.413e-7, 3.222e-7
-0.028, -7.617e-7, -4.413e-7, 3.204e-7
-0.029, -7.641e-7, -4.413e-7, 3.228e-7
-0.030, -7.611e-7, -4.407e-7, 3.204e-7
-0.031, -7.589e-7, -4.404e-7, 3.185e-7
-0.032, -7.608e-7, -4.404e-7, 3.204e-7
-0.033, -7.589e-7, -4.389e-7, 3.201e-7
-0.034, -7.580e-7, -4.398e-7, 3.182e-7
-0.035, -7.571e-7, -4.386e-7, 3.185e-7
-0.036, -7.562e-7, -4.383e-7, 3.179e-7
-0.037, -7.571e-7, -4.398e-7, 3.173e-7
-0.038, -7.574e-7, -4.386e-7, 3.188e-7
-0.039, -7.559e-7, -4.377e-7, 3.182e-7
-0.040, -7.547e-7, -4.386e-7, 3.161e-7
-0.041, -7.550e-7, -4.380e-7, 3.170e-7
-0.042, -7.540e-7, -4.380e-7, 3.161e-7
-0.043, -7.537e-7, -4.383e-7, 3.155e-7
-0.044, -7.544e-7, -4.377e-7, 3.167e-7
-0.045, -7.519e-7, -4.367e-7, 3.152e-7
-0.046, -7.519e-7, -4.370e-7, 3.149e-7
-0.047, -7.507e-7, -4.370e-7, 3.136e-7
-0.048, -7.501e-7, -4.367e-7, 3.133e-7
-0.049, -7.504e-7, -4.367e-7, 3.136e-7
-0.050, -7.501e-7, -4.361e-7, 3.140e-7
