Mar. 20, 2018   13:57:02
Square Wave Voltammetry
File: c:\users\electrochemist\desktop\2018\20032018_unbufarray_unpap\17_g0_ph6,01_5.txt
Data Source:  Experiment
Instrument Model:  CHI1040A
Header: 
Note: 

Init E (V) = 0.7
Final E (V) = -0.4
Incr E (V) = 0.001
Amplitude (V) = 0.1
Frequency (Hz) = 152
Quiet Time (sec) = 2
Sensitivity (A/V) = 1e-5

Difference:

Forward:

Reverse:

Potential/V, Diff(i/A), For(i/A), Rev(i/A)

0.699, -2.280e-6, -6.872e-7, 1.592e-6
0.698, -2.868e-6, -1.429e-6, 1.440e-6
0.697, -2.887e-6, -1.468e-6, 1.418e-6
0.696, -2.881e-6, -1.468e-6, 1.412e-6
0.695, -2.875e-6, -1.475e-6, 1.400e-6
0.694, -2.872e-6, -1.478e-6, 1.394e-6
0.693, -2.872e-6, -1.475e-6, 1.397e-6
0.692, -2.865e-6, -1.478e-6, 1.388e-6
0.691, -2.868e-6, -1.484e-6, 1.385e-6
0.690, -2.868e-6, -1.481e-6, 1.388e-6
0.689, -2.865e-6, -1.481e-6, 1.385e-6
0.688, -2.862e-6, -1.484e-6, 1.379e-6
0.687, -2.862e-6, -1.481e-6, 1.382e-6
0.686, -2.859e-6, -1.481e-6, 1.379e-6
0.685, -2.859e-6, -1.484e-6, 1.376e-6
0.684, -2.859e-6, -1.484e-6, 1.376e-6
0.683, -2.853e-6, -1.484e-6, 1.370e-6
0.682, -2.856e-6, -1.484e-6, 1.373e-6
0.681, -2.853e-6, -1.484e-6, 1.370e-6
0.680, -2.859e-6, -1.490e-6, 1.370e-6
0.679, -2.850e-6, -1.484e-6, 1.366e-6
0.678, -2.856e-6, -1.487e-6, 1.370e-6
0.677, -2.856e-6, -1.487e-6, 1.370e-6
0.676, -2.856e-6, -1.490e-6, 1.366e-6
0.675, -2.853e-6, -1.487e-6, 1.366e-6
0.674, -2.853e-6, -1.490e-6, 1.363e-6
0.673, -2.853e-6, -1.490e-6, 1.363e-6
0.672, -2.856e-6, -1.493e-6, 1.363e-6
0.671, -2.856e-6, -1.493e-6, 1.363e-6
0.670, -2.853e-6, -1.490e-6, 1.363e-6
0.669, -2.853e-6, -1.493e-6, 1.360e-6
0.668, -2.856e-6, -1.496e-6, 1.360e-6
0.667, -2.853e-6, -1.493e-6, 1.360e-6
0.666, -2.853e-6, -1.496e-6, 1.357e-6
0.665, -2.856e-6, -1.496e-6, 1.360e-6
0.664, -2.856e-6, -1.496e-6, 1.360e-6
0.663, -2.853e-6, -1.499e-6, 1.354e-6
0.662, -2.859e-6, -1.502e-6, 1.357e-6
0.661, -2.853e-6, -1.496e-6, 1.357e-6
0.660, -2.853e-6, -1.499e-6, 1.354e-6
0.659, -2.856e-6, -1.499e-6, 1.357e-6
0.658, -2.853e-6, -1.499e-6, 1.354e-6
0.657, -2.856e-6, -1.502e-6, 1.354e-6
0.656, -2.859e-6, -1.502e-6, 1.357e-6
0.655, -2.856e-6, -1.502e-6, 1.354e-6
0.654, -2.859e-6, -1.505e-6, 1.354e-6
0.653, -2.856e-6, -1.502e-6, 1.354e-6
0.652, -2.850e-6, -1.502e-6, 1.348e-6
0.651, -2.862e-6, -1.508e-6, 1.354e-6
0.650, -2.859e-6, -1.502e-6, 1.357e-6
0.649, -2.856e-6, -1.505e-6, 1.351e-6
0.648, -2.859e-6, -1.511e-6, 1.348e-6
0.647, -2.859e-6, -1.505e-6, 1.354e-6
0.646, -2.856e-6, -1.508e-6, 1.348e-6
0.645, -2.862e-6, -1.511e-6, 1.351e-6
0.644, -2.859e-6, -1.505e-6, 1.354e-6
0.643, -2.859e-6, -1.511e-6, 1.348e-6
0.642, -2.865e-6, -1.514e-6, 1.351e-6
0.641, -2.862e-6, -1.511e-6, 1.351e-6
0.640, -2.859e-6, -1.511e-6, 1.348e-6
0.639, -2.865e-6, -1.517e-6, 1.348e-6
0.638, -2.862e-6, -1.511e-6, 1.351e-6
0.637, -2.865e-6, -1.517e-6, 1.348e-6
0.636, -2.865e-6, -1.514e-6, 1.351e-6
0.635, -2.865e-6, -1.514e-6, 1.351e-6
0.634, -2.862e-6, -1.517e-6, 1.345e-6
0.633, -2.862e-6, -1.514e-6, 1.348e-6
0.632, -2.865e-6, -1.517e-6, 1.348e-6
0.631, -2.868e-6, -1.520e-6, 1.348e-6
0.630, -2.865e-6, -1.517e-6, 1.348e-6
0.629, -2.865e-6, -1.520e-6, 1.345e-6
0.628, -2.868e-6, -1.520e-6, 1.348e-6
0.627, -2.872e-6, -1.520e-6, 1.351e-6
0.626, -2.868e-6, -1.523e-6, 1.345e-6
0.625, -2.868e-6, -1.523e-6, 1.345e-6
0.624, -2.868e-6, -1.520e-6, 1.348e-6
0.623, -2.872e-6, -1.523e-6, 1.348e-6
0.622, -2.881e-6, -1.529e-6, 1.351e-6
0.621, -2.875e-6, -1.526e-6, 1.348e-6
0.620, -2.872e-6, -1.526e-6, 1.345e-6
0.619, -2.878e-6, -1.529e-6, 1.348e-6
0.618, -2.878e-6, -1.529e-6, 1.348e-6
0.617, -2.875e-6, -1.529e-6, 1.345e-6
0.616, -2.878e-6, -1.526e-6, 1.351e-6
0.615, -2.875e-6, -1.529e-6, 1.345e-6
0.614, -2.884e-6, -1.536e-6, 1.348e-6
0.613, -2.878e-6, -1.533e-6, 1.345e-6
0.612, -2.884e-6, -1.536e-6, 1.348e-6
0.611, -2.890e-6, -1.542e-6, 1.348e-6
0.610, -2.884e-6, -1.536e-6, 1.348e-6
0.609, -2.887e-6, -1.542e-6, 1.345e-6
0.608, -2.890e-6, -1.539e-6, 1.351e-6
0.607, -2.884e-6, -1.536e-6, 1.348e-6
0.606, -2.890e-6, -1.545e-6, 1.345e-6
0.605, -2.896e-6, -1.542e-6, 1.354e-6
0.604, -2.893e-6, -1.542e-6, 1.351e-6
0.603, -2.893e-6, -1.545e-6, 1.348e-6
0.602, -2.902e-6, -1.548e-6, 1.354e-6
0.601, -2.893e-6, -1.542e-6, 1.351e-6
0.600, -2.902e-6, -1.551e-6, 1.351e-6
0.599, -2.905e-6, -1.551e-6, 1.354e-6
0.598, -2.902e-6, -1.548e-6, 1.354e-6
0.597, -2.905e-6, -1.557e-6, 1.348e-6
0.596, -2.911e-6, -1.554e-6, 1.357e-6
0.595, -2.905e-6, -1.551e-6, 1.354e-6
0.594, -2.908e-6, -1.557e-6, 1.351e-6
0.593, -2.914e-6, -1.554e-6, 1.360e-6
0.592, -2.908e-6, -1.554e-6, 1.354e-6
0.591, -2.911e-6, -1.557e-6, 1.354e-6
0.590, -2.914e-6, -1.557e-6, 1.357e-6
0.589, -2.908e-6, -1.557e-6, 1.351e-6
0.588, -2.920e-6, -1.563e-6, 1.357e-6
0.587, -2.923e-6, -1.563e-6, 1.360e-6
0.586, -2.920e-6, -1.563e-6, 1.357e-6
0.585, -2.926e-6, -1.566e-6, 1.360e-6
0.584, -2.930e-6, -1.566e-6, 1.363e-6
0.583, -2.923e-6, -1.566e-6, 1.357e-6
0.582, -2.930e-6, -1.566e-6, 1.363e-6
0.581, -2.930e-6, -1.569e-6, 1.360e-6
0.580, -2.933e-6, -1.572e-6, 1.360e-6
0.579, -2.939e-6, -1.575e-6, 1.363e-6
0.578, -2.936e-6, -1.575e-6, 1.360e-6
0.577, -2.939e-6, -1.578e-6, 1.360e-6
0.576, -2.942e-6, -1.578e-6, 1.363e-6
0.575, -2.939e-6, -1.575e-6, 1.363e-6
0.574, -2.945e-6, -1.578e-6, 1.366e-6
0.573, -2.948e-6, -1.581e-6, 1.366e-6
0.572, -2.945e-6, -1.581e-6, 1.363e-6
0.571, -2.957e-6, -1.587e-6, 1.370e-6
0.570, -2.951e-6, -1.584e-6, 1.366e-6
0.569, -2.951e-6, -1.587e-6, 1.363e-6
0.568, -2.960e-6, -1.591e-6, 1.370e-6
0.567, -2.960e-6, -1.587e-6, 1.373e-6
0.566, -2.960e-6, -1.591e-6, 1.370e-6
0.565, -2.963e-6, -1.591e-6, 1.373e-6
0.564, -2.963e-6, -1.591e-6, 1.373e-6
0.563, -2.966e-6, -1.594e-6, 1.373e-6
0.562, -2.972e-6, -1.597e-6, 1.376e-6
0.561, -2.966e-6, -1.594e-6, 1.373e-6
0.560, -2.972e-6, -1.600e-6, 1.373e-6
0.559, -2.972e-6, -1.597e-6, 1.376e-6
0.558, -2.972e-6, -1.600e-6, 1.373e-6
0.557, -2.981e-6, -1.606e-6, 1.376e-6
0.556, -2.975e-6, -1.600e-6, 1.376e-6
0.555, -2.972e-6, -1.603e-6, 1.370e-6
0.554, -2.984e-6, -1.609e-6, 1.376e-6
0.553, -2.978e-6, -1.600e-6, 1.379e-6
0.552, -2.981e-6, -1.609e-6, 1.373e-6
0.551, -2.991e-6, -1.612e-6, 1.379e-6
0.550, -2.991e-6, -1.609e-6, 1.382e-6
0.549, -2.994e-6, -1.615e-6, 1.379e-6
0.548, -2.997e-6, -1.615e-6, 1.382e-6
0.547, -2.994e-6, -1.609e-6, 1.385e-6
0.546, -2.997e-6, -1.618e-6, 1.379e-6
0.545, -2.997e-6, -1.615e-6, 1.382e-6
0.544, -3.000e-6, -1.615e-6, 1.385e-6
0.543, -3.000e-6, -1.621e-6, 1.379e-6
0.542, -3.009e-6, -1.621e-6, 1.388e-6
0.541, -3.003e-6, -1.621e-6, 1.382e-6
0.540, -3.009e-6, -1.624e-6, 1.385e-6
0.539, -3.009e-6, -1.624e-6, 1.385e-6
0.538, -3.012e-6, -1.624e-6, 1.388e-6
0.537, -3.015e-6, -1.627e-6, 1.388e-6
0.536, -3.012e-6, -1.627e-6, 1.385e-6
0.535, -3.015e-6, -1.630e-6, 1.385e-6
0.534, -3.021e-6, -1.633e-6, 1.388e-6
0.533, -3.021e-6, -1.630e-6, 1.391e-6
0.532, -3.018e-6, -1.630e-6, 1.388e-6
0.531, -3.027e-6, -1.636e-6, 1.391e-6
0.530, -3.018e-6, -1.630e-6, 1.388e-6
0.529, -3.024e-6, -1.636e-6, 1.388e-6
0.528, -3.033e-6, -1.639e-6, 1.394e-6
0.527, -3.024e-6, -1.633e-6, 1.391e-6
0.526, -3.027e-6, -1.639e-6, 1.388e-6
0.525, -3.036e-6, -1.642e-6, 1.394e-6
0.524, -3.036e-6, -1.642e-6, 1.394e-6
0.523, -3.039e-6, -1.648e-6, 1.391e-6
0.522, -3.042e-6, -1.645e-6, 1.397e-6
0.521, -3.039e-6, -1.648e-6, 1.391e-6
0.520, -3.042e-6, -1.648e-6, 1.394e-6
0.519, -3.049e-6, -1.648e-6, 1.400e-6
0.518, -3.042e-6, -1.652e-6, 1.391e-6
0.517, -3.055e-6, -1.655e-6, 1.400e-6
0.516, -3.052e-6, -1.652e-6, 1.400e-6
0.515, -3.058e-6, -1.658e-6, 1.400e-6
0.514, -3.064e-6, -1.661e-6, 1.403e-6
0.513, -3.061e-6, -1.658e-6, 1.403e-6
0.512, -3.061e-6, -1.661e-6, 1.400e-6
0.511, -3.070e-6, -1.661e-6, 1.409e-6
0.510, -3.070e-6, -1.664e-6, 1.406e-6
0.509, -3.076e-6, -1.670e-6, 1.406e-6
0.508, -3.079e-6, -1.670e-6, 1.409e-6
0.507, -3.070e-6, -1.664e-6, 1.406e-6
0.506, -3.082e-6, -1.676e-6, 1.406e-6
0.505, -3.082e-6, -1.670e-6, 1.412e-6
0.504, -3.082e-6, -1.673e-6, 1.409e-6
0.503, -3.088e-6, -1.679e-6, 1.409e-6
0.502, -3.091e-6, -1.676e-6, 1.415e-6
0.501, -3.085e-6, -1.673e-6, 1.412e-6
0.500, -3.094e-6, -1.682e-6, 1.412e-6
0.499, -3.097e-6, -1.679e-6, 1.418e-6
0.498, -3.094e-6, -1.682e-6, 1.412e-6
0.497, -3.110e-6, -1.688e-6, 1.421e-6
0.496, -3.107e-6, -1.688e-6, 1.418e-6
0.495, -3.113e-6, -1.691e-6, 1.421e-6
0.494, -3.110e-6, -1.691e-6, 1.418e-6
0.493, -3.116e-6, -1.691e-6, 1.424e-6
0.492, -3.116e-6, -1.691e-6, 1.424e-6
0.491, -3.122e-6, -1.697e-6, 1.424e-6
0.490, -3.122e-6, -1.697e-6, 1.424e-6
0.489, -3.125e-6, -1.700e-6, 1.424e-6
0.488, -3.131e-6, -1.703e-6, 1.427e-6
0.487, -3.128e-6, -1.700e-6, 1.427e-6
0.486, -3.137e-6, -1.706e-6, 1.431e-6
0.485, -3.137e-6, -1.706e-6, 1.431e-6
0.484, -3.137e-6, -1.710e-6, 1.427e-6
0.483, -3.140e-6, -1.710e-6, 1.431e-6
0.482, -3.140e-6, -1.706e-6, 1.434e-6
0.481, -3.149e-6, -1.716e-6, 1.434e-6
0.480, -3.149e-6, -1.713e-6, 1.437e-6
0.479, -3.158e-6, -1.719e-6, 1.440e-6
0.478, -3.155e-6, -1.719e-6, 1.437e-6
0.477, -3.158e-6, -1.719e-6, 1.440e-6
0.476, -3.155e-6, -1.719e-6, 1.437e-6
0.475, -3.158e-6, -1.722e-6, 1.437e-6
0.474, -3.168e-6, -1.728e-6, 1.440e-6
0.473, -3.164e-6, -1.725e-6, 1.440e-6
0.472, -3.171e-6, -1.731e-6, 1.440e-6
0.471, -3.177e-6, -1.731e-6, 1.446e-6
0.470, -3.177e-6, -1.734e-6, 1.443e-6
0.469, -3.180e-6, -1.734e-6, 1.446e-6
0.468, -3.183e-6, -1.734e-6, 1.449e-6
0.467, -3.186e-6, -1.737e-6, 1.449e-6
0.466, -3.192e-6, -1.743e-6, 1.449e-6
0.465, -3.189e-6, -1.737e-6, 1.452e-6
0.464, -3.186e-6, -1.743e-6, 1.443e-6
0.463, -3.198e-6, -1.746e-6, 1.452e-6
0.462, -3.198e-6, -1.743e-6, 1.455e-6
0.461, -3.198e-6, -1.749e-6, 1.449e-6
0.460, -3.204e-6, -1.749e-6, 1.455e-6
0.459, -3.201e-6, -1.746e-6, 1.455e-6
0.458, -3.204e-6, -1.752e-6, 1.452e-6
0.457, -3.210e-6, -1.755e-6, 1.455e-6
0.456, -3.213e-6, -1.752e-6, 1.461e-6
0.455, -3.207e-6, -1.752e-6, 1.455e-6
0.454, -3.222e-6, -1.761e-6, 1.461e-6
0.453, -3.219e-6, -1.758e-6, 1.461e-6
0.452, -3.222e-6, -1.764e-6, 1.458e-6
0.451, -3.229e-6, -1.764e-6, 1.464e-6
0.450, -3.229e-6, -1.764e-6, 1.464e-6
0.449, -3.235e-6, -1.771e-6, 1.464e-6
0.448, -3.232e-6, -1.764e-6, 1.467e-6
0.447, -3.235e-6, -1.768e-6, 1.467e-6
0.446, -3.238e-6, -1.774e-6, 1.464e-6
0.445, -3.244e-6, -1.774e-6, 1.470e-6
0.444, -3.244e-6, -1.777e-6, 1.467e-6
0.443, -3.247e-6, -1.780e-6, 1.467e-6
0.442, -3.250e-6, -1.777e-6, 1.473e-6
0.441, -3.253e-6, -1.783e-6, 1.470e-6
0.440, -3.250e-6, -1.777e-6, 1.473e-6
0.439, -3.259e-6, -1.783e-6, 1.476e-6
0.438, -3.256e-6, -1.783e-6, 1.473e-6
0.437, -3.265e-6, -1.786e-6, 1.479e-6
0.436, -3.268e-6, -1.789e-6, 1.479e-6
0.435, -3.268e-6, -1.792e-6, 1.476e-6
0.434, -3.274e-6, -1.795e-6, 1.479e-6
0.433, -3.271e-6, -1.792e-6, 1.479e-6
0.432, -3.274e-6, -1.798e-6, 1.476e-6
0.431, -3.277e-6, -1.795e-6, 1.482e-6
0.430, -3.280e-6, -1.801e-6, 1.479e-6
0.429, -3.283e-6, -1.801e-6, 1.482e-6
0.428, -3.290e-6, -1.804e-6, 1.485e-6
0.427, -3.293e-6, -1.807e-6, 1.485e-6
0.426, -3.296e-6, -1.810e-6, 1.485e-6
0.425, -3.296e-6, -1.807e-6, 1.489e-6
0.424, -3.299e-6, -1.813e-6, 1.485e-6
0.423, -3.305e-6, -1.816e-6, 1.489e-6
0.422, -3.308e-6, -1.816e-6, 1.492e-6
0.421, -3.308e-6, -1.819e-6, 1.489e-6
0.420, -3.317e-6, -1.822e-6, 1.495e-6
0.419, -3.311e-6, -1.819e-6, 1.492e-6
0.418, -3.317e-6, -1.825e-6, 1.492e-6
0.417, -3.323e-6, -1.822e-6, 1.501e-6
0.416, -3.320e-6, -1.822e-6, 1.498e-6
0.415, -3.329e-6, -1.832e-6, 1.498e-6
0.414, -3.332e-6, -1.829e-6, 1.504e-6
0.413, -3.332e-6, -1.832e-6, 1.501e-6
0.412, -3.338e-6, -1.841e-6, 1.498e-6
0.411, -3.341e-6, -1.835e-6, 1.507e-6
0.410, -3.338e-6, -1.838e-6, 1.501e-6
0.409, -3.348e-6, -1.847e-6, 1.501e-6
0.408, -3.351e-6, -1.844e-6, 1.507e-6
0.407, -3.354e-6, -1.844e-6, 1.510e-6
0.406, -3.360e-6, -1.853e-6, 1.507e-6
0.405, -3.360e-6, -1.850e-6, 1.510e-6
0.404, -3.363e-6, -1.853e-6, 1.510e-6
0.403, -3.369e-6, -1.856e-6, 1.513e-6
0.402, -3.372e-6, -1.859e-6, 1.513e-6
0.401, -3.372e-6, -1.859e-6, 1.513e-6
0.400, -3.384e-6, -1.865e-6, 1.519e-6
0.399, -3.384e-6, -1.865e-6, 1.519e-6
0.398, -3.384e-6, -1.868e-6, 1.516e-6
0.397, -3.396e-6, -1.871e-6, 1.525e-6
0.396, -3.396e-6, -1.874e-6, 1.522e-6
0.395, -3.390e-6, -1.871e-6, 1.519e-6
0.394, -3.403e-6, -1.874e-6, 1.528e-6
0.393, -3.403e-6, -1.877e-6, 1.525e-6
0.392, -3.409e-6, -1.880e-6, 1.528e-6
0.391, -3.412e-6, -1.883e-6, 1.528e-6
0.390, -3.418e-6, -1.887e-6, 1.531e-6
0.389, -3.421e-6, -1.890e-6, 1.531e-6
0.388, -3.424e-6, -1.890e-6, 1.534e-6
0.387, -3.427e-6, -1.893e-6, 1.534e-6
0.386, -3.433e-6, -1.896e-6, 1.537e-6
0.385, -3.433e-6, -1.896e-6, 1.537e-6
0.384, -3.436e-6, -1.902e-6, 1.534e-6
0.383, -3.442e-6, -1.902e-6, 1.540e-6
0.382, -3.448e-6, -1.905e-6, 1.543e-6
0.381, -3.448e-6, -1.908e-6, 1.540e-6
0.380, -3.457e-6, -1.911e-6, 1.547e-6
0.379, -3.454e-6, -1.911e-6, 1.543e-6
0.378, -3.464e-6, -1.917e-6, 1.547e-6
0.377, -3.460e-6, -1.917e-6, 1.543e-6
0.376, -3.464e-6, -1.917e-6, 1.547e-6
0.375, -3.470e-6, -1.920e-6, 1.550e-6
0.374, -3.476e-6, -1.923e-6, 1.553e-6
0.373, -3.476e-6, -1.926e-6, 1.550e-6
0.372, -3.482e-6, -1.932e-6, 1.550e-6
0.371, -3.488e-6, -1.929e-6, 1.559e-6
0.370, -3.488e-6, -1.932e-6, 1.556e-6
0.369, -3.497e-6, -1.938e-6, 1.559e-6
0.368, -3.497e-6, -1.935e-6, 1.562e-6
0.367, -3.500e-6, -1.941e-6, 1.559e-6
0.366, -3.506e-6, -1.944e-6, 1.562e-6
0.365, -3.506e-6, -1.941e-6, 1.565e-6
0.364, -3.512e-6, -1.951e-6, 1.562e-6
0.363, -3.518e-6, -1.951e-6, 1.568e-6
0.362, -3.518e-6, -1.951e-6, 1.568e-6
0.361, -3.518e-6, -1.954e-6, 1.565e-6
0.360, -3.531e-6, -1.960e-6, 1.571e-6
0.359, -3.525e-6, -1.954e-6, 1.571e-6
0.358, -3.528e-6, -1.963e-6, 1.565e-6
0.357, -3.540e-6, -1.969e-6, 1.571e-6
0.356, -3.540e-6, -1.966e-6, 1.574e-6
0.355, -3.543e-6, -1.972e-6, 1.571e-6
0.354, -3.552e-6, -1.975e-6, 1.577e-6
0.353, -3.549e-6, -1.972e-6, 1.577e-6
0.352, -3.555e-6, -1.978e-6, 1.577e-6
0.351, -3.561e-6, -1.981e-6, 1.580e-6
0.350, -3.564e-6, -1.981e-6, 1.583e-6
0.349, -3.570e-6, -1.987e-6, 1.583e-6
0.348, -3.573e-6, -1.987e-6, 1.586e-6
0.347, -3.570e-6, -1.987e-6, 1.583e-6
0.346, -3.583e-6, -1.996e-6, 1.586e-6
0.345, -3.583e-6, -1.993e-6, 1.589e-6
0.344, -3.583e-6, -1.996e-6, 1.586e-6
0.343, -3.592e-6, -1.999e-6, 1.592e-6
0.342, -3.592e-6, -2.002e-6, 1.589e-6
0.341, -3.598e-6, -2.006e-6, 1.592e-6
0.340, -3.604e-6, -2.009e-6, 1.595e-6
0.339, -3.604e-6, -2.009e-6, 1.595e-6
0.338, -3.613e-6, -2.018e-6, 1.595e-6
0.337, -3.616e-6, -2.018e-6, 1.598e-6
0.336, -3.616e-6, -2.021e-6, 1.595e-6
0.335, -3.625e-6, -2.024e-6, 1.601e-6
0.334, -3.628e-6, -2.024e-6, 1.604e-6
0.333, -3.631e-6, -2.027e-6, 1.604e-6
0.332, -3.634e-6, -2.033e-6, 1.601e-6
0.331, -3.644e-6, -2.033e-6, 1.611e-6
0.330, -3.647e-6, -2.039e-6, 1.608e-6
0.329, -3.650e-6, -2.039e-6, 1.611e-6
0.328, -3.656e-6, -2.042e-6, 1.614e-6
0.327, -3.659e-6, -2.048e-6, 1.611e-6
0.326, -3.665e-6, -2.051e-6, 1.614e-6
0.325, -3.668e-6, -2.051e-6, 1.617e-6
0.324, -3.671e-6, -2.057e-6, 1.614e-6
0.323, -3.677e-6, -2.057e-6, 1.620e-6
0.322, -3.680e-6, -2.060e-6, 1.620e-6
0.321, -3.686e-6, -2.067e-6, 1.620e-6
0.320, -3.692e-6, -2.067e-6, 1.626e-6
0.319, -3.689e-6, -2.067e-6, 1.623e-6
0.318, -3.699e-6, -2.076e-6, 1.623e-6
0.317, -3.708e-6, -2.076e-6, 1.632e-6
0.316, -3.708e-6, -2.076e-6, 1.632e-6
0.315, -3.717e-6, -2.088e-6, 1.629e-6
0.314, -3.723e-6, -2.085e-6, 1.638e-6
0.313, -3.726e-6, -2.091e-6, 1.635e-6
0.312, -3.729e-6, -2.094e-6, 1.635e-6
0.311, -3.735e-6, -2.094e-6, 1.641e-6
0.310, -3.735e-6, -2.094e-6, 1.641e-6
0.309, -3.744e-6, -2.103e-6, 1.641e-6
0.308, -3.753e-6, -2.106e-6, 1.647e-6
0.307, -3.760e-6, -2.112e-6, 1.647e-6
0.306, -3.763e-6, -2.112e-6, 1.650e-6
0.305, -3.766e-6, -2.115e-6, 1.650e-6
0.304, -3.769e-6, -2.118e-6, 1.650e-6
0.303, -3.778e-6, -2.121e-6, 1.656e-6
0.302, -3.784e-6, -2.125e-6, 1.659e-6
0.301, -3.784e-6, -2.128e-6, 1.656e-6
0.300, -3.793e-6, -2.131e-6, 1.662e-6
0.299, -3.799e-6, -2.137e-6, 1.662e-6
0.298, -3.805e-6, -2.140e-6, 1.666e-6
0.297, -3.808e-6, -2.140e-6, 1.669e-6
0.296, -3.811e-6, -2.146e-6, 1.666e-6
0.295, -3.818e-6, -2.149e-6, 1.669e-6
0.294, -3.824e-6, -2.152e-6, 1.672e-6
0.293, -3.830e-6, -2.158e-6, 1.672e-6
0.292, -3.833e-6, -2.158e-6, 1.675e-6
0.291, -3.836e-6, -2.161e-6, 1.675e-6
0.290, -3.848e-6, -2.167e-6, 1.681e-6
0.289, -3.854e-6, -2.170e-6, 1.684e-6
0.288, -3.857e-6, -2.170e-6, 1.687e-6
0.287, -3.857e-6, -2.176e-6, 1.681e-6
0.286, -3.872e-6, -2.183e-6, 1.690e-6
0.285, -3.869e-6, -2.179e-6, 1.690e-6
0.284, -3.876e-6, -2.186e-6, 1.690e-6
0.283, -3.888e-6, -2.192e-6, 1.696e-6
0.282, -3.882e-6, -2.192e-6, 1.690e-6
0.281, -3.891e-6, -2.198e-6, 1.693e-6
0.280, -3.903e-6, -2.201e-6, 1.702e-6
0.279, -3.903e-6, -2.204e-6, 1.699e-6
0.278, -3.909e-6, -2.207e-6, 1.702e-6
0.277, -3.915e-6, -2.207e-6, 1.708e-6
0.276, -3.912e-6, -2.213e-6, 1.699e-6
0.275, -3.924e-6, -2.216e-6, 1.708e-6
0.274, -3.927e-6, -2.216e-6, 1.711e-6
0.273, -3.930e-6, -2.222e-6, 1.708e-6
0.272, -3.943e-6, -2.228e-6, 1.714e-6
0.271, -3.940e-6, -2.222e-6, 1.717e-6
0.270, -3.946e-6, -2.231e-6, 1.714e-6
0.269, -3.958e-6, -2.237e-6, 1.720e-6
0.268, -3.964e-6, -2.240e-6, 1.723e-6
0.267, -3.964e-6, -2.244e-6, 1.720e-6
0.266, -3.976e-6, -2.250e-6, 1.727e-6
0.265, -3.982e-6, -2.250e-6, 1.733e-6
0.264, -3.979e-6, -2.253e-6, 1.727e-6
0.263, -3.988e-6, -2.256e-6, 1.733e-6
0.262, -3.995e-6, -2.259e-6, 1.736e-6
0.261, -4.001e-6, -2.265e-6, 1.736e-6
0.260, -4.004e-6, -2.265e-6, 1.739e-6
0.259, -4.004e-6, -2.268e-6, 1.736e-6
0.258, -4.016e-6, -2.274e-6, 1.742e-6
0.257, -4.022e-6, -2.277e-6, 1.745e-6
0.256, -4.022e-6, -2.277e-6, 1.745e-6
0.255, -4.031e-6, -2.283e-6, 1.748e-6
0.254, -4.037e-6, -2.286e-6, 1.751e-6
0.253, -4.040e-6, -2.289e-6, 1.751e-6
0.252, -4.049e-6, -2.295e-6, 1.754e-6
0.251, -4.049e-6, -2.292e-6, 1.757e-6
0.250, -4.059e-6, -2.302e-6, 1.757e-6
0.249, -4.062e-6, -2.302e-6, 1.760e-6
0.248, -4.068e-6, -2.308e-6, 1.760e-6
0.247, -4.077e-6, -2.314e-6, 1.763e-6
0.246, -4.083e-6, -2.314e-6, 1.769e-6
0.245, -4.086e-6, -2.314e-6, 1.772e-6
0.244, -4.089e-6, -2.320e-6, 1.769e-6
0.243, -4.092e-6, -2.320e-6, 1.772e-6
0.242, -4.098e-6, -2.323e-6, 1.775e-6
0.241, -4.107e-6, -2.329e-6, 1.778e-6
0.240, -4.117e-6, -2.332e-6, 1.785e-6
0.239, -4.117e-6, -2.335e-6, 1.781e-6
0.238, -4.129e-6, -2.341e-6, 1.788e-6
0.237, -4.129e-6, -2.341e-6, 1.788e-6
0.236, -4.132e-6, -2.344e-6, 1.788e-6
0.235, -4.141e-6, -2.347e-6, 1.794e-6
0.234, -4.147e-6, -2.350e-6, 1.797e-6
0.233, -4.150e-6, -2.356e-6, 1.794e-6
0.232, -4.159e-6, -2.360e-6, 1.800e-6
0.231, -4.159e-6, -2.360e-6, 1.800e-6
0.230, -4.172e-6, -2.369e-6, 1.803e-6
0.229, -4.178e-6, -2.369e-6, 1.809e-6
0.228, -4.181e-6, -2.372e-6, 1.809e-6
0.227, -4.190e-6, -2.378e-6, 1.812e-6
0.226, -4.196e-6, -2.378e-6, 1.818e-6
0.225, -4.196e-6, -2.381e-6, 1.815e-6
0.224, -4.202e-6, -2.387e-6, 1.815e-6
0.223, -4.214e-6, -2.390e-6, 1.824e-6
0.222, -4.214e-6, -2.390e-6, 1.824e-6
0.221, -4.223e-6, -2.399e-6, 1.824e-6
0.220, -4.226e-6, -2.396e-6, 1.830e-6
0.219, -4.233e-6, -2.402e-6, 1.830e-6
0.218, -4.242e-6, -2.408e-6, 1.833e-6
0.217, -4.248e-6, -2.408e-6, 1.839e-6
0.216, -4.251e-6, -2.411e-6, 1.839e-6
0.215, -4.260e-6, -2.417e-6, 1.843e-6
0.214, -4.266e-6, -2.417e-6, 1.849e-6
0.213, -4.272e-6, -2.424e-6, 1.849e-6
0.212, -4.272e-6, -2.424e-6, 1.849e-6
0.211, -4.278e-6, -2.427e-6, 1.852e-6
0.210, -4.284e-6, -2.433e-6, 1.852e-6
0.209, -4.294e-6, -2.436e-6, 1.858e-6
0.208, -4.300e-6, -2.439e-6, 1.861e-6
0.207, -4.303e-6, -2.442e-6, 1.861e-6
0.206, -4.309e-6, -2.442e-6, 1.867e-6
0.205, -4.315e-6, -2.448e-6, 1.867e-6
0.204, -4.321e-6, -2.451e-6, 1.870e-6
0.203, -4.327e-6, -2.451e-6, 1.876e-6
0.202, -4.330e-6, -2.454e-6, 1.876e-6
0.201, -4.339e-6, -2.460e-6, 1.879e-6
0.200, -4.342e-6, -2.460e-6, 1.882e-6
0.199, -4.348e-6, -2.463e-6, 1.885e-6
0.198, -4.355e-6, -2.469e-6, 1.885e-6
0.197, -4.358e-6, -2.469e-6, 1.888e-6
0.196, -4.364e-6, -2.475e-6, 1.888e-6
0.195, -4.370e-6, -2.479e-6, 1.891e-6
0.194, -4.373e-6, -2.475e-6, 1.897e-6
0.193, -4.379e-6, -2.482e-6, 1.897e-6
0.192, -4.388e-6, -2.485e-6, 1.904e-6
0.191, -4.391e-6, -2.488e-6, 1.904e-6
0.190, -4.394e-6, -2.491e-6, 1.904e-6
0.189, -4.403e-6, -2.491e-6, 1.913e-6
0.188, -4.410e-6, -2.497e-6, 1.913e-6
0.187, -4.413e-6, -2.500e-6, 1.913e-6
0.186, -4.416e-6, -2.497e-6, 1.919e-6
0.185, -4.419e-6, -2.503e-6, 1.916e-6
0.184, -4.428e-6, -2.509e-6, 1.919e-6
0.183, -4.437e-6, -2.509e-6, 1.928e-6
0.182, -4.431e-6, -2.509e-6, 1.922e-6
0.181, -4.449e-6, -2.518e-6, 1.931e-6
0.180, -4.446e-6, -2.515e-6, 1.931e-6
0.179, -4.452e-6, -2.518e-6, 1.934e-6
0.178, -4.455e-6, -2.521e-6, 1.934e-6
0.177, -4.461e-6, -2.521e-6, 1.940e-6
0.176, -4.461e-6, -2.524e-6, 1.937e-6
0.175, -4.474e-6, -2.530e-6, 1.943e-6
0.174, -4.477e-6, -2.527e-6, 1.949e-6
0.173, -4.480e-6, -2.533e-6, 1.946e-6
0.172, -4.486e-6, -2.537e-6, 1.949e-6
0.171, -4.489e-6, -2.537e-6, 1.952e-6
0.170, -4.489e-6, -2.540e-6, 1.949e-6
0.169, -4.501e-6, -2.543e-6, 1.958e-6
0.168, -4.501e-6, -2.543e-6, 1.958e-6
0.167, -4.507e-6, -2.546e-6, 1.962e-6
0.166, -4.510e-6, -2.546e-6, 1.965e-6
0.165, -4.519e-6, -2.552e-6, 1.968e-6
0.164, -4.516e-6, -2.552e-6, 1.965e-6
0.163, -4.522e-6, -2.552e-6, 1.971e-6
0.162, -4.525e-6, -2.555e-6, 1.971e-6
0.161, -4.532e-6, -2.558e-6, 1.974e-6
0.160, -4.535e-6, -2.558e-6, 1.977e-6
0.159, -4.541e-6, -2.561e-6, 1.980e-6
0.158, -4.541e-6, -2.561e-6, 1.980e-6
0.157, -4.544e-6, -2.561e-6, 1.983e-6
0.156, -4.544e-6, -2.564e-6, 1.980e-6
0.155, -4.553e-6, -2.567e-6, 1.986e-6
0.154, -4.556e-6, -2.567e-6, 1.989e-6
0.153, -4.559e-6, -2.570e-6, 1.989e-6
0.152, -4.565e-6, -2.573e-6, 1.992e-6
0.151, -4.568e-6, -2.573e-6, 1.995e-6
0.150, -4.571e-6, -2.576e-6, 1.995e-6
0.149, -4.574e-6, -2.573e-6, 2.001e-6
0.148, -4.577e-6, -2.579e-6, 1.998e-6
0.147, -4.583e-6, -2.582e-6, 2.001e-6
0.146, -4.590e-6, -2.582e-6, 2.007e-6
0.145, -4.590e-6, -2.582e-6, 2.007e-6
0.144, -4.599e-6, -2.588e-6, 2.010e-6
0.143, -4.596e-6, -2.582e-6, 2.013e-6
0.142, -4.602e-6, -2.588e-6, 2.013e-6
0.141, -4.608e-6, -2.591e-6, 2.016e-6
0.140, -4.608e-6, -2.588e-6, 2.019e-6
0.139, -4.611e-6, -2.591e-6, 2.019e-6
0.138, -4.617e-6, -2.591e-6, 2.026e-6
0.137, -4.620e-6, -2.594e-6, 2.026e-6
0.136, -4.617e-6, -2.594e-6, 2.023e-6
0.135, -4.626e-6, -2.598e-6, 2.029e-6
0.134, -4.626e-6, -2.594e-6, 2.032e-6
0.133, -4.629e-6, -2.601e-6, 2.029e-6
0.132, -4.638e-6, -2.601e-6, 2.038e-6
0.131, -4.629e-6, -2.594e-6, 2.035e-6
0.130, -4.638e-6, -2.604e-6, 2.035e-6
0.129, -4.641e-6, -2.601e-6, 2.041e-6
0.128, -4.641e-6, -2.601e-6, 2.041e-6
0.127, -4.644e-6, -2.604e-6, 2.041e-6
0.126, -4.657e-6, -2.607e-6, 2.050e-6
0.125, -4.654e-6, -2.607e-6, 2.047e-6
0.124, -4.657e-6, -2.610e-6, 2.047e-6
0.123, -4.666e-6, -2.610e-6, 2.056e-6
0.122, -4.654e-6, -2.604e-6, 2.050e-6
0.121, -4.666e-6, -2.610e-6, 2.056e-6
0.120, -4.669e-6, -2.610e-6, 2.059e-6
0.119, -4.669e-6, -2.610e-6, 2.059e-6
0.118, -4.672e-6, -2.610e-6, 2.062e-6
0.117, -4.681e-6, -2.616e-6, 2.065e-6
0.116, -4.678e-6, -2.616e-6, 2.062e-6
0.115, -4.684e-6, -2.616e-6, 2.068e-6
0.114, -4.681e-6, -2.616e-6, 2.065e-6
0.113, -4.687e-6, -2.616e-6, 2.071e-6
0.112, -4.687e-6, -2.616e-6, 2.071e-6
0.111, -4.690e-6, -2.616e-6, 2.074e-6
0.110, -4.690e-6, -2.616e-6, 2.074e-6
0.109, -4.690e-6, -2.616e-6, 2.074e-6
0.108, -4.693e-6, -2.616e-6, 2.077e-6
0.107, -4.696e-6, -2.619e-6, 2.077e-6
0.106, -4.696e-6, -2.616e-6, 2.081e-6
0.105, -4.693e-6, -2.613e-6, 2.081e-6
0.104, -4.709e-6, -2.622e-6, 2.087e-6
0.103, -4.706e-6, -2.619e-6, 2.087e-6
0.102, -4.706e-6, -2.619e-6, 2.087e-6
0.101, -4.709e-6, -2.619e-6, 2.090e-6
0.100, -4.706e-6, -2.616e-6, 2.090e-6
0.099, -4.709e-6, -2.622e-6, 2.087e-6
0.098, -4.712e-6, -2.619e-6, 2.093e-6
0.097, -4.706e-6, -2.613e-6, 2.093e-6
0.096, -4.706e-6, -2.616e-6, 2.090e-6
0.095, -4.712e-6, -2.616e-6, 2.096e-6
0.094, -4.712e-6, -2.616e-6, 2.096e-6
0.093, -4.712e-6, -2.616e-6, 2.096e-6
0.092, -4.715e-6, -2.613e-6, 2.102e-6
0.091, -4.715e-6, -2.616e-6, 2.099e-6
0.090, -4.718e-6, -2.619e-6, 2.099e-6
0.089, -4.718e-6, -2.616e-6, 2.102e-6
0.088, -4.712e-6, -2.613e-6, 2.099e-6
0.087, -4.718e-6, -2.616e-6, 2.102e-6
0.086, -4.715e-6, -2.610e-6, 2.105e-6
0.085, -4.715e-6, -2.613e-6, 2.102e-6
0.084, -4.718e-6, -2.613e-6, 2.105e-6
0.083, -4.715e-6, -2.610e-6, 2.105e-6
0.082, -4.715e-6, -2.613e-6, 2.102e-6
0.081, -4.715e-6, -2.610e-6, 2.105e-6
0.080, -4.712e-6, -2.607e-6, 2.105e-6
0.079, -4.712e-6, -2.607e-6, 2.105e-6
0.078, -4.715e-6, -2.607e-6, 2.108e-6
0.077, -4.715e-6, -2.604e-6, 2.111e-6
0.076, -4.712e-6, -2.607e-6, 2.105e-6
0.075, -4.712e-6, -2.604e-6, 2.108e-6
0.074, -4.706e-6, -2.598e-6, 2.108e-6
0.073, -4.709e-6, -2.601e-6, 2.108e-6
0.072, -4.709e-6, -2.601e-6, 2.108e-6
0.071, -4.706e-6, -2.598e-6, 2.108e-6
0.070, -4.706e-6, -2.598e-6, 2.108e-6
0.069, -4.702e-6, -2.591e-6, 2.111e-6
0.068, -4.699e-6, -2.591e-6, 2.108e-6
0.067, -4.706e-6, -2.594e-6, 2.111e-6
0.066, -4.699e-6, -2.588e-6, 2.111e-6
0.065, -4.702e-6, -2.591e-6, 2.111e-6
0.064, -4.699e-6, -2.591e-6, 2.108e-6
0.063, -4.702e-6, -2.588e-6, 2.114e-6
0.062, -4.699e-6, -2.588e-6, 2.111e-6
0.061, -4.699e-6, -2.585e-6, 2.114e-6
0.060, -4.693e-6, -2.582e-6, 2.111e-6
0.059, -4.690e-6, -2.582e-6, 2.108e-6
0.058, -4.693e-6, -2.579e-6, 2.114e-6
0.057, -4.687e-6, -2.576e-6, 2.111e-6
0.056, -4.690e-6, -2.579e-6, 2.111e-6
0.055, -4.684e-6, -2.573e-6, 2.111e-6
0.054, -4.681e-6, -2.570e-6, 2.111e-6
0.053, -4.681e-6, -2.573e-6, 2.108e-6
0.052, -4.684e-6, -2.570e-6, 2.114e-6
0.051, -4.678e-6, -2.570e-6, 2.108e-6
0.050, -4.681e-6, -2.570e-6, 2.111e-6
0.049, -4.678e-6, -2.564e-6, 2.114e-6
0.048, -4.675e-6, -2.567e-6, 2.108e-6
0.047, -4.675e-6, -2.564e-6, 2.111e-6
0.046, -4.675e-6, -2.561e-6, 2.114e-6
0.045, -4.669e-6, -2.564e-6, 2.105e-6
0.044, -4.669e-6, -2.558e-6, 2.111e-6
0.043, -4.663e-6, -2.552e-6, 2.111e-6
0.042, -4.663e-6, -2.558e-6, 2.105e-6
0.041, -4.660e-6, -2.552e-6, 2.108e-6
0.040, -4.660e-6, -2.549e-6, 2.111e-6
0.039, -4.660e-6, -2.552e-6, 2.108e-6
0.038, -4.654e-6, -2.546e-6, 2.108e-6
0.037, -4.651e-6, -2.543e-6, 2.108e-6
0.036, -4.648e-6, -2.543e-6, 2.105e-6
0.035, -4.651e-6, -2.540e-6, 2.111e-6
0.034, -4.638e-6, -2.537e-6, 2.102e-6
0.033, -4.641e-6, -2.537e-6, 2.105e-6
0.032, -4.644e-6, -2.537e-6, 2.108e-6
0.031, -4.638e-6, -2.533e-6, 2.105e-6
0.030, -4.638e-6, -2.533e-6, 2.105e-6
0.029, -4.632e-6, -2.527e-6, 2.105e-6
0.028, -4.626e-6, -2.524e-6, 2.102e-6
0.027, -4.629e-6, -2.524e-6, 2.105e-6
0.026, -4.626e-6, -2.524e-6, 2.102e-6
0.025, -4.620e-6, -2.521e-6, 2.099e-6
0.024, -4.620e-6, -2.521e-6, 2.099e-6
0.023, -4.620e-6, -2.518e-6, 2.102e-6
0.022, -4.611e-6, -2.515e-6, 2.096e-6
0.021, -4.614e-6, -2.515e-6, 2.099e-6
0.020, -4.611e-6, -2.512e-6, 2.099e-6
0.019, -4.608e-6, -2.509e-6, 2.099e-6
0.018, -4.611e-6, -2.509e-6, 2.102e-6
0.017, -4.602e-6, -2.506e-6, 2.096e-6
0.016, -4.599e-6, -2.503e-6, 2.096e-6
0.015, -4.596e-6, -2.500e-6, 2.096e-6
0.014, -4.596e-6, -2.500e-6, 2.096e-6
0.013, -4.590e-6, -2.497e-6, 2.093e-6
0.012, -4.587e-6, -2.494e-6, 2.093e-6
0.011, -4.580e-6, -2.491e-6, 2.090e-6
0.010, -4.583e-6, -2.491e-6, 2.093e-6
0.009, -4.574e-6, -2.485e-6, 2.090e-6
0.008, -4.577e-6, -2.488e-6, 2.090e-6
0.007, -4.574e-6, -2.485e-6, 2.090e-6
0.006, -4.562e-6, -2.479e-6, 2.084e-6
0.005, -4.562e-6, -2.479e-6, 2.084e-6
0.004, -4.562e-6, -2.475e-6, 2.087e-6
0.003, -4.559e-6, -2.472e-6, 2.087e-6
0.002, -4.553e-6, -2.472e-6, 2.081e-6
0.001, -4.553e-6, -2.469e-6, 2.084e-6
0.000, -4.547e-6, -2.466e-6, 2.081e-6
-0.001, -4.547e-6, -2.466e-6, 2.081e-6
-0.002, -4.547e-6, -2.463e-6, 2.084e-6
-0.003, -4.538e-6, -2.460e-6, 2.077e-6
-0.004, -4.541e-6, -2.463e-6, 2.077e-6
-0.005, -4.535e-6, -2.454e-6, 2.081e-6
-0.006, -4.525e-6, -2.454e-6, 2.071e-6
-0.007, -4.529e-6, -2.454e-6, 2.074e-6
-0.008, -4.516e-6, -2.445e-6, 2.071e-6
-0.009, -4.516e-6, -2.448e-6, 2.068e-6
-0.010, -4.513e-6, -2.445e-6, 2.068e-6
-0.011, -4.510e-6, -2.439e-6, 2.071e-6
-0.012, -4.501e-6, -2.439e-6, 2.062e-6
-0.013, -4.504e-6, -2.439e-6, 2.065e-6
-0.014, -4.495e-6, -2.430e-6, 2.065e-6
-0.015, -4.492e-6, -2.433e-6, 2.059e-6
-0.016, -4.495e-6, -2.433e-6, 2.062e-6
-0.017, -4.483e-6, -2.427e-6, 2.056e-6
-0.018, -4.483e-6, -2.427e-6, 2.056e-6
-0.019, -4.486e-6, -2.424e-6, 2.062e-6
-0.020, -4.477e-6, -2.421e-6, 2.056e-6
-0.021, -4.468e-6, -2.417e-6, 2.050e-6
-0.022, -4.468e-6, -2.414e-6, 2.053e-6
-0.023, -4.464e-6, -2.414e-6, 2.050e-6
-0.024, -4.461e-6, -2.411e-6, 2.050e-6
-0.025, -4.455e-6, -2.408e-6, 2.047e-6
-0.026, -4.452e-6, -2.408e-6, 2.044e-6
-0.027, -4.443e-6, -2.402e-6, 2.041e-6
-0.028, -4.446e-6, -2.402e-6, 2.044e-6
-0.029, -4.440e-6, -2.399e-6, 2.041e-6
-0.030, -4.440e-6, -2.399e-6, 2.041e-6
-0.031, -4.431e-6, -2.393e-6, 2.038e-6
-0.032, -4.431e-6, -2.393e-6, 2.038e-6
-0.033, -4.431e-6, -2.393e-6, 2.038e-6
-0.034, -4.422e-6, -2.387e-6, 2.035e-6
-0.035, -4.422e-6, -2.387e-6, 2.035e-6
-0.036, -4.419e-6, -2.387e-6, 2.032e-6
-0.037, -4.410e-6, -2.381e-6, 2.029e-6
-0.038, -4.406e-6, -2.384e-6, 2.023e-6
-0.039, -4.403e-6, -2.375e-6, 2.029e-6
-0.040, -4.400e-6, -2.378e-6, 2.023e-6
-0.041, -4.400e-6, -2.375e-6, 2.026e-6
-0.042, -4.397e-6, -2.372e-6, 2.026e-6
-0.043, -4.391e-6, -2.372e-6, 2.019e-6
-0.044, -4.388e-6, -2.369e-6, 2.019e-6
-0.045, -4.382e-6, -2.363e-6, 2.019e-6
-0.046, -4.379e-6, -2.363e-6, 2.016e-6
-0.047, -4.376e-6, -2.360e-6, 2.016e-6
-0.048, -4.376e-6, -2.360e-6, 2.016e-6
-0.049, -4.370e-6, -2.360e-6, 2.010e-6
-0.050, -4.370e-6, -2.356e-6, 2.013e-6
-0.051, -4.364e-6, -2.350e-6, 2.013e-6
-0.052, -4.364e-6, -2.356e-6, 2.007e-6
-0.053, -4.361e-6, -2.350e-6, 2.010e-6
-0.054, -4.352e-6, -2.344e-6, 2.007e-6
-0.055, -4.352e-6, -2.347e-6, 2.004e-6
-0.056, -4.355e-6, -2.347e-6, 2.007e-6
-0.057, -4.342e-6, -2.341e-6, 2.001e-6
-0.058, -4.345e-6, -2.344e-6, 2.001e-6
-0.059, -4.342e-6, -2.338e-6, 2.004e-6
-0.060, -4.336e-6, -2.338e-6, 1.998e-6
-0.061, -4.333e-6, -2.338e-6, 1.995e-6
-0.062, -4.336e-6, -2.335e-6, 2.001e-6
-0.063, -4.324e-6, -2.332e-6, 1.992e-6
-0.064, -4.327e-6, -2.332e-6, 1.995e-6
-0.065, -4.327e-6, -2.329e-6, 1.998e-6
-0.066, -4.315e-6, -2.326e-6, 1.989e-6
-0.067, -4.321e-6, -2.329e-6, 1.992e-6
-0.068, -4.315e-6, -2.323e-6, 1.992e-6
-0.069, -4.312e-6, -2.323e-6, 1.989e-6
-0.070, -4.312e-6, -2.323e-6, 1.989e-6
-0.071, -4.306e-6, -2.320e-6, 1.986e-6
-0.072, -4.303e-6, -2.320e-6, 1.983e-6
-0.073, -4.303e-6, -2.317e-6, 1.986e-6
-0.074, -4.297e-6, -2.314e-6, 1.983e-6
-0.075, -4.294e-6, -2.314e-6, 1.980e-6
-0.076, -4.294e-6, -2.311e-6, 1.983e-6
-0.077, -4.291e-6, -2.311e-6, 1.980e-6
-0.078, -4.287e-6, -2.311e-6, 1.977e-6
-0.079, -4.284e-6, -2.308e-6, 1.977e-6
-0.080, -4.284e-6, -2.308e-6, 1.977e-6
-0.081, -4.281e-6, -2.308e-6, 1.974e-6
-0.082, -4.281e-6, -2.305e-6, 1.977e-6
-0.083, -4.275e-6, -2.302e-6, 1.974e-6
-0.084, -4.275e-6, -2.302e-6, 1.974e-6
-0.085, -4.266e-6, -2.298e-6, 1.968e-6
-0.086, -4.266e-6, -2.298e-6, 1.968e-6
-0.087, -4.266e-6, -2.295e-6, 1.971e-6
-0.088, -4.266e-6, -2.295e-6, 1.971e-6
-0.089, -4.257e-6, -2.292e-6, 1.965e-6
-0.090, -4.260e-6, -2.292e-6, 1.968e-6
-0.091, -4.251e-6, -2.289e-6, 1.962e-6
-0.092, -4.251e-6, -2.289e-6, 1.962e-6
-0.093, -4.251e-6, -2.286e-6, 1.965e-6
-0.094, -4.248e-6, -2.286e-6, 1.962e-6
-0.095, -4.248e-6, -2.289e-6, 1.958e-6
-0.096, -4.242e-6, -2.280e-6, 1.962e-6
-0.097, -4.239e-6, -2.280e-6, 1.958e-6
-0.098, -4.242e-6, -2.283e-6, 1.958e-6
-0.099, -4.236e-6, -2.277e-6, 1.958e-6
-0.100, -4.226e-6, -2.277e-6, 1.949e-6
-0.101, -4.229e-6, -2.277e-6, 1.952e-6
-0.102, -4.226e-6, -2.271e-6, 1.955e-6
-0.103, -4.226e-6, -2.274e-6, 1.952e-6
-0.104, -4.226e-6, -2.274e-6, 1.952e-6
-0.105, -4.220e-6, -2.268e-6, 1.952e-6
-0.106, -4.211e-6, -2.268e-6, 1.943e-6
-0.107, -4.217e-6, -2.271e-6, 1.946e-6
-0.108, -4.214e-6, -2.265e-6, 1.949e-6
-0.109, -4.211e-6, -2.268e-6, 1.943e-6
-0.110, -4.211e-6, -2.265e-6, 1.946e-6
-0.111, -4.205e-6, -2.262e-6, 1.943e-6
-0.112, -4.208e-6, -2.265e-6, 1.943e-6
-0.113, -4.205e-6, -2.262e-6, 1.943e-6
-0.114, -4.199e-6, -2.259e-6, 1.940e-6
-0.115, -4.196e-6, -2.259e-6, 1.937e-6
-0.116, -4.190e-6, -2.253e-6, 1.937e-6
-0.117, -4.193e-6, -2.256e-6, 1.937e-6
-0.118, -4.190e-6, -2.256e-6, 1.934e-6
-0.119, -4.187e-6, -2.250e-6, 1.937e-6
-0.120, -4.184e-6, -2.250e-6, 1.934e-6
-0.121, -4.178e-6, -2.247e-6, 1.931e-6
-0.122, -4.178e-6, -2.247e-6, 1.931e-6
-0.123, -4.178e-6, -2.250e-6, 1.928e-6
-0.124, -4.178e-6, -2.247e-6, 1.931e-6
-0.125, -4.175e-6, -2.244e-6, 1.931e-6
-0.126, -4.168e-6, -2.244e-6, 1.925e-6
-0.127, -4.168e-6, -2.244e-6, 1.925e-6
-0.128, -4.162e-6, -2.241e-6, 1.922e-6
-0.129, -4.165e-6, -2.241e-6, 1.925e-6
-0.130, -4.165e-6, -2.241e-6, 1.925e-6
-0.131, -4.159e-6, -2.237e-6, 1.922e-6
-0.132, -4.159e-6, -2.237e-6, 1.922e-6
-0.133, -4.156e-6, -2.234e-6, 1.922e-6
-0.134, -4.153e-6, -2.234e-6, 1.919e-6
-0.135, -4.153e-6, -2.234e-6, 1.919e-6
-0.136, -4.153e-6, -2.231e-6, 1.922e-6
-0.137, -4.147e-6, -2.228e-6, 1.919e-6
-0.138, -4.147e-6, -2.228e-6, 1.919e-6
-0.139, -4.144e-6, -2.225e-6, 1.919e-6
-0.140, -4.144e-6, -2.228e-6, 1.916e-6
-0.141, -4.144e-6, -2.225e-6, 1.919e-6
-0.142, -4.138e-6, -2.225e-6, 1.913e-6
-0.143, -4.138e-6, -2.225e-6, 1.913e-6
-0.144, -4.138e-6, -2.222e-6, 1.916e-6
-0.145, -4.135e-6, -2.219e-6, 1.916e-6
-0.146, -4.132e-6, -2.222e-6, 1.910e-6
-0.147, -4.132e-6, -2.216e-6, 1.916e-6
-0.148, -4.126e-6, -2.216e-6, 1.910e-6
-0.149, -4.129e-6, -2.219e-6, 1.910e-6
-0.150, -4.129e-6, -2.216e-6, 1.913e-6
-0.151, -4.123e-6, -2.213e-6, 1.910e-6
-0.152, -4.123e-6, -2.219e-6, 1.904e-6
-0.153, -4.120e-6, -2.213e-6, 1.907e-6
-0.154, -4.123e-6, -2.213e-6, 1.910e-6
-0.155, -4.120e-6, -2.213e-6, 1.907e-6
-0.156, -4.123e-6, -2.213e-6, 1.910e-6
-0.157, -4.117e-6, -2.213e-6, 1.904e-6
-0.158, -4.117e-6, -2.210e-6, 1.907e-6
-0.159, -4.117e-6, -2.210e-6, 1.907e-6
-0.160, -4.110e-6, -2.207e-6, 1.904e-6
-0.161, -4.110e-6, -2.207e-6, 1.904e-6
-0.162, -4.107e-6, -2.204e-6, 1.904e-6
-0.163, -4.104e-6, -2.204e-6, 1.900e-6
-0.164, -4.107e-6, -2.204e-6, 1.904e-6
-0.165, -4.101e-6, -2.201e-6, 1.900e-6
-0.166, -4.110e-6, -2.207e-6, 1.904e-6
-0.167, -4.107e-6, -2.204e-6, 1.904e-6
-0.168, -4.101e-6, -2.201e-6, 1.900e-6
-0.169, -4.101e-6, -2.201e-6, 1.900e-6
-0.170, -4.098e-6, -2.198e-6, 1.900e-6
-0.171, -4.092e-6, -2.195e-6, 1.897e-6
-0.172, -4.098e-6, -2.198e-6, 1.900e-6
-0.173, -4.095e-6, -2.195e-6, 1.900e-6
-0.174, -4.086e-6, -2.192e-6, 1.894e-6
-0.175, -4.092e-6, -2.195e-6, 1.897e-6
-0.176, -4.092e-6, -2.195e-6, 1.897e-6
-0.177, -4.086e-6, -2.192e-6, 1.894e-6
-0.178, -4.086e-6, -2.189e-6, 1.897e-6
-0.179, -4.083e-6, -2.189e-6, 1.894e-6
-0.180, -4.083e-6, -2.189e-6, 1.894e-6
-0.181, -4.083e-6, -2.186e-6, 1.897e-6
-0.182, -4.080e-6, -2.186e-6, 1.894e-6
-0.183, -4.077e-6, -2.186e-6, 1.891e-6
-0.184, -4.077e-6, -2.183e-6, 1.894e-6
-0.185, -4.074e-6, -2.183e-6, 1.891e-6
-0.186, -4.074e-6, -2.183e-6, 1.891e-6
-0.187, -4.074e-6, -2.179e-6, 1.894e-6
-0.188, -4.068e-6, -2.179e-6, 1.888e-6
-0.189, -4.071e-6, -2.183e-6, 1.888e-6
-0.190, -4.074e-6, -2.179e-6, 1.894e-6
-0.191, -4.062e-6, -2.176e-6, 1.885e-6
-0.192, -4.065e-6, -2.176e-6, 1.888e-6
-0.193, -4.065e-6, -2.176e-6, 1.888e-6
-0.194, -4.062e-6, -2.176e-6, 1.885e-6
-0.195, -4.062e-6, -2.173e-6, 1.888e-6
-0.196, -4.059e-6, -2.170e-6, 1.888e-6
-0.197, -4.056e-6, -2.173e-6, 1.882e-6
-0.198, -4.056e-6, -2.170e-6, 1.885e-6
-0.199, -4.056e-6, -2.167e-6, 1.888e-6
-0.200, -4.049e-6, -2.167e-6, 1.882e-6
-0.201, -4.049e-6, -2.167e-6, 1.882e-6
-0.202, -4.043e-6, -2.161e-6, 1.882e-6
-0.203, -4.043e-6, -2.164e-6, 1.879e-6
-0.204, -4.046e-6, -2.164e-6, 1.882e-6
-0.205, -4.043e-6, -2.161e-6, 1.882e-6
-0.206, -4.040e-6, -2.161e-6, 1.879e-6
-0.207, -4.040e-6, -2.161e-6, 1.879e-6
-0.208, -4.034e-6, -2.155e-6, 1.879e-6
-0.209, -4.034e-6, -2.158e-6, 1.876e-6
-0.210, -4.040e-6, -2.161e-6, 1.879e-6
-0.211, -4.031e-6, -2.155e-6, 1.876e-6
-0.212, -4.028e-6, -2.155e-6, 1.873e-6
-0.213, -4.025e-6, -2.152e-6, 1.873e-6
-0.214, -4.025e-6, -2.152e-6, 1.873e-6
-0.215, -4.025e-6, -2.149e-6, 1.876e-6
-0.216, -4.025e-6, -2.149e-6, 1.876e-6
-0.217, -4.022e-6, -2.152e-6, 1.870e-6
-0.218, -4.022e-6, -2.149e-6, 1.873e-6
-0.219, -4.019e-6, -2.146e-6, 1.873e-6
-0.220, -4.016e-6, -2.146e-6, 1.870e-6
-0.221, -4.010e-6, -2.140e-6, 1.870e-6
-0.222, -4.010e-6, -2.143e-6, 1.867e-6
-0.223, -4.013e-6, -2.143e-6, 1.870e-6
-0.224, -4.007e-6, -2.137e-6, 1.870e-6
-0.225, -4.004e-6, -2.137e-6, 1.867e-6
-0.226, -4.004e-6, -2.140e-6, 1.864e-6
-0.227, -4.007e-6, -2.140e-6, 1.867e-6
-0.228, -4.001e-6, -2.137e-6, 1.864e-6
-0.229, -4.019e-6, -2.155e-6, 1.864e-6
-0.230, -3.998e-6, -2.134e-6, 1.864e-6
-0.231, -3.991e-6, -2.131e-6, 1.861e-6
-0.232, -3.998e-6, -2.134e-6, 1.864e-6
-0.233, -3.995e-6, -2.131e-6, 1.864e-6
-0.234, -3.985e-6, -2.128e-6, 1.858e-6
-0.235, -3.991e-6, -2.131e-6, 1.861e-6
-0.236, -3.985e-6, -2.125e-6, 1.861e-6
-0.237, -3.985e-6, -2.128e-6, 1.858e-6
-0.238, -3.988e-6, -2.128e-6, 1.861e-6
-0.239, -3.979e-6, -2.121e-6, 1.858e-6
-0.240, -3.982e-6, -2.128e-6, 1.855e-6
-0.241, -3.982e-6, -2.125e-6, 1.858e-6
-0.242, -3.976e-6, -2.118e-6, 1.858e-6
-0.243, -3.979e-6, -2.125e-6, 1.855e-6
-0.244, -4.001e-6, -2.146e-6, 1.855e-6
-0.245, -3.970e-6, -2.115e-6, 1.855e-6
-0.246, -3.976e-6, -2.121e-6, 1.855e-6
-0.247, -3.970e-6, -2.118e-6, 1.852e-6
-0.248, -3.967e-6, -2.115e-6, 1.852e-6
-0.249, -3.967e-6, -2.118e-6, 1.849e-6
-0.250, -3.964e-6, -2.112e-6, 1.852e-6
-0.251, -3.964e-6, -2.115e-6, 1.849e-6
-0.252, -3.967e-6, -2.118e-6, 1.849e-6
-0.253, -3.964e-6, -2.112e-6, 1.852e-6
-0.254, -3.961e-6, -2.112e-6, 1.849e-6
-0.255, -3.961e-6, -2.112e-6, 1.849e-6
-0.256, -3.964e-6, -2.112e-6, 1.852e-6
-0.257, -3.952e-6, -2.106e-6, 1.846e-6
-0.258, -3.955e-6, -2.106e-6, 1.849e-6
-0.259, -3.952e-6, -2.103e-6, 1.849e-6
-0.260, -3.952e-6, -2.106e-6, 1.846e-6
-0.261, -3.949e-6, -2.103e-6, 1.846e-6
-0.262, -3.949e-6, -2.103e-6, 1.846e-6
-0.263, -3.943e-6, -2.100e-6, 1.843e-6
-0.264, -3.949e-6, -2.103e-6, 1.846e-6
-0.265, -3.946e-6, -2.103e-6, 1.843e-6
-0.266, -3.949e-6, -2.103e-6, 1.846e-6
-0.267, -3.946e-6, -2.100e-6, 1.846e-6
-0.268, -3.943e-6, -2.103e-6, 1.839e-6
-0.269, -3.943e-6, -2.100e-6, 1.843e-6
-0.270, -3.943e-6, -2.100e-6, 1.843e-6
-0.271, -3.937e-6, -2.097e-6, 1.839e-6
-0.272, -3.933e-6, -2.094e-6, 1.839e-6
-0.273, -3.933e-6, -2.094e-6, 1.839e-6
-0.274, -3.937e-6, -2.097e-6, 1.839e-6
-0.275, -3.937e-6, -2.097e-6, 1.839e-6
-0.276, -3.930e-6, -2.091e-6, 1.839e-6
-0.277, -3.927e-6, -2.091e-6, 1.836e-6
-0.278, -3.933e-6, -2.097e-6, 1.836e-6
-0.279, -3.921e-6, -2.088e-6, 1.833e-6
-0.280, -3.924e-6, -2.091e-6, 1.833e-6
-0.281, -3.924e-6, -2.088e-6, 1.836e-6
-0.282, -3.937e-6, -2.103e-6, 1.833e-6
-0.283, -3.918e-6, -2.088e-6, 1.830e-6
-0.284, -3.921e-6, -2.085e-6, 1.836e-6
-0.285, -3.918e-6, -2.088e-6, 1.830e-6
-0.286, -3.918e-6, -2.088e-6, 1.830e-6
-0.287, -3.912e-6, -2.079e-6, 1.833e-6
-0.288, -3.909e-6, -2.082e-6, 1.827e-6
-0.289, -3.912e-6, -2.085e-6, 1.827e-6
-0.290, -3.912e-6, -2.082e-6, 1.830e-6
-0.291, -3.906e-6, -2.082e-6, 1.824e-6
-0.292, -3.906e-6, -2.082e-6, 1.824e-6
-0.293, -3.909e-6, -2.082e-6, 1.827e-6
-0.294, -3.900e-6, -2.079e-6, 1.821e-6
-0.295, -3.903e-6, -2.076e-6, 1.827e-6
-0.296, -3.906e-6, -2.082e-6, 1.824e-6
-0.297, -3.897e-6, -2.076e-6, 1.821e-6
-0.298, -3.897e-6, -2.076e-6, 1.821e-6
-0.299, -3.900e-6, -2.076e-6, 1.824e-6
-0.300, -3.894e-6, -2.076e-6, 1.818e-6
-0.301, -3.894e-6, -2.076e-6, 1.818e-6
-0.302, -3.888e-6, -2.070e-6, 1.818e-6
-0.303, -3.894e-6, -2.076e-6, 1.818e-6
-0.304, -3.894e-6, -2.073e-6, 1.821e-6
-0.305, -3.885e-6, -2.067e-6, 1.818e-6
-0.306, -3.888e-6, -2.076e-6, 1.812e-6
-0.307, -3.882e-6, -2.067e-6, 1.815e-6
-0.308, -3.876e-6, -2.064e-6, 1.812e-6
-0.309, -3.879e-6, -2.064e-6, 1.815e-6
-0.310, -3.879e-6, -2.064e-6, 1.815e-6
-0.311, -3.876e-6, -2.064e-6, 1.812e-6
-0.312, -3.879e-6, -2.070e-6, 1.809e-6
-0.313, -3.872e-6, -2.064e-6, 1.809e-6
-0.314, -3.872e-6, -2.064e-6, 1.809e-6
-0.315, -3.872e-6, -2.064e-6, 1.809e-6
-0.316, -3.869e-6, -2.064e-6, 1.806e-6
-0.317, -3.869e-6, -2.060e-6, 1.809e-6
-0.318, -3.882e-6, -2.076e-6, 1.806e-6
-0.319, -3.863e-6, -2.060e-6, 1.803e-6
-0.320, -3.860e-6, -2.057e-6, 1.803e-6
-0.321, -3.863e-6, -2.057e-6, 1.806e-6
-0.322, -3.860e-6, -2.060e-6, 1.800e-6
-0.323, -3.857e-6, -2.054e-6, 1.803e-6
-0.324, -3.860e-6, -2.054e-6, 1.806e-6
-0.325, -3.851e-6, -2.054e-6, 1.797e-6
-0.326, -3.854e-6, -2.054e-6, 1.800e-6
-0.327, -3.854e-6, -2.051e-6, 1.803e-6
-0.328, -3.851e-6, -2.057e-6, 1.794e-6
-0.329, -3.854e-6, -2.054e-6, 1.800e-6
-0.330, -3.848e-6, -2.051e-6, 1.797e-6
-0.331, -3.851e-6, -2.054e-6, 1.797e-6
-0.332, -3.845e-6, -2.048e-6, 1.797e-6
-0.333, -3.848e-6, -2.051e-6, 1.797e-6
-0.334, -3.851e-6, -2.051e-6, 1.800e-6
-0.335, -3.845e-6, -2.048e-6, 1.797e-6
-0.336, -3.842e-6, -2.051e-6, 1.791e-6
-0.337, -3.842e-6, -2.051e-6, 1.791e-6
-0.338, -3.851e-6, -2.057e-6, 1.794e-6
-0.339, -3.839e-6, -2.045e-6, 1.794e-6
-0.340, -3.845e-6, -2.054e-6, 1.791e-6
-0.341, -3.839e-6, -2.048e-6, 1.791e-6
-0.342, -3.839e-6, -2.048e-6, 1.791e-6
-0.343, -3.839e-6, -2.051e-6, 1.788e-6
-0.344, -3.839e-6, -2.048e-6, 1.791e-6
-0.345, -3.836e-6, -2.051e-6, 1.785e-6
-0.346, -3.833e-6, -2.045e-6, 1.788e-6
-0.347, -3.839e-6, -2.048e-6, 1.791e-6
-0.348, -3.836e-6, -2.048e-6, 1.788e-6
-0.349, -3.839e-6, -2.051e-6, 1.788e-6
-0.350, -3.836e-6, -2.048e-6, 1.788e-6
-0.351, -3.833e-6, -2.045e-6, 1.788e-6
-0.352, -3.833e-6, -2.048e-6, 1.785e-6
-0.353, -3.833e-6, -2.048e-6, 1.785e-6
-0.354, -3.830e-6, -2.048e-6, 1.781e-6
-0.355, -3.833e-6, -2.048e-6, 1.785e-6
-0.356, -3.824e-6, -2.042e-6, 1.781e-6
-0.357, -3.827e-6, -2.048e-6, 1.778e-6
-0.358, -3.827e-6, -2.045e-6, 1.781e-6
-0.359, -3.827e-6, -2.045e-6, 1.781e-6
-0.360, -3.830e-6, -2.051e-6, 1.778e-6
-0.361, -3.827e-6, -2.045e-6, 1.781e-6
-0.362, -3.824e-6, -2.045e-6, 1.778e-6
-0.363, -3.827e-6, -2.048e-6, 1.778e-6
-0.364, -3.827e-6, -2.048e-6, 1.778e-6
-0.365, -3.821e-6, -2.045e-6, 1.775e-6
-0.366, -3.827e-6, -2.048e-6, 1.778e-6
-0.367, -3.824e-6, -2.048e-6, 1.775e-6
-0.368, -3.824e-6, -2.048e-6, 1.775e-6
-0.369, -3.827e-6, -2.048e-6, 1.778e-6
-0.370, -3.824e-6, -2.048e-6, 1.775e-6
-0.371, -3.824e-6, -2.048e-6, 1.775e-6
-0.372, -3.830e-6, -2.054e-6, 1.775e-6
-0.373, -3.818e-6, -2.045e-6, 1.772e-6
-0.374, -3.821e-6, -2.048e-6, 1.772e-6
-0.375, -3.818e-6, -2.045e-6, 1.772e-6
-0.376, -3.814e-6, -2.045e-6, 1.769e-6
-0.377, -3.818e-6, -2.048e-6, 1.769e-6
-0.378, -3.824e-6, -2.051e-6, 1.772e-6
-0.379, -3.818e-6, -2.048e-6, 1.769e-6
-0.380, -3.818e-6, -2.048e-6, 1.769e-6
-0.381, -3.821e-6, -2.054e-6, 1.766e-6
-0.382, -3.814e-6, -2.048e-6, 1.766e-6
-0.383, -3.824e-6, -2.054e-6, 1.769e-6
-0.384, -3.814e-6, -2.048e-6, 1.766e-6
-0.385, -3.814e-6, -2.051e-6, 1.763e-6
-0.386, -3.814e-6, -2.051e-6, 1.763e-6
-0.387, -3.811e-6, -2.048e-6, 1.763e-6
-0.388, -3.818e-6, -2.054e-6, 1.763e-6
-0.389, -3.818e-6, -2.054e-6, 1.763e-6
-0.390, -3.811e-6, -2.048e-6, 1.763e-6
-0.391, -3.814e-6, -2.054e-6, 1.760e-6
-0.392, -3.821e-6, -2.057e-6, 1.763e-6
-0.393, -3.814e-6, -2.054e-6, 1.760e-6
-0.394, -3.811e-6, -2.054e-6, 1.757e-6
-0.395, -3.811e-6, -2.051e-6, 1.760e-6
-0.396, -3.808e-6, -2.051e-6, 1.757e-6
-0.397, -3.811e-6, -2.051e-6, 1.760e-6
-0.398, -3.808e-6, -2.054e-6, 1.754e-6
-0.399, -3.811e-6, -2.054e-6, 1.757e-6
-0.400, -3.824e-6, -2.067e-6, 1.757e-6
