Feb. 28, 2018   11:40:29
Square Wave Voltammetry
File: c:\users\electrochemist\desktop\2018\28022018_unbuffered_9,2\18_e2_9,2_0118_ph6,05_5.txt
Data Source:  Experiment
Instrument Model:  CHI1040A
Header: 
Note: 

Init E (V) = 0.5
Final E (V) = -0.05
Incr E (V) = 0.001
Amplitude (V) = 0.1
Frequency (Hz) = 150
Quiet Time (sec) = 0
Sensitivity (A/V) = 1e-6

Difference:

Forward:

Reverse:

Potential/V, Diff(i/A), For(i/A), Rev(i/A)

0.499, -5.053e-7, -1.300e-7, 3.753e-7
0.498, -6.134e-7, -2.909e-7, 3.225e-7
0.497, -6.085e-7, -3.031e-7, 3.054e-7
0.496, -6.021e-7, -3.080e-7, 2.941e-7
0.495, -5.966e-7, -3.089e-7, 2.877e-7
0.494, -5.944e-7, -3.128e-7, 2.816e-7
0.493, -5.935e-7, -3.141e-7, 2.795e-7
0.492, -5.896e-7, -3.156e-7, 2.740e-7
0.491, -5.871e-7, -3.162e-7, 2.709e-7
0.490, -5.862e-7, -3.177e-7, 2.685e-7
0.489, -5.871e-7, -3.189e-7, 2.682e-7
0.488, -5.816e-7, -3.192e-7, 2.624e-7
0.487, -5.829e-7, -3.199e-7, 2.630e-7
0.486, -5.813e-7, -3.189e-7, 2.624e-7
0.485, -5.813e-7, -3.217e-7, 2.596e-7
0.484, -5.783e-7, -3.205e-7, 2.578e-7
0.483, -5.807e-7, -3.217e-7, 2.590e-7
0.482, -5.795e-7, -3.232e-7, 2.563e-7
0.481, -5.798e-7, -3.235e-7, 2.563e-7
0.480, -5.777e-7, -3.232e-7, 2.545e-7
0.479, -5.786e-7, -3.250e-7, 2.535e-7
0.478, -5.813e-7, -3.272e-7, 2.541e-7
0.477, -5.795e-7, -3.266e-7, 2.529e-7
0.476, -5.792e-7, -3.263e-7, 2.529e-7
0.475, -5.792e-7, -3.278e-7, 2.514e-7
0.474, -5.801e-7, -3.278e-7, 2.523e-7
0.473, -5.804e-7, -3.293e-7, 2.511e-7
0.472, -5.798e-7, -3.296e-7, 2.502e-7
0.471, -5.804e-7, -3.293e-7, 2.511e-7
0.470, -5.795e-7, -3.315e-7, 2.480e-7
0.469, -5.798e-7, -3.315e-7, 2.483e-7
0.468, -5.835e-7, -3.324e-7, 2.511e-7
0.467, -5.813e-7, -3.327e-7, 2.487e-7
0.466, -5.835e-7, -3.348e-7, 2.487e-7
0.465, -5.822e-7, -3.342e-7, 2.480e-7
0.464, -5.813e-7, -3.345e-7, 2.468e-7
0.463, -5.835e-7, -3.360e-7, 2.474e-7
0.462, -5.807e-7, -3.336e-7, 2.471e-7
0.461, -5.825e-7, -3.373e-7, 2.453e-7
0.460, -5.829e-7, -3.363e-7, 2.465e-7
0.459, -5.841e-7, -3.376e-7, 2.465e-7
0.458, -5.838e-7, -3.388e-7, 2.450e-7
0.457, -5.865e-7, -3.403e-7, 2.462e-7
0.456, -5.847e-7, -3.388e-7, 2.459e-7
0.455, -5.841e-7, -3.394e-7, 2.447e-7
0.454, -5.871e-7, -3.427e-7, 2.444e-7
0.453, -5.880e-7, -3.415e-7, 2.465e-7
0.452, -5.853e-7, -3.409e-7, 2.444e-7
0.451, -5.874e-7, -3.434e-7, 2.441e-7
0.450, -5.880e-7, -3.427e-7, 2.453e-7
0.449, -5.887e-7, -3.452e-7, 2.435e-7
0.448, -5.917e-7, -3.455e-7, 2.462e-7
0.447, -5.914e-7, -3.452e-7, 2.462e-7
0.446, -5.911e-7, -3.464e-7, 2.447e-7
0.445, -5.908e-7, -3.470e-7, 2.438e-7
0.444, -5.914e-7, -3.464e-7, 2.450e-7
0.443, -5.899e-7, -3.473e-7, 2.426e-7
0.442, -5.944e-7, -3.501e-7, 2.444e-7
0.441, -5.960e-7, -3.501e-7, 2.459e-7
0.440, -5.951e-7, -3.510e-7, 2.441e-7
0.439, -5.972e-7, -3.528e-7, 2.444e-7
0.438, -5.963e-7, -3.507e-7, 2.456e-7
0.437, -5.972e-7, -3.528e-7, 2.444e-7
0.436, -5.981e-7, -3.540e-7, 2.441e-7
0.435, -6.012e-7, -3.556e-7, 2.456e-7
0.434, -5.999e-7, -3.559e-7, 2.441e-7
0.433, -6.018e-7, -3.568e-7, 2.450e-7
0.432, -6.039e-7, -3.580e-7, 2.459e-7
0.431, -6.033e-7, -3.583e-7, 2.450e-7
0.430, -6.027e-7, -3.580e-7, 2.447e-7
0.429, -6.054e-7, -3.595e-7, 2.459e-7
0.428, -6.057e-7, -3.598e-7, 2.459e-7
0.427, -6.085e-7, -3.623e-7, 2.462e-7
0.426, -6.067e-7, -3.604e-7, 2.462e-7
0.425, -6.070e-7, -3.617e-7, 2.453e-7
0.424, -6.100e-7, -3.644e-7, 2.456e-7
0.423, -6.091e-7, -3.632e-7, 2.459e-7
0.422, -6.091e-7, -3.653e-7, 2.438e-7
0.421, -6.137e-7, -3.675e-7, 2.462e-7
0.420, -6.137e-7, -3.669e-7, 2.468e-7
0.419, -6.125e-7, -3.675e-7, 2.450e-7
0.418, -6.146e-7, -3.696e-7, 2.450e-7
0.417, -6.158e-7, -3.690e-7, 2.468e-7
0.416, -6.149e-7, -3.699e-7, 2.450e-7
0.415, -6.183e-7, -3.708e-7, 2.474e-7
0.414, -6.201e-7, -3.723e-7, 2.477e-7
0.413, -6.192e-7, -3.733e-7, 2.459e-7
0.412, -6.204e-7, -3.739e-7, 2.465e-7
0.411, -6.228e-7, -3.748e-7, 2.480e-7
0.410, -6.228e-7, -3.757e-7, 2.471e-7
0.409, -6.240e-7, -3.766e-7, 2.474e-7
0.408, -6.244e-7, -3.766e-7, 2.477e-7
0.407, -6.262e-7, -3.784e-7, 2.477e-7
0.406, -6.274e-7, -3.797e-7, 2.477e-7
0.405, -6.259e-7, -3.791e-7, 2.468e-7
0.404, -6.286e-7, -3.809e-7, 2.477e-7
0.403, -6.314e-7, -3.824e-7, 2.490e-7
0.402, -6.311e-7, -3.821e-7, 2.490e-7
0.401, -6.329e-7, -3.836e-7, 2.493e-7
0.400, -6.338e-7, -3.852e-7, 2.487e-7
0.399, -6.335e-7, -3.842e-7, 2.493e-7
0.398, -6.366e-7, -3.873e-7, 2.493e-7
0.397, -6.393e-7, -3.894e-7, 2.499e-7
0.396, -6.399e-7, -3.888e-7, 2.511e-7
0.395, -6.399e-7, -3.903e-7, 2.496e-7
0.394, -6.430e-7, -3.922e-7, 2.508e-7
0.393, -6.414e-7, -3.903e-7, 2.511e-7
0.392, -6.430e-7, -3.922e-7, 2.508e-7
0.391, -6.439e-7, -3.934e-7, 2.505e-7
0.390, -6.442e-7, -3.931e-7, 2.511e-7
0.389, -6.457e-7, -3.952e-7, 2.505e-7
0.388, -6.482e-7, -3.977e-7, 2.505e-7
0.387, -6.491e-7, -3.971e-7, 2.520e-7
0.386, -6.482e-7, -3.971e-7, 2.511e-7
0.385, -6.515e-7, -3.998e-7, 2.517e-7
0.384, -6.509e-7, -3.989e-7, 2.520e-7
0.383, -6.530e-7, -4.016e-7, 2.514e-7
0.382, -6.555e-7, -4.032e-7, 2.523e-7
0.381, -6.561e-7, -4.026e-7, 2.535e-7
0.380, -6.570e-7, -4.038e-7, 2.532e-7
0.379, -6.573e-7, -4.056e-7, 2.517e-7
0.378, -6.616e-7, -4.074e-7, 2.541e-7
0.377, -6.616e-7, -4.071e-7, 2.545e-7
0.376, -6.631e-7, -4.087e-7, 2.545e-7
0.375, -6.659e-7, -4.102e-7, 2.557e-7
0.374, -6.659e-7, -4.105e-7, 2.554e-7
0.373, -6.689e-7, -4.129e-7, 2.560e-7
0.372, -6.704e-7, -4.126e-7, 2.578e-7
0.371, -6.704e-7, -4.135e-7, 2.569e-7
0.370, -6.710e-7, -4.160e-7, 2.551e-7
0.369, -6.750e-7, -4.166e-7, 2.584e-7
0.368, -6.732e-7, -4.172e-7, 2.560e-7
0.367, -6.771e-7, -4.196e-7, 2.575e-7
0.366, -6.790e-7, -4.203e-7, 2.587e-7
0.365, -6.781e-7, -4.203e-7, 2.578e-7
0.364, -6.799e-7, -4.230e-7, 2.569e-7
0.363, -6.823e-7, -4.221e-7, 2.602e-7
0.362, -6.823e-7, -4.239e-7, 2.584e-7
0.361, -6.854e-7, -4.257e-7, 2.596e-7
0.360, -6.884e-7, -4.273e-7, 2.612e-7
0.359, -6.860e-7, -4.264e-7, 2.596e-7
0.358, -6.906e-7, -4.309e-7, 2.596e-7
0.357, -6.897e-7, -4.294e-7, 2.602e-7
0.356, -6.912e-7, -4.303e-7, 2.609e-7
0.355, -6.945e-7, -4.325e-7, 2.621e-7
0.354, -6.945e-7, -4.322e-7, 2.624e-7
0.353, -6.973e-7, -4.346e-7, 2.627e-7
0.352, -6.973e-7, -4.358e-7, 2.615e-7
0.351, -7.013e-7, -4.376e-7, 2.636e-7
0.350, -7.003e-7, -4.383e-7, 2.621e-7
0.349, -7.034e-7, -4.392e-7, 2.642e-7
0.348, -7.031e-7, -4.392e-7, 2.639e-7
0.347, -7.061e-7, -4.413e-7, 2.648e-7
0.346, -7.067e-7, -4.419e-7, 2.648e-7
0.345, -7.086e-7, -4.434e-7, 2.651e-7
0.344, -7.104e-7, -4.459e-7, 2.645e-7
0.343, -7.125e-7, -4.465e-7, 2.660e-7
0.342, -7.141e-7, -4.468e-7, 2.673e-7
0.341, -7.147e-7, -4.489e-7, 2.657e-7
0.340, -7.165e-7, -4.502e-7, 2.664e-7
0.339, -7.193e-7, -4.511e-7, 2.682e-7
0.338, -7.193e-7, -4.517e-7, 2.676e-7
0.337, -7.220e-7, -4.535e-7, 2.685e-7
0.336, -7.226e-7, -4.541e-7, 2.685e-7
0.335, -7.232e-7, -4.553e-7, 2.679e-7
0.334, -7.278e-7, -4.587e-7, 2.691e-7
0.333, -7.299e-7, -4.584e-7, 2.715e-7
0.332, -7.278e-7, -4.584e-7, 2.694e-7
0.331, -7.333e-7, -4.627e-7, 2.706e-7
0.330, -7.339e-7, -4.621e-7, 2.718e-7
0.329, -7.342e-7, -4.636e-7, 2.706e-7
0.328, -7.385e-7, -4.657e-7, 2.728e-7
0.327, -7.394e-7, -4.660e-7, 2.734e-7
0.326, -7.397e-7, -4.676e-7, 2.721e-7
0.325, -7.415e-7, -4.691e-7, 2.725e-7
0.324, -7.449e-7, -4.700e-7, 2.749e-7
0.323, -7.431e-7, -4.697e-7, 2.734e-7
0.322, -7.486e-7, -4.737e-7, 2.749e-7
0.321, -7.495e-7, -4.737e-7, 2.758e-7
0.320, -7.495e-7, -4.743e-7, 2.752e-7
0.319, -7.537e-7, -4.776e-7, 2.761e-7
0.318, -7.537e-7, -4.776e-7, 2.761e-7
0.317, -7.565e-7, -4.788e-7, 2.776e-7
0.316, -7.559e-7, -4.795e-7, 2.764e-7
0.315, -7.577e-7, -4.810e-7, 2.767e-7
0.314, -7.577e-7, -4.813e-7, 2.764e-7
0.313, -7.614e-7, -4.834e-7, 2.779e-7
0.312, -7.653e-7, -4.849e-7, 2.804e-7
0.311, -7.647e-7, -4.865e-7, 2.783e-7
0.310, -7.681e-7, -4.883e-7, 2.798e-7
0.309, -7.678e-7, -4.874e-7, 2.804e-7
0.308, -7.696e-7, -4.889e-7, 2.807e-7
0.307, -7.724e-7, -4.911e-7, 2.813e-7
0.306, -7.742e-7, -4.920e-7, 2.822e-7
0.305, -7.754e-7, -4.944e-7, 2.810e-7
0.304, -7.791e-7, -4.953e-7, 2.837e-7
0.303, -7.797e-7, -4.959e-7, 2.837e-7
0.302, -7.794e-7, -4.972e-7, 2.822e-7
0.301, -7.846e-7, -4.996e-7, 2.850e-7
0.300, -7.858e-7, -5.005e-7, 2.853e-7
0.299, -7.858e-7, -5.011e-7, 2.847e-7
0.298, -7.882e-7, -5.039e-7, 2.844e-7
0.297, -7.913e-7, -5.033e-7, 2.880e-7
0.296, -7.928e-7, -5.060e-7, 2.868e-7
0.295, -7.943e-7, -5.069e-7, 2.874e-7
0.294, -7.949e-7, -5.075e-7, 2.874e-7
0.293, -7.974e-7, -5.100e-7, 2.874e-7
0.292, -7.998e-7, -5.103e-7, 2.895e-7
0.291, -8.017e-7, -5.124e-7, 2.892e-7
0.290, -8.041e-7, -5.145e-7, 2.895e-7
0.289, -8.059e-7, -5.149e-7, 2.911e-7
0.288, -8.053e-7, -5.149e-7, 2.905e-7
0.287, -8.062e-7, -5.167e-7, 2.895e-7
0.286, -8.111e-7, -5.191e-7, 2.920e-7
0.285, -8.108e-7, -5.185e-7, 2.923e-7
0.284, -8.114e-7, -5.203e-7, 2.911e-7
0.283, -8.160e-7, -5.216e-7, 2.944e-7
0.282, -8.175e-7, -5.222e-7, 2.953e-7
0.281, -8.184e-7, -5.234e-7, 2.950e-7
0.280, -8.206e-7, -5.261e-7, 2.944e-7
0.279, -8.221e-7, -5.261e-7, 2.960e-7
0.278, -8.242e-7, -5.283e-7, 2.960e-7
0.277, -8.276e-7, -5.298e-7, 2.978e-7
0.276, -8.276e-7, -5.292e-7, 2.984e-7
0.275, -8.273e-7, -5.304e-7, 2.969e-7
0.274, -8.316e-7, -5.338e-7, 2.978e-7
0.273, -8.303e-7, -5.329e-7, 2.975e-7
0.272, -8.352e-7, -5.356e-7, 2.996e-7
0.271, -8.380e-7, -5.380e-7, 2.999e-7
0.270, -8.395e-7, -5.380e-7, 3.014e-7
0.269, -8.395e-7, -5.390e-7, 3.005e-7
0.268, -8.419e-7, -5.411e-7, 3.008e-7
0.267, -8.441e-7, -5.411e-7, 3.030e-7
0.266, -8.459e-7, -5.429e-7, 3.030e-7
0.265, -8.477e-7, -5.438e-7, 3.039e-7
0.264, -8.496e-7, -5.451e-7, 3.045e-7
0.263, -8.508e-7, -5.472e-7, 3.036e-7
0.262, -8.523e-7, -5.481e-7, 3.042e-7
0.261, -8.544e-7, -5.475e-7, 3.069e-7
0.260, -8.544e-7, -5.481e-7, 3.063e-7
0.259, -8.572e-7, -5.503e-7, 3.069e-7
0.258, -8.590e-7, -5.512e-7, 3.079e-7
0.257, -8.599e-7, -5.530e-7, 3.069e-7
0.256, -8.627e-7, -5.554e-7, 3.072e-7
0.255, -8.648e-7, -5.548e-7, 3.100e-7
0.254, -8.660e-7, -5.567e-7, 3.094e-7
0.253, -8.685e-7, -5.585e-7, 3.100e-7
0.252, -8.712e-7, -5.591e-7, 3.121e-7
0.251, -8.706e-7, -5.597e-7, 3.109e-7
0.250, -8.734e-7, -5.609e-7, 3.124e-7
0.249, -8.758e-7, -5.622e-7, 3.137e-7
0.248, -8.758e-7, -5.628e-7, 3.130e-7
0.247, -8.786e-7, -5.652e-7, 3.133e-7
0.246, -8.798e-7, -5.643e-7, 3.155e-7
0.245, -8.801e-7, -5.661e-7, 3.140e-7
0.244, -8.837e-7, -5.676e-7, 3.161e-7
0.243, -8.840e-7, -5.680e-7, 3.161e-7
0.242, -8.859e-7, -5.695e-7, 3.164e-7
0.241, -8.892e-7, -5.710e-7, 3.182e-7
0.240, -8.883e-7, -5.704e-7, 3.179e-7
0.239, -8.911e-7, -5.731e-7, 3.179e-7
0.238, -8.920e-7, -5.734e-7, 3.185e-7
0.237, -8.959e-7, -5.750e-7, 3.210e-7
0.236, -8.953e-7, -5.750e-7, 3.204e-7
0.235, -8.975e-7, -5.774e-7, 3.201e-7
0.234, -8.993e-7, -5.771e-7, 3.222e-7
0.233, -8.990e-7, -5.780e-7, 3.210e-7
0.232, -9.024e-7, -5.799e-7, 3.225e-7
0.231, -9.048e-7, -5.792e-7, 3.256e-7
0.230, -9.048e-7, -5.805e-7, 3.243e-7
0.229, -9.057e-7, -5.829e-7, 3.228e-7
0.228, -9.088e-7, -5.823e-7, 3.265e-7
0.227, -9.103e-7, -5.850e-7, 3.252e-7
0.226, -9.121e-7, -5.850e-7, 3.271e-7
0.225, -9.136e-7, -5.853e-7, 3.283e-7
0.224, -9.136e-7, -5.875e-7, 3.262e-7
0.223, -9.173e-7, -5.890e-7, 3.283e-7
0.222, -9.161e-7, -5.878e-7, 3.283e-7
0.221, -9.185e-7, -5.890e-7, 3.295e-7
0.220, -9.207e-7, -5.911e-7, 3.295e-7
0.219, -9.213e-7, -5.905e-7, 3.307e-7
0.218, -9.219e-7, -5.908e-7, 3.310e-7
0.217, -9.249e-7, -5.924e-7, 3.326e-7
0.216, -9.277e-7, -5.936e-7, 3.341e-7
0.215, -9.271e-7, -5.942e-7, 3.329e-7
0.214, -9.268e-7, -5.942e-7, 3.326e-7
0.213, -9.304e-7, -5.945e-7, 3.359e-7
0.212, -9.301e-7, -5.972e-7, 3.329e-7
0.211, -9.323e-7, -5.972e-7, 3.350e-7
0.210, -9.353e-7, -5.972e-7, 3.381e-7
0.209, -9.347e-7, -5.982e-7, 3.365e-7
0.208, -9.356e-7, -5.982e-7, 3.375e-7
0.207, -9.374e-7, -5.991e-7, 3.384e-7
0.206, -9.378e-7, -5.991e-7, 3.387e-7
0.205, -9.414e-7, -6.021e-7, 3.393e-7
0.204, -9.393e-7, -6.003e-7, 3.390e-7
0.203, -9.414e-7, -6.018e-7, 3.396e-7
0.202, -9.463e-7, -6.043e-7, 3.420e-7
0.201, -9.448e-7, -6.024e-7, 3.423e-7
0.200, -9.426e-7, -6.024e-7, 3.402e-7
0.199, -9.487e-7, -6.052e-7, 3.436e-7
0.198, -9.478e-7, -6.046e-7, 3.433e-7
0.197, -9.490e-7, -6.055e-7, 3.436e-7
0.196, -9.500e-7, -6.058e-7, 3.442e-7
0.195, -9.512e-7, -6.058e-7, 3.454e-7
0.194, -9.515e-7, -6.076e-7, 3.439e-7
0.193, -9.551e-7, -6.079e-7, 3.472e-7
0.192, -9.539e-7, -6.070e-7, 3.469e-7
0.191, -9.527e-7, -6.079e-7, 3.448e-7
0.190, -9.576e-7, -6.095e-7, 3.481e-7
0.189, -9.570e-7, -6.076e-7, 3.494e-7
0.188, -9.582e-7, -6.095e-7, 3.487e-7
0.187, -9.597e-7, -6.104e-7, 3.494e-7
0.186, -9.606e-7, -6.101e-7, 3.506e-7
0.185, -9.606e-7, -6.113e-7, 3.494e-7
0.184, -9.628e-7, -6.125e-7, 3.503e-7
0.183, -9.655e-7, -6.113e-7, 3.542e-7
0.182, -9.652e-7, -6.122e-7, 3.530e-7
0.181, -9.661e-7, -6.128e-7, 3.533e-7
0.180, -9.667e-7, -6.131e-7, 3.536e-7
0.179, -9.634e-7, -6.122e-7, 3.512e-7
0.178, -9.686e-7, -6.143e-7, 3.542e-7
0.177, -9.680e-7, -6.119e-7, 3.561e-7
0.176, -9.683e-7, -6.131e-7, 3.552e-7
0.175, -9.686e-7, -6.131e-7, 3.555e-7
0.174, -9.692e-7, -6.128e-7, 3.564e-7
0.173, -9.692e-7, -6.134e-7, 3.558e-7
0.172, -9.744e-7, -6.156e-7, 3.588e-7
0.171, -9.713e-7, -6.131e-7, 3.582e-7
0.170, -9.719e-7, -6.134e-7, 3.585e-7
0.169, -9.756e-7, -6.159e-7, 3.597e-7
0.168, -9.765e-7, -6.153e-7, 3.613e-7
0.167, -9.747e-7, -6.149e-7, 3.597e-7
0.166, -9.774e-7, -6.162e-7, 3.613e-7
0.165, -9.753e-7, -6.137e-7, 3.616e-7
0.164, -9.762e-7, -6.146e-7, 3.616e-7
0.163, -9.750e-7, -6.140e-7, 3.609e-7
0.162, -9.774e-7, -6.137e-7, 3.637e-7
0.161, -9.759e-7, -6.146e-7, 3.613e-7
0.160, -9.780e-7, -6.149e-7, 3.631e-7
0.159, -9.786e-7, -6.137e-7, 3.649e-7
0.158, -9.783e-7, -6.143e-7, 3.640e-7
0.157, -9.793e-7, -6.140e-7, 3.652e-7
0.156, -9.799e-7, -6.146e-7, 3.652e-7
0.155, -9.799e-7, -6.137e-7, 3.661e-7
0.154, -9.802e-7, -6.143e-7, 3.658e-7
0.153, -9.808e-7, -6.131e-7, 3.677e-7
0.152, -9.805e-7, -6.137e-7, 3.667e-7
0.151, -9.823e-7, -6.149e-7, 3.674e-7
0.150, -9.811e-7, -6.131e-7, 3.680e-7
0.149, -9.826e-7, -6.143e-7, 3.683e-7
0.148, -9.814e-7, -6.134e-7, 3.680e-7
0.147, -9.814e-7, -6.113e-7, 3.701e-7
0.146, -9.823e-7, -6.131e-7, 3.692e-7
0.145, -9.811e-7, -6.113e-7, 3.698e-7
0.144, -9.826e-7, -6.116e-7, 3.710e-7
0.143, -9.829e-7, -6.128e-7, 3.701e-7
0.142, -9.835e-7, -6.125e-7, 3.710e-7
0.141, -9.814e-7, -6.107e-7, 3.707e-7
0.140, -9.820e-7, -6.113e-7, 3.707e-7
0.139, -9.841e-7, -6.116e-7, 3.725e-7
0.138, -9.823e-7, -6.098e-7, 3.725e-7
0.137, -9.808e-7, -6.091e-7, 3.716e-7
0.136, -9.823e-7, -6.098e-7, 3.725e-7
0.135, -9.832e-7, -6.082e-7, 3.750e-7
0.134, -9.811e-7, -6.088e-7, 3.722e-7
0.133, -9.817e-7, -6.088e-7, 3.728e-7
0.132, -9.829e-7, -6.073e-7, 3.756e-7
0.131, -9.820e-7, -6.076e-7, 3.744e-7
0.130, -9.814e-7, -6.073e-7, 3.741e-7
0.129, -9.817e-7, -6.049e-7, 3.768e-7
0.128, -9.796e-7, -6.052e-7, 3.744e-7
0.127, -9.814e-7, -6.052e-7, 3.762e-7
0.126, -9.802e-7, -6.043e-7, 3.759e-7
0.125, -9.796e-7, -6.052e-7, 3.744e-7
0.124, -9.802e-7, -6.046e-7, 3.756e-7
0.123, -9.783e-7, -6.012e-7, 3.771e-7
0.122, -9.783e-7, -6.027e-7, 3.756e-7
0.121, -9.799e-7, -6.027e-7, 3.771e-7
0.120, -9.777e-7, -6.003e-7, 3.774e-7
0.119, -9.771e-7, -6.003e-7, 3.768e-7
0.118, -9.777e-7, -6.006e-7, 3.771e-7
0.117, -9.789e-7, -6.003e-7, 3.786e-7
0.116, -9.774e-7, -5.985e-7, 3.790e-7
0.115, -9.774e-7, -5.991e-7, 3.783e-7
0.114, -9.750e-7, -5.963e-7, 3.786e-7
0.113, -9.731e-7, -5.963e-7, 3.768e-7
0.112, -9.759e-7, -5.979e-7, 3.780e-7
0.111, -9.741e-7, -5.954e-7, 3.786e-7
0.110, -9.731e-7, -5.963e-7, 3.768e-7
0.109, -9.741e-7, -5.954e-7, 3.786e-7
0.108, -9.722e-7, -5.930e-7, 3.793e-7
0.107, -9.707e-7, -5.933e-7, 3.774e-7
0.106, -9.710e-7, -5.930e-7, 3.780e-7
0.105, -9.731e-7, -5.921e-7, 3.811e-7
0.104, -9.707e-7, -5.915e-7, 3.793e-7
0.103, -9.704e-7, -5.915e-7, 3.790e-7
0.102, -9.683e-7, -5.881e-7, 3.802e-7
0.101, -9.658e-7, -5.878e-7, 3.780e-7
0.100, -9.674e-7, -5.878e-7, 3.796e-7
0.099, -9.667e-7, -5.860e-7, 3.808e-7
0.098, -9.643e-7, -5.866e-7, 3.777e-7
0.097, -9.640e-7, -5.850e-7, 3.790e-7
0.096, -9.634e-7, -5.841e-7, 3.793e-7
0.095, -9.603e-7, -5.838e-7, 3.765e-7
0.094, -9.622e-7, -5.829e-7, 3.793e-7
0.093, -9.603e-7, -5.808e-7, 3.796e-7
0.092, -9.600e-7, -5.811e-7, 3.790e-7
0.091, -9.597e-7, -5.811e-7, 3.786e-7
0.090, -9.576e-7, -5.786e-7, 3.790e-7
0.089, -9.551e-7, -5.780e-7, 3.771e-7
0.088, -9.555e-7, -5.774e-7, 3.780e-7
0.087, -9.548e-7, -5.747e-7, 3.802e-7
0.086, -9.521e-7, -5.762e-7, 3.759e-7
0.085, -9.530e-7, -5.762e-7, 3.768e-7
0.084, -9.521e-7, -5.734e-7, 3.786e-7
0.083, -9.493e-7, -5.716e-7, 3.777e-7
0.082, -9.512e-7, -5.725e-7, 3.786e-7
0.081, -9.478e-7, -5.698e-7, 3.780e-7
0.080, -9.451e-7, -5.695e-7, 3.756e-7
0.079, -9.454e-7, -5.686e-7, 3.768e-7
0.078, -9.435e-7, -5.673e-7, 3.762e-7
0.077, -9.435e-7, -5.667e-7, 3.768e-7
0.076, -9.435e-7, -5.680e-7, 3.756e-7
0.075, -9.402e-7, -5.646e-7, 3.756e-7
0.074, -9.387e-7, -5.643e-7, 3.744e-7
0.073, -9.384e-7, -5.640e-7, 3.744e-7
0.072, -9.387e-7, -5.622e-7, 3.765e-7
0.071, -9.365e-7, -5.622e-7, 3.744e-7
0.070, -9.359e-7, -5.609e-7, 3.750e-7
0.069, -9.332e-7, -5.585e-7, 3.747e-7
0.068, -9.316e-7, -5.585e-7, 3.732e-7
0.067, -9.316e-7, -5.582e-7, 3.735e-7
0.066, -9.307e-7, -5.557e-7, 3.750e-7
0.065, -9.289e-7, -5.561e-7, 3.728e-7
0.064, -9.298e-7, -5.551e-7, 3.747e-7
0.063, -9.277e-7, -5.533e-7, 3.744e-7
0.062, -9.265e-7, -5.536e-7, 3.728e-7
0.061, -9.255e-7, -5.524e-7, 3.732e-7
0.060, -9.237e-7, -5.506e-7, 3.732e-7
0.059, -9.204e-7, -5.499e-7, 3.704e-7
0.058, -9.194e-7, -5.493e-7, 3.701e-7
0.057, -9.179e-7, -5.463e-7, 3.716e-7
0.056, -9.182e-7, -5.472e-7, 3.710e-7
0.055, -9.164e-7, -5.454e-7, 3.710e-7
0.054, -9.146e-7, -5.442e-7, 3.704e-7
0.053, -9.139e-7, -5.451e-7, 3.689e-7
0.052, -9.118e-7, -5.432e-7, 3.686e-7
0.051, -9.100e-7, -5.423e-7, 3.677e-7
0.050, -9.085e-7, -5.411e-7, 3.674e-7
0.049, -9.085e-7, -5.405e-7, 3.680e-7
0.048, -9.069e-7, -5.387e-7, 3.683e-7
0.047, -9.051e-7, -5.384e-7, 3.667e-7
0.046, -9.042e-7, -5.390e-7, 3.652e-7
0.045, -9.014e-7, -5.356e-7, 3.658e-7
0.044, -9.008e-7, -5.350e-7, 3.658e-7
0.043, -9.002e-7, -5.362e-7, 3.640e-7
0.042, -8.987e-7, -5.341e-7, 3.646e-7
0.041, -8.981e-7, -5.344e-7, 3.637e-7
0.040, -8.947e-7, -5.316e-7, 3.631e-7
0.039, -8.932e-7, -5.295e-7, 3.637e-7
0.038, -8.923e-7, -5.310e-7, 3.613e-7
0.037, -8.923e-7, -5.304e-7, 3.619e-7
0.036, -8.901e-7, -5.274e-7, 3.628e-7
0.035, -8.883e-7, -5.274e-7, 3.609e-7
0.034, -8.871e-7, -5.274e-7, 3.597e-7
0.033, -8.865e-7, -5.252e-7, 3.613e-7
0.032, -8.853e-7, -5.249e-7, 3.603e-7
0.031, -8.840e-7, -5.249e-7, 3.591e-7
0.030, -8.816e-7, -5.222e-7, 3.594e-7
0.029, -8.789e-7, -5.219e-7, 3.570e-7
0.028, -8.822e-7, -5.228e-7, 3.594e-7
0.027, -8.792e-7, -5.203e-7, 3.588e-7
0.026, -8.767e-7, -5.203e-7, 3.564e-7
0.025, -8.758e-7, -5.188e-7, 3.570e-7
0.024, -8.749e-7, -5.173e-7, 3.576e-7
0.023, -8.731e-7, -5.176e-7, 3.555e-7
0.022, -8.737e-7, -5.179e-7, 3.558e-7
0.021, -8.734e-7, -5.170e-7, 3.564e-7
0.020, -8.676e-7, -5.142e-7, 3.533e-7
0.019, -8.685e-7, -5.149e-7, 3.536e-7
0.018, -8.666e-7, -5.121e-7, 3.545e-7
0.017, -8.654e-7, -5.133e-7, 3.521e-7
0.016, -8.639e-7, -5.127e-7, 3.512e-7
0.015, -8.624e-7, -5.109e-7, 3.515e-7
0.014, -8.605e-7, -5.103e-7, 3.503e-7
0.013, -8.605e-7, -5.100e-7, 3.506e-7
0.012, -8.590e-7, -5.088e-7, 3.503e-7
0.011, -8.587e-7, -5.094e-7, 3.494e-7
0.010, -8.569e-7, -5.088e-7, 3.481e-7
0.009, -8.551e-7, -5.069e-7, 3.481e-7
0.008, -8.535e-7, -5.060e-7, 3.475e-7
0.007, -8.526e-7, -5.060e-7, 3.466e-7
0.006, -8.505e-7, -5.045e-7, 3.460e-7
0.005, -8.496e-7, -5.048e-7, 3.448e-7
0.004, -8.502e-7, -5.048e-7, 3.454e-7
0.003, -8.486e-7, -5.027e-7, 3.460e-7
0.002, -8.462e-7, -5.023e-7, 3.439e-7
0.001, -8.471e-7, -5.027e-7, 3.445e-7
-0.000, -8.432e-7, -5.005e-7, 3.426e-7
-0.001, -8.422e-7, -5.002e-7, 3.420e-7
-0.002, -8.441e-7, -5.020e-7, 3.420e-7
-0.003, -8.416e-7, -4.990e-7, 3.426e-7
-0.004, -8.392e-7, -4.987e-7, 3.405e-7
-0.005, -8.386e-7, -4.993e-7, 3.393e-7
-0.006, -8.367e-7, -4.969e-7, 3.399e-7
-0.007, -8.349e-7, -4.969e-7, 3.381e-7
-0.008, -8.370e-7, -4.978e-7, 3.393e-7
-0.009, -8.352e-7, -4.956e-7, 3.396e-7
-0.010, -8.325e-7, -4.950e-7, 3.375e-7
-0.011, -8.337e-7, -4.962e-7, 3.375e-7
-0.012, -8.309e-7, -4.938e-7, 3.371e-7
-0.013, -8.300e-7, -4.938e-7, 3.362e-7
-0.014, -8.300e-7, -4.947e-7, 3.353e-7
-0.015, -8.273e-7, -4.920e-7, 3.353e-7
-0.016, -8.285e-7, -4.935e-7, 3.350e-7
-0.017, -8.273e-7, -4.932e-7, 3.341e-7
-0.018, -8.261e-7, -4.920e-7, 3.341e-7
-0.019, -8.221e-7, -4.901e-7, 3.320e-7
-0.020, -8.236e-7, -4.911e-7, 3.326e-7
-0.021, -8.215e-7, -4.889e-7, 3.326e-7
-0.022, -8.212e-7, -4.901e-7, 3.310e-7
-0.023, -8.221e-7, -4.898e-7, 3.323e-7
-0.024, -8.190e-7, -4.886e-7, 3.304e-7
-0.025, -8.187e-7, -4.892e-7, 3.295e-7
-0.026, -8.172e-7, -4.883e-7, 3.289e-7
-0.027, -8.163e-7, -4.865e-7, 3.298e-7
-0.028, -8.142e-7, -4.865e-7, 3.277e-7
-0.029, -8.151e-7, -4.880e-7, 3.271e-7
-0.030, -8.142e-7, -4.859e-7, 3.283e-7
-0.031, -8.142e-7, -4.871e-7, 3.271e-7
-0.032, -8.139e-7, -4.865e-7, 3.274e-7
-0.033, -8.123e-7, -4.846e-7, 3.277e-7
-0.034, -8.099e-7, -4.846e-7, 3.252e-7
-0.035, -8.111e-7, -4.850e-7, 3.262e-7
-0.036, -8.096e-7, -4.837e-7, 3.259e-7
-0.037, -8.078e-7, -4.837e-7, 3.240e-7
-0.038, -8.081e-7, -4.843e-7, 3.237e-7
-0.039, -8.071e-7, -4.831e-7, 3.240e-7
-0.040, -8.071e-7, -4.834e-7, 3.237e-7
-0.041, -8.062e-7, -4.837e-7, 3.225e-7
-0.042, -8.071e-7, -4.840e-7, 3.231e-7
-0.043, -8.032e-7, -4.825e-7, 3.207e-7
-0.044, -8.041e-7, -4.825e-7, 3.216e-7
-0.045, -8.044e-7, -4.822e-7, 3.222e-7
-0.046, -8.026e-7, -4.819e-7, 3.207e-7
-0.047, -8.044e-7, -4.819e-7, 3.225e-7
-0.048, -8.007e-7, -4.807e-7, 3.201e-7
-0.049, -7.995e-7, -4.801e-7, 3.194e-7
-0.050, -8.001e-7, -4.813e-7, 3.188e-7
