Feb. 28, 2018   11:41:28
Square Wave Voltammetry
File: c:\users\electrochemist\desktop\2018\28022018_unbuffered_9,2\19_e5_9,2_0118_ph6,05_5.txt
Data Source:  Experiment
Instrument Model:  CHI1040A
Header: 
Note: 

Init E (V) = 0.5
Final E (V) = -0.05
Incr E (V) = 0.001
Amplitude (V) = 0.1
Frequency (Hz) = 150
Quiet Time (sec) = 0
Sensitivity (A/V) = 1e-6

Difference:

Forward:

Reverse:

Potential/V, Diff(i/A), For(i/A), Rev(i/A)

0.499, -7.025e-7, -1.645e-7, 5.379e-7
0.498, -8.514e-7, -3.830e-7, 4.684e-7
0.497, -8.435e-7, -3.980e-7, 4.455e-7
0.496, -8.367e-7, -4.016e-7, 4.351e-7
0.495, -8.273e-7, -4.053e-7, 4.220e-7
0.494, -8.233e-7, -4.084e-7, 4.150e-7
0.493, -8.200e-7, -4.090e-7, 4.110e-7
0.492, -8.148e-7, -4.099e-7, 4.049e-7
0.491, -8.148e-7, -4.123e-7, 4.025e-7
0.490, -8.093e-7, -4.108e-7, 3.985e-7
0.489, -8.062e-7, -4.129e-7, 3.933e-7
0.488, -8.050e-7, -4.123e-7, 3.927e-7
0.487, -8.050e-7, -4.135e-7, 3.915e-7
0.486, -7.992e-7, -4.135e-7, 3.857e-7
0.485, -7.992e-7, -4.138e-7, 3.854e-7
0.484, -7.989e-7, -4.141e-7, 3.848e-7
0.483, -7.959e-7, -4.151e-7, 3.808e-7
0.482, -7.946e-7, -4.148e-7, 3.799e-7
0.481, -7.934e-7, -4.141e-7, 3.793e-7
0.480, -7.949e-7, -4.169e-7, 3.780e-7
0.479, -7.937e-7, -4.169e-7, 3.768e-7
0.478, -7.925e-7, -4.163e-7, 3.762e-7
0.477, -7.891e-7, -4.154e-7, 3.738e-7
0.476, -7.922e-7, -4.181e-7, 3.741e-7
0.475, -7.901e-7, -4.163e-7, 3.738e-7
0.474, -7.894e-7, -4.184e-7, 3.710e-7
0.473, -7.894e-7, -4.193e-7, 3.701e-7
0.472, -7.879e-7, -4.166e-7, 3.713e-7
0.471, -7.861e-7, -4.175e-7, 3.686e-7
0.470, -7.882e-7, -4.199e-7, 3.683e-7
0.469, -7.846e-7, -4.163e-7, 3.683e-7
0.468, -7.849e-7, -4.181e-7, 3.668e-7
0.467, -7.852e-7, -4.193e-7, 3.658e-7
0.466, -7.855e-7, -4.190e-7, 3.664e-7
0.465, -7.849e-7, -4.215e-7, 3.634e-7
0.464, -7.830e-7, -4.199e-7, 3.631e-7
0.463, -7.849e-7, -4.199e-7, 3.649e-7
0.462, -7.858e-7, -4.218e-7, 3.640e-7
0.461, -7.843e-7, -4.206e-7, 3.637e-7
0.460, -7.840e-7, -4.212e-7, 3.628e-7
0.459, -7.812e-7, -4.209e-7, 3.603e-7
0.458, -7.846e-7, -4.230e-7, 3.616e-7
0.457, -7.840e-7, -4.215e-7, 3.625e-7
0.456, -7.824e-7, -4.227e-7, 3.597e-7
0.455, -7.846e-7, -4.239e-7, 3.606e-7
0.454, -7.849e-7, -4.233e-7, 3.616e-7
0.453, -7.809e-7, -4.230e-7, 3.579e-7
0.452, -7.836e-7, -4.236e-7, 3.600e-7
0.451, -7.849e-7, -4.233e-7, 3.616e-7
0.450, -7.821e-7, -4.251e-7, 3.570e-7
0.449, -7.861e-7, -4.267e-7, 3.594e-7
0.448, -7.830e-7, -4.242e-7, 3.588e-7
0.447, -7.833e-7, -4.267e-7, 3.567e-7
0.446, -7.846e-7, -4.261e-7, 3.585e-7
0.445, -7.812e-7, -4.248e-7, 3.564e-7
0.444, -7.818e-7, -4.267e-7, 3.552e-7
0.443, -7.852e-7, -4.291e-7, 3.561e-7
0.442, -7.836e-7, -4.267e-7, 3.570e-7
0.441, -7.830e-7, -4.279e-7, 3.552e-7
0.440, -7.843e-7, -4.282e-7, 3.561e-7
0.439, -7.833e-7, -4.264e-7, 3.570e-7
0.438, -7.846e-7, -4.300e-7, 3.545e-7
0.437, -7.855e-7, -4.300e-7, 3.555e-7
0.436, -7.852e-7, -4.297e-7, 3.555e-7
0.435, -7.864e-7, -4.312e-7, 3.552e-7
0.434, -7.873e-7, -4.318e-7, 3.555e-7
0.433, -7.849e-7, -4.300e-7, 3.548e-7
0.432, -7.852e-7, -4.318e-7, 3.533e-7
0.431, -7.885e-7, -4.325e-7, 3.561e-7
0.430, -7.864e-7, -4.325e-7, 3.539e-7
0.429, -7.885e-7, -4.340e-7, 3.545e-7
0.428, -7.885e-7, -4.349e-7, 3.536e-7
0.427, -7.879e-7, -4.331e-7, 3.548e-7
0.426, -7.885e-7, -4.352e-7, 3.533e-7
0.425, -7.901e-7, -4.373e-7, 3.527e-7
0.424, -7.894e-7, -4.352e-7, 3.542e-7
0.423, -7.897e-7, -4.367e-7, 3.530e-7
0.422, -7.919e-7, -4.386e-7, 3.533e-7
0.421, -7.922e-7, -4.373e-7, 3.548e-7
0.420, -7.907e-7, -4.380e-7, 3.527e-7
0.419, -7.919e-7, -4.376e-7, 3.542e-7
0.418, -7.922e-7, -4.389e-7, 3.533e-7
0.417, -7.916e-7, -4.392e-7, 3.524e-7
0.416, -7.946e-7, -4.407e-7, 3.539e-7
0.415, -7.934e-7, -4.398e-7, 3.536e-7
0.414, -7.919e-7, -4.404e-7, 3.515e-7
0.413, -7.946e-7, -4.428e-7, 3.518e-7
0.412, -7.943e-7, -4.413e-7, 3.530e-7
0.411, -7.940e-7, -4.416e-7, 3.524e-7
0.410, -7.959e-7, -4.428e-7, 3.530e-7
0.409, -7.952e-7, -4.419e-7, 3.533e-7
0.408, -7.965e-7, -4.456e-7, 3.509e-7
0.407, -7.989e-7, -4.453e-7, 3.536e-7
0.406, -7.980e-7, -4.444e-7, 3.536e-7
0.405, -8.004e-7, -4.474e-7, 3.530e-7
0.404, -7.992e-7, -4.456e-7, 3.536e-7
0.403, -8.004e-7, -4.465e-7, 3.539e-7
0.402, -8.001e-7, -4.474e-7, 3.527e-7
0.401, -8.010e-7, -4.489e-7, 3.521e-7
0.400, -8.013e-7, -4.477e-7, 3.536e-7
0.399, -8.013e-7, -4.492e-7, 3.521e-7
0.398, -8.044e-7, -4.508e-7, 3.536e-7
0.397, -8.032e-7, -4.489e-7, 3.542e-7
0.396, -8.056e-7, -4.520e-7, 3.536e-7
0.395, -8.074e-7, -4.529e-7, 3.545e-7
0.394, -8.062e-7, -4.517e-7, 3.545e-7
0.393, -8.047e-7, -4.529e-7, 3.518e-7
0.392, -8.065e-7, -4.538e-7, 3.527e-7
0.391, -8.071e-7, -4.532e-7, 3.539e-7
0.390, -8.090e-7, -4.553e-7, 3.536e-7
0.389, -8.096e-7, -4.566e-7, 3.530e-7
0.388, -8.062e-7, -4.541e-7, 3.521e-7
0.387, -8.114e-7, -4.578e-7, 3.536e-7
0.386, -8.120e-7, -4.587e-7, 3.533e-7
0.385, -8.096e-7, -4.569e-7, 3.527e-7
0.384, -8.111e-7, -4.584e-7, 3.527e-7
0.383, -8.139e-7, -4.599e-7, 3.539e-7
0.382, -8.139e-7, -4.593e-7, 3.545e-7
0.381, -8.139e-7, -4.602e-7, 3.536e-7
0.380, -8.172e-7, -4.621e-7, 3.552e-7
0.379, -8.160e-7, -4.611e-7, 3.548e-7
0.378, -8.175e-7, -4.630e-7, 3.545e-7
0.377, -8.184e-7, -4.654e-7, 3.530e-7
0.376, -8.193e-7, -4.630e-7, 3.564e-7
0.375, -8.197e-7, -4.648e-7, 3.548e-7
0.374, -8.197e-7, -4.657e-7, 3.539e-7
0.373, -8.206e-7, -4.654e-7, 3.552e-7
0.372, -8.212e-7, -4.669e-7, 3.542e-7
0.371, -8.227e-7, -4.672e-7, 3.555e-7
0.370, -8.255e-7, -4.682e-7, 3.573e-7
0.369, -8.230e-7, -4.679e-7, 3.552e-7
0.368, -8.267e-7, -4.706e-7, 3.561e-7
0.367, -8.245e-7, -4.688e-7, 3.558e-7
0.366, -8.258e-7, -4.709e-7, 3.548e-7
0.365, -8.276e-7, -4.715e-7, 3.561e-7
0.364, -8.291e-7, -4.718e-7, 3.573e-7
0.363, -8.273e-7, -4.727e-7, 3.545e-7
0.362, -8.309e-7, -4.740e-7, 3.570e-7
0.361, -8.300e-7, -4.727e-7, 3.573e-7
0.360, -8.306e-7, -4.749e-7, 3.558e-7
0.359, -8.340e-7, -4.764e-7, 3.576e-7
0.358, -8.343e-7, -4.761e-7, 3.582e-7
0.357, -8.337e-7, -4.770e-7, 3.567e-7
0.356, -8.361e-7, -4.791e-7, 3.570e-7
0.355, -8.370e-7, -4.788e-7, 3.582e-7
0.354, -8.374e-7, -4.791e-7, 3.582e-7
0.353, -8.404e-7, -4.816e-7, 3.588e-7
0.352, -8.410e-7, -4.813e-7, 3.597e-7
0.351, -8.401e-7, -4.813e-7, 3.588e-7
0.350, -8.432e-7, -4.834e-7, 3.597e-7
0.349, -8.416e-7, -4.828e-7, 3.588e-7
0.348, -8.432e-7, -4.856e-7, 3.576e-7
0.347, -8.450e-7, -4.856e-7, 3.594e-7
0.346, -8.459e-7, -4.859e-7, 3.600e-7
0.345, -8.447e-7, -4.871e-7, 3.576e-7
0.344, -8.468e-7, -4.874e-7, 3.594e-7
0.343, -8.508e-7, -4.889e-7, 3.619e-7
0.342, -8.490e-7, -4.901e-7, 3.588e-7
0.341, -8.520e-7, -4.911e-7, 3.610e-7
0.340, -8.532e-7, -4.914e-7, 3.619e-7
0.339, -8.529e-7, -4.917e-7, 3.613e-7
0.338, -8.547e-7, -4.929e-7, 3.619e-7
0.337, -8.551e-7, -4.926e-7, 3.625e-7
0.336, -8.547e-7, -4.947e-7, 3.600e-7
0.335, -8.587e-7, -4.956e-7, 3.631e-7
0.334, -8.587e-7, -4.965e-7, 3.622e-7
0.333, -8.609e-7, -4.975e-7, 3.634e-7
0.332, -8.612e-7, -4.981e-7, 3.631e-7
0.331, -8.599e-7, -4.968e-7, 3.631e-7
0.330, -8.599e-7, -4.984e-7, 3.616e-7
0.329, -8.666e-7, -5.005e-7, 3.661e-7
0.328, -8.648e-7, -5.008e-7, 3.640e-7
0.327, -8.660e-7, -5.017e-7, 3.643e-7
0.326, -8.663e-7, -5.033e-7, 3.631e-7
0.325, -8.691e-7, -5.033e-7, 3.658e-7
0.324, -8.676e-7, -5.042e-7, 3.634e-7
0.323, -8.691e-7, -5.054e-7, 3.637e-7
0.322, -8.737e-7, -5.063e-7, 3.674e-7
0.321, -8.724e-7, -5.075e-7, 3.649e-7
0.320, -8.752e-7, -5.088e-7, 3.664e-7
0.319, -8.767e-7, -5.091e-7, 3.677e-7
0.318, -8.776e-7, -5.118e-7, 3.658e-7
0.317, -8.782e-7, -5.115e-7, 3.667e-7
0.316, -8.804e-7, -5.124e-7, 3.680e-7
0.315, -8.798e-7, -5.136e-7, 3.661e-7
0.314, -8.831e-7, -5.136e-7, 3.695e-7
0.313, -8.831e-7, -5.145e-7, 3.686e-7
0.312, -8.853e-7, -5.161e-7, 3.692e-7
0.311, -8.859e-7, -5.179e-7, 3.680e-7
0.310, -8.853e-7, -5.164e-7, 3.689e-7
0.309, -8.877e-7, -5.197e-7, 3.680e-7
0.308, -8.892e-7, -5.185e-7, 3.707e-7
0.307, -8.914e-7, -5.203e-7, 3.710e-7
0.306, -8.911e-7, -5.213e-7, 3.698e-7
0.305, -8.950e-7, -5.234e-7, 3.716e-7
0.304, -8.923e-7, -5.213e-7, 3.710e-7
0.303, -8.975e-7, -5.261e-7, 3.713e-7
0.302, -8.969e-7, -5.246e-7, 3.722e-7
0.301, -8.984e-7, -5.252e-7, 3.732e-7
0.300, -8.984e-7, -5.264e-7, 3.719e-7
0.299, -9.008e-7, -5.286e-7, 3.722e-7
0.298, -9.024e-7, -5.286e-7, 3.738e-7
0.297, -9.020e-7, -5.295e-7, 3.725e-7
0.296, -9.051e-7, -5.307e-7, 3.744e-7
0.295, -9.060e-7, -5.316e-7, 3.744e-7
0.294, -9.063e-7, -5.326e-7, 3.738e-7
0.293, -9.109e-7, -5.347e-7, 3.762e-7
0.292, -9.097e-7, -5.347e-7, 3.750e-7
0.291, -9.112e-7, -5.365e-7, 3.747e-7
0.290, -9.106e-7, -5.371e-7, 3.735e-7
0.289, -9.121e-7, -5.356e-7, 3.765e-7
0.288, -9.146e-7, -5.393e-7, 3.753e-7
0.287, -9.173e-7, -5.399e-7, 3.774e-7
0.286, -9.182e-7, -5.405e-7, 3.777e-7
0.285, -9.167e-7, -5.408e-7, 3.759e-7
0.284, -9.222e-7, -5.432e-7, 3.790e-7
0.283, -9.222e-7, -5.429e-7, 3.793e-7
0.282, -9.231e-7, -5.460e-7, 3.771e-7
0.281, -9.252e-7, -5.463e-7, 3.790e-7
0.280, -9.249e-7, -5.460e-7, 3.790e-7
0.279, -9.286e-7, -5.487e-7, 3.799e-7
0.278, -9.295e-7, -5.496e-7, 3.799e-7
0.277, -9.295e-7, -5.490e-7, 3.805e-7
0.276, -9.310e-7, -5.506e-7, 3.805e-7
0.275, -9.316e-7, -5.512e-7, 3.805e-7
0.274, -9.332e-7, -5.518e-7, 3.814e-7
0.273, -9.356e-7, -5.539e-7, 3.817e-7
0.272, -9.374e-7, -5.548e-7, 3.826e-7
0.271, -9.393e-7, -5.557e-7, 3.835e-7
0.270, -9.399e-7, -5.564e-7, 3.835e-7
0.269, -9.414e-7, -5.585e-7, 3.829e-7
0.268, -9.432e-7, -5.582e-7, 3.851e-7
0.267, -9.439e-7, -5.591e-7, 3.848e-7
0.266, -9.445e-7, -5.603e-7, 3.841e-7
0.265, -9.463e-7, -5.600e-7, 3.863e-7
0.264, -9.487e-7, -5.628e-7, 3.860e-7
0.263, -9.490e-7, -5.637e-7, 3.854e-7
0.262, -9.500e-7, -5.637e-7, 3.863e-7
0.261, -9.539e-7, -5.658e-7, 3.881e-7
0.260, -9.533e-7, -5.655e-7, 3.878e-7
0.259, -9.542e-7, -5.658e-7, 3.884e-7
0.258, -9.548e-7, -5.676e-7, 3.872e-7
0.257, -9.582e-7, -5.695e-7, 3.887e-7
0.256, -9.588e-7, -5.692e-7, 3.896e-7
0.255, -9.600e-7, -5.713e-7, 3.887e-7
0.254, -9.640e-7, -5.731e-7, 3.909e-7
0.253, -9.625e-7, -5.722e-7, 3.902e-7
0.252, -9.677e-7, -5.756e-7, 3.921e-7
0.251, -9.692e-7, -5.771e-7, 3.921e-7
0.250, -9.686e-7, -5.759e-7, 3.927e-7
0.249, -9.692e-7, -5.777e-7, 3.915e-7
0.248, -9.704e-7, -5.774e-7, 3.930e-7
0.247, -9.728e-7, -5.786e-7, 3.942e-7
0.246, -9.756e-7, -5.808e-7, 3.948e-7
0.245, -9.765e-7, -5.817e-7, 3.948e-7
0.244, -9.753e-7, -5.808e-7, 3.945e-7
0.243, -9.793e-7, -5.841e-7, 3.951e-7
0.242, -9.799e-7, -5.838e-7, 3.960e-7
0.241, -9.802e-7, -5.841e-7, 3.960e-7
0.240, -9.823e-7, -5.863e-7, 3.960e-7
0.239, -9.878e-7, -5.884e-7, 3.994e-7
0.238, -9.844e-7, -5.866e-7, 3.979e-7
0.237, -9.847e-7, -5.878e-7, 3.970e-7
0.236, -9.893e-7, -5.899e-7, 3.994e-7
0.235, -9.884e-7, -5.896e-7, 3.988e-7
0.234, -9.927e-7, -5.918e-7, 4.009e-7
0.233, -9.921e-7, -5.924e-7, 3.997e-7
0.232, -9.933e-7, -5.924e-7, 4.009e-7
0.231, -9.927e-7, -5.939e-7, 3.988e-7
0.230, -9.963e-7, -5.942e-7, 4.021e-7
0.229, -9.970e-7, -5.954e-7, 4.015e-7
0.228, -1.001e-6, -5.985e-7, 4.025e-7
0.227, -1.001e-6, -5.960e-7, 4.052e-7
0.226, -1.002e-6, -5.979e-7, 4.037e-7
0.225, -1.004e-6, -6.000e-7, 4.037e-7
0.224, -1.004e-6, -5.994e-7, 4.043e-7
0.223, -1.007e-6, -6.012e-7, 4.061e-7
0.222, -1.008e-6, -6.027e-7, 4.052e-7
0.221, -1.009e-6, -6.024e-7, 4.061e-7
0.220, -1.010e-6, -6.040e-7, 4.064e-7
0.219, -1.011e-6, -6.043e-7, 4.070e-7
0.218, -1.015e-6, -6.061e-7, 4.089e-7
0.217, -1.015e-6, -6.067e-7, 4.086e-7
0.216, -1.016e-6, -6.082e-7, 4.076e-7
0.215, -1.019e-6, -6.095e-7, 4.098e-7
0.214, -1.019e-6, -6.085e-7, 4.104e-7
0.213, -1.022e-6, -6.098e-7, 4.119e-7
0.212, -1.021e-6, -6.107e-7, 4.107e-7
0.211, -1.024e-6, -6.107e-7, 4.134e-7
0.210, -1.024e-6, -6.122e-7, 4.116e-7
0.209, -1.027e-6, -6.137e-7, 4.131e-7
0.208, -1.028e-6, -6.137e-7, 4.140e-7
0.207, -1.027e-6, -6.146e-7, 4.128e-7
0.206, -1.032e-6, -6.153e-7, 4.165e-7
0.205, -1.030e-6, -6.156e-7, 4.144e-7
0.204, -1.033e-6, -6.177e-7, 4.156e-7
0.203, -1.033e-6, -6.165e-7, 4.165e-7
0.202, -1.033e-6, -6.174e-7, 4.156e-7
0.201, -1.037e-6, -6.192e-7, 4.177e-7
0.200, -1.038e-6, -6.204e-7, 4.177e-7
0.199, -1.038e-6, -6.198e-7, 4.177e-7
0.198, -1.039e-6, -6.204e-7, 4.183e-7
0.197, -1.042e-6, -6.220e-7, 4.198e-7
0.196, -1.039e-6, -6.201e-7, 4.192e-7
0.195, -1.043e-6, -6.223e-7, 4.205e-7
0.194, -1.045e-6, -6.223e-7, 4.226e-7
0.193, -1.045e-6, -6.232e-7, 4.217e-7
0.192, -1.047e-6, -6.247e-7, 4.220e-7
0.191, -1.051e-6, -6.268e-7, 4.244e-7
0.190, -1.049e-6, -6.259e-7, 4.232e-7
0.189, -1.051e-6, -6.272e-7, 4.238e-7
0.188, -1.051e-6, -6.259e-7, 4.250e-7
0.187, -1.052e-6, -6.272e-7, 4.250e-7
0.186, -1.054e-6, -6.284e-7, 4.259e-7
0.185, -1.056e-6, -6.287e-7, 4.275e-7
0.184, -1.054e-6, -6.287e-7, 4.253e-7
0.183, -1.056e-6, -6.305e-7, 4.259e-7
0.182, -1.059e-6, -6.308e-7, 4.281e-7
0.181, -1.061e-6, -6.320e-7, 4.293e-7
0.180, -1.060e-6, -6.314e-7, 4.281e-7
0.179, -1.062e-6, -6.317e-7, 4.305e-7
0.178, -1.062e-6, -6.317e-7, 4.299e-7
0.177, -1.062e-6, -6.326e-7, 4.293e-7
0.176, -1.066e-6, -6.345e-7, 4.311e-7
0.175, -1.066e-6, -6.345e-7, 4.314e-7
0.174, -1.066e-6, -6.348e-7, 4.311e-7
0.173, -1.067e-6, -6.354e-7, 4.314e-7
0.172, -1.069e-6, -6.354e-7, 4.339e-7
0.171, -1.067e-6, -6.354e-7, 4.321e-7
0.170, -1.071e-6, -6.369e-7, 4.339e-7
0.169, -1.071e-6, -6.357e-7, 4.357e-7
0.168, -1.072e-6, -6.360e-7, 4.360e-7
0.167, -1.073e-6, -6.372e-7, 4.357e-7
0.166, -1.073e-6, -6.366e-7, 4.366e-7
0.165, -1.078e-6, -6.387e-7, 4.388e-7
0.164, -1.077e-6, -6.387e-7, 4.385e-7
0.163, -1.076e-6, -6.378e-7, 4.382e-7
0.162, -1.077e-6, -6.387e-7, 4.378e-7
0.161, -1.078e-6, -6.394e-7, 4.385e-7
0.160, -1.081e-6, -6.403e-7, 4.409e-7
0.159, -1.080e-6, -6.403e-7, 4.397e-7
0.158, -1.082e-6, -6.406e-7, 4.412e-7
0.157, -1.080e-6, -6.406e-7, 4.397e-7
0.156, -1.081e-6, -6.403e-7, 4.403e-7
0.155, -1.082e-6, -6.403e-7, 4.415e-7
0.154, -1.083e-6, -6.409e-7, 4.418e-7
0.153, -1.086e-6, -6.421e-7, 4.436e-7
0.152, -1.083e-6, -6.397e-7, 4.436e-7
0.151, -1.084e-6, -6.403e-7, 4.440e-7
0.150, -1.087e-6, -6.424e-7, 4.446e-7
0.149, -1.088e-6, -6.424e-7, 4.461e-7
0.148, -1.086e-6, -6.412e-7, 4.449e-7
0.147, -1.089e-6, -6.430e-7, 4.461e-7
0.146, -1.090e-6, -6.430e-7, 4.470e-7
0.145, -1.090e-6, -6.424e-7, 4.473e-7
0.144, -1.091e-6, -6.430e-7, 4.476e-7
0.143, -1.089e-6, -6.415e-7, 4.476e-7
0.142, -1.092e-6, -6.433e-7, 4.491e-7
0.141, -1.090e-6, -6.418e-7, 4.485e-7
0.140, -1.092e-6, -6.439e-7, 4.482e-7
0.139, -1.092e-6, -6.421e-7, 4.497e-7
0.138, -1.092e-6, -6.433e-7, 4.488e-7
0.137, -1.093e-6, -6.427e-7, 4.501e-7
0.136, -1.093e-6, -6.421e-7, 4.507e-7
0.135, -1.093e-6, -6.427e-7, 4.507e-7
0.134, -1.093e-6, -6.427e-7, 4.504e-7
0.133, -1.094e-6, -6.424e-7, 4.516e-7
0.132, -1.095e-6, -6.430e-7, 4.522e-7
0.131, -1.096e-6, -6.427e-7, 4.531e-7
0.130, -1.096e-6, -6.436e-7, 4.525e-7
0.129, -1.096e-6, -6.427e-7, 4.528e-7
0.128, -1.095e-6, -6.424e-7, 4.528e-7
0.127, -1.095e-6, -6.421e-7, 4.525e-7
0.126, -1.096e-6, -6.430e-7, 4.534e-7
0.125, -1.097e-6, -6.424e-7, 4.546e-7
0.124, -1.096e-6, -6.415e-7, 4.549e-7
0.123, -1.097e-6, -6.418e-7, 4.555e-7
0.122, -1.099e-6, -6.433e-7, 4.559e-7
0.121, -1.098e-6, -6.412e-7, 4.565e-7
0.120, -1.098e-6, -6.421e-7, 4.562e-7
0.119, -1.099e-6, -6.412e-7, 4.577e-7
0.118, -1.097e-6, -6.406e-7, 4.568e-7
0.117, -1.099e-6, -6.421e-7, 4.571e-7
0.116, -1.099e-6, -6.403e-7, 4.586e-7
0.115, -1.098e-6, -6.391e-7, 4.592e-7
0.114, -1.100e-6, -6.406e-7, 4.592e-7
0.113, -1.099e-6, -6.400e-7, 4.595e-7
0.112, -1.098e-6, -6.397e-7, 4.583e-7
0.111, -1.097e-6, -6.394e-7, 4.580e-7
0.110, -1.100e-6, -6.397e-7, 4.601e-7
0.109, -1.100e-6, -6.394e-7, 4.607e-7
0.108, -1.099e-6, -6.391e-7, 4.595e-7
0.107, -1.097e-6, -6.375e-7, 4.592e-7
0.106, -1.097e-6, -6.369e-7, 4.601e-7
0.105, -1.099e-6, -6.391e-7, 4.604e-7
0.104, -1.098e-6, -6.366e-7, 4.613e-7
0.103, -1.095e-6, -6.360e-7, 4.589e-7
0.102, -1.098e-6, -6.369e-7, 4.610e-7
0.101, -1.096e-6, -6.354e-7, 4.604e-7
0.100, -1.097e-6, -6.354e-7, 4.617e-7
0.099, -1.096e-6, -6.348e-7, 4.617e-7
0.098, -1.097e-6, -6.348e-7, 4.620e-7
0.097, -1.096e-6, -6.342e-7, 4.613e-7
0.096, -1.096e-6, -6.345e-7, 4.613e-7
0.095, -1.096e-6, -6.333e-7, 4.626e-7
0.094, -1.095e-6, -6.339e-7, 4.613e-7
0.093, -1.094e-6, -6.323e-7, 4.617e-7
0.092, -1.096e-6, -6.333e-7, 4.626e-7
0.091, -1.094e-6, -6.320e-7, 4.623e-7
0.090, -1.094e-6, -6.308e-7, 4.635e-7
0.089, -1.094e-6, -6.311e-7, 4.626e-7
0.088, -1.092e-6, -6.299e-7, 4.626e-7
0.087, -1.093e-6, -6.296e-7, 4.632e-7
0.086, -1.091e-6, -6.281e-7, 4.632e-7
0.085, -1.092e-6, -6.293e-7, 4.623e-7
0.084, -1.090e-6, -6.284e-7, 4.620e-7
0.083, -1.092e-6, -6.281e-7, 4.635e-7
0.082, -1.090e-6, -6.272e-7, 4.626e-7
0.081, -1.091e-6, -6.268e-7, 4.644e-7
0.080, -1.088e-6, -6.247e-7, 4.632e-7
0.079, -1.089e-6, -6.262e-7, 4.629e-7
0.078, -1.088e-6, -6.253e-7, 4.629e-7
0.077, -1.087e-6, -6.235e-7, 4.632e-7
0.076, -1.088e-6, -6.244e-7, 4.635e-7
0.075, -1.085e-6, -6.232e-7, 4.617e-7
0.074, -1.087e-6, -6.241e-7, 4.626e-7
0.073, -1.085e-6, -6.220e-7, 4.632e-7
0.072, -1.083e-6, -6.217e-7, 4.617e-7
0.071, -1.085e-6, -6.211e-7, 4.638e-7
0.070, -1.082e-6, -6.201e-7, 4.617e-7
0.069, -1.081e-6, -6.201e-7, 4.604e-7
0.068, -1.079e-6, -6.189e-7, 4.604e-7
0.067, -1.079e-6, -6.177e-7, 4.613e-7
0.066, -1.079e-6, -6.174e-7, 4.620e-7
0.065, -1.078e-6, -6.159e-7, 4.626e-7
0.064, -1.078e-6, -6.168e-7, 4.610e-7
0.063, -1.079e-6, -6.165e-7, 4.623e-7
0.062, -1.077e-6, -6.156e-7, 4.610e-7
0.061, -1.074e-6, -6.131e-7, 4.610e-7
0.060, -1.075e-6, -6.143e-7, 4.610e-7
0.059, -1.076e-6, -6.128e-7, 4.629e-7
0.058, -1.073e-6, -6.131e-7, 4.595e-7
0.057, -1.072e-6, -6.116e-7, 4.601e-7
0.056, -1.072e-6, -6.116e-7, 4.601e-7
0.055, -1.072e-6, -6.119e-7, 4.601e-7
0.054, -1.069e-6, -6.095e-7, 4.592e-7
0.053, -1.070e-6, -6.098e-7, 4.604e-7
0.052, -1.068e-6, -6.095e-7, 4.586e-7
0.051, -1.068e-6, -6.088e-7, 4.595e-7
0.050, -1.067e-6, -6.076e-7, 4.598e-7
0.049, -1.066e-6, -6.079e-7, 4.583e-7
0.048, -1.065e-6, -6.067e-7, 4.580e-7
0.047, -1.064e-6, -6.055e-7, 4.589e-7
0.046, -1.062e-6, -6.052e-7, 4.568e-7
0.045, -1.062e-6, -6.040e-7, 4.580e-7
0.044, -1.062e-6, -6.040e-7, 4.577e-7
0.043, -1.060e-6, -6.021e-7, 4.577e-7
0.042, -1.059e-6, -6.024e-7, 4.568e-7
0.041, -1.058e-6, -6.012e-7, 4.571e-7
0.040, -1.057e-6, -6.009e-7, 4.559e-7
0.039, -1.055e-6, -5.997e-7, 4.549e-7
0.038, -1.056e-6, -6.003e-7, 4.559e-7
0.037, -1.055e-6, -5.991e-7, 4.555e-7
0.036, -1.053e-6, -5.988e-7, 4.543e-7
0.035, -1.052e-6, -5.976e-7, 4.543e-7
0.034, -1.051e-6, -5.963e-7, 4.543e-7
0.033, -1.053e-6, -5.979e-7, 4.555e-7
0.032, -1.050e-6, -5.963e-7, 4.540e-7
0.031, -1.049e-6, -5.954e-7, 4.534e-7
0.030, -1.048e-6, -5.942e-7, 4.534e-7
0.029, -1.045e-6, -5.924e-7, 4.522e-7
0.028, -1.045e-6, -5.927e-7, 4.522e-7
0.027, -1.045e-6, -5.924e-7, 4.522e-7
0.026, -1.044e-6, -5.918e-7, 4.525e-7
0.025, -1.042e-6, -5.918e-7, 4.504e-7
0.024, -1.042e-6, -5.908e-7, 4.510e-7
0.023, -1.040e-6, -5.890e-7, 4.513e-7
0.022, -1.039e-6, -5.896e-7, 4.497e-7
0.021, -1.040e-6, -5.887e-7, 4.510e-7
0.020, -1.039e-6, -5.881e-7, 4.507e-7
0.019, -1.035e-6, -5.869e-7, 4.482e-7
0.018, -1.035e-6, -5.863e-7, 4.491e-7
0.017, -1.035e-6, -5.869e-7, 4.485e-7
0.016, -1.033e-6, -5.853e-7, 4.479e-7
0.015, -1.032e-6, -5.850e-7, 4.473e-7
0.014, -1.031e-6, -5.841e-7, 4.470e-7
0.013, -1.030e-6, -5.838e-7, 4.461e-7
0.012, -1.029e-6, -5.826e-7, 4.467e-7
0.011, -1.028e-6, -5.820e-7, 4.458e-7
0.010, -1.028e-6, -5.814e-7, 4.467e-7
0.009, -1.026e-6, -5.811e-7, 4.452e-7
0.008, -1.025e-6, -5.808e-7, 4.440e-7
0.007, -1.024e-6, -5.805e-7, 4.436e-7
0.006, -1.023e-6, -5.795e-7, 4.430e-7
0.005, -1.023e-6, -5.805e-7, 4.427e-7
0.004, -1.020e-6, -5.786e-7, 4.412e-7
0.003, -1.020e-6, -5.777e-7, 4.418e-7
0.002, -1.022e-6, -5.783e-7, 4.440e-7
0.001, -1.019e-6, -5.780e-7, 4.412e-7
-0.000, -1.017e-6, -5.768e-7, 4.406e-7
-0.001, -1.016e-6, -5.753e-7, 4.409e-7
-0.002, -1.016e-6, -5.756e-7, 4.403e-7
-0.003, -1.014e-6, -5.747e-7, 4.394e-7
-0.004, -1.015e-6, -5.747e-7, 4.400e-7
-0.005, -1.013e-6, -5.734e-7, 4.394e-7
-0.006, -1.012e-6, -5.734e-7, 4.385e-7
-0.007, -1.012e-6, -5.734e-7, 4.388e-7
-0.008, -1.013e-6, -5.741e-7, 4.385e-7
-0.009, -1.010e-6, -5.725e-7, 4.378e-7
-0.010, -1.009e-6, -5.713e-7, 4.375e-7
-0.011, -1.009e-6, -5.716e-7, 4.369e-7
-0.012, -1.010e-6, -5.725e-7, 4.375e-7
-0.013, -1.007e-6, -5.698e-7, 4.369e-7
-0.014, -1.004e-6, -5.686e-7, 4.354e-7
-0.015, -1.006e-6, -5.701e-7, 4.360e-7
-0.016, -1.002e-6, -5.686e-7, 4.339e-7
-0.017, -1.003e-6, -5.686e-7, 4.348e-7
-0.018, -1.004e-6, -5.695e-7, 4.342e-7
-0.019, -1.001e-6, -5.673e-7, 4.336e-7
-0.020, -1.001e-6, -5.673e-7, 4.333e-7
-0.021, -1.000e-6, -5.673e-7, 4.327e-7
-0.022, -9.985e-7, -5.664e-7, 4.320e-7
-0.023, -9.966e-7, -5.664e-7, 4.302e-7
-0.024, -9.976e-7, -5.661e-7, 4.314e-7
-0.025, -9.951e-7, -5.655e-7, 4.296e-7
-0.026, -9.945e-7, -5.634e-7, 4.311e-7
-0.027, -9.948e-7, -5.646e-7, 4.302e-7
-0.028, -9.951e-7, -5.640e-7, 4.311e-7
-0.029, -9.936e-7, -5.640e-7, 4.296e-7
-0.030, -9.936e-7, -5.646e-7, 4.290e-7
-0.031, -9.927e-7, -5.640e-7, 4.287e-7
-0.032, -9.905e-7, -5.622e-7, 4.284e-7
-0.033, -9.915e-7, -5.631e-7, 4.284e-7
-0.034, -9.875e-7, -5.609e-7, 4.266e-7
-0.035, -9.893e-7, -5.631e-7, 4.263e-7
-0.036, -9.899e-7, -5.625e-7, 4.275e-7
-0.037, -9.875e-7, -5.612e-7, 4.263e-7
-0.038, -9.878e-7, -5.615e-7, 4.263e-7
-0.039, -9.866e-7, -5.606e-7, 4.259e-7
-0.040, -9.872e-7, -5.619e-7, 4.253e-7
-0.041, -9.851e-7, -5.606e-7, 4.244e-7
-0.042, -9.844e-7, -5.603e-7, 4.241e-7
-0.043, -9.847e-7, -5.600e-7, 4.247e-7
-0.044, -9.829e-7, -5.597e-7, 4.232e-7
-0.045, -9.847e-7, -5.600e-7, 4.247e-7
-0.046, -9.829e-7, -5.597e-7, 4.232e-7
-0.047, -9.820e-7, -5.591e-7, 4.229e-7
-0.048, -9.820e-7, -5.591e-7, 4.229e-7
-0.049, -9.796e-7, -5.585e-7, 4.211e-7
-0.050, -9.793e-7, -5.582e-7, 4.211e-7
