Feb. 28, 2018   11:41:23
Square Wave Voltammetry
File: c:\users\electrochemist\desktop\2018\28022018_unbuffered_9,2\19_e5_9,2_0118_ph6,05_4.txt
Data Source:  Experiment
Instrument Model:  CHI1040A
Header: 
Note: 

Init E (V) = 0.5
Final E (V) = -0.05
Incr E (V) = 0.001
Amplitude (V) = 0.1
Frequency (Hz) = 150
Quiet Time (sec) = 0
Sensitivity (A/V) = 1e-6

Difference:

Forward:
Ep = 0.158V
ip = -5.497e-10A
Ah = -2.234e-11VA

Reverse:

Potential/V, Diff(i/A), For(i/A), Rev(i/A)

0.499, -7.040e-7, -1.670e-7, 5.370e-7
0.498, -8.529e-7, -3.827e-7, 4.702e-7
0.497, -8.435e-7, -3.977e-7, 4.458e-7
0.496, -8.361e-7, -4.029e-7, 4.333e-7
0.495, -8.261e-7, -4.029e-7, 4.232e-7
0.494, -8.215e-7, -4.068e-7, 4.147e-7
0.493, -8.178e-7, -4.080e-7, 4.098e-7
0.492, -8.163e-7, -4.090e-7, 4.073e-7
0.491, -8.117e-7, -4.102e-7, 4.015e-7
0.490, -8.105e-7, -4.117e-7, 3.988e-7
0.489, -8.056e-7, -4.105e-7, 3.951e-7
0.488, -8.047e-7, -4.129e-7, 3.918e-7
0.487, -8.044e-7, -4.123e-7, 3.921e-7
0.486, -7.995e-7, -4.123e-7, 3.872e-7
0.485, -7.971e-7, -4.129e-7, 3.841e-7
0.484, -7.968e-7, -4.138e-7, 3.829e-7
0.483, -7.962e-7, -4.135e-7, 3.826e-7
0.482, -7.937e-7, -4.145e-7, 3.793e-7
0.481, -7.940e-7, -4.148e-7, 3.793e-7
0.480, -7.919e-7, -4.141e-7, 3.777e-7
0.479, -7.922e-7, -4.157e-7, 3.765e-7
0.478, -7.946e-7, -4.172e-7, 3.774e-7
0.477, -7.897e-7, -4.145e-7, 3.753e-7
0.476, -7.885e-7, -4.157e-7, 3.729e-7
0.475, -7.907e-7, -4.172e-7, 3.735e-7
0.474, -7.888e-7, -4.175e-7, 3.713e-7
0.473, -7.861e-7, -4.169e-7, 3.692e-7
0.472, -7.901e-7, -4.190e-7, 3.710e-7
0.471, -7.846e-7, -4.166e-7, 3.680e-7
0.470, -7.849e-7, -4.172e-7, 3.677e-7
0.469, -7.852e-7, -4.181e-7, 3.671e-7
0.468, -7.827e-7, -4.169e-7, 3.658e-7
0.467, -7.855e-7, -4.193e-7, 3.661e-7
0.466, -7.843e-7, -4.184e-7, 3.658e-7
0.465, -7.824e-7, -4.187e-7, 3.637e-7
0.464, -7.833e-7, -4.196e-7, 3.637e-7
0.463, -7.830e-7, -4.184e-7, 3.646e-7
0.462, -7.827e-7, -4.196e-7, 3.631e-7
0.461, -7.818e-7, -4.203e-7, 3.616e-7
0.460, -7.821e-7, -4.203e-7, 3.619e-7
0.459, -7.803e-7, -4.190e-7, 3.613e-7
0.458, -7.833e-7, -4.206e-7, 3.628e-7
0.457, -7.827e-7, -4.215e-7, 3.613e-7
0.456, -7.827e-7, -4.224e-7, 3.603e-7
0.455, -7.830e-7, -4.233e-7, 3.597e-7
0.454, -7.830e-7, -4.230e-7, 3.600e-7
0.453, -7.806e-7, -4.215e-7, 3.591e-7
0.452, -7.821e-7, -4.236e-7, 3.585e-7
0.451, -7.846e-7, -4.242e-7, 3.603e-7
0.450, -7.806e-7, -4.239e-7, 3.567e-7
0.449, -7.827e-7, -4.251e-7, 3.576e-7
0.448, -7.840e-7, -4.251e-7, 3.588e-7
0.447, -7.830e-7, -4.251e-7, 3.579e-7
0.446, -7.833e-7, -4.273e-7, 3.561e-7
0.445, -7.827e-7, -4.251e-7, 3.576e-7
0.444, -7.843e-7, -4.273e-7, 3.570e-7
0.443, -7.827e-7, -4.264e-7, 3.564e-7
0.442, -7.818e-7, -4.279e-7, 3.539e-7
0.441, -7.830e-7, -4.276e-7, 3.555e-7
0.440, -7.846e-7, -4.288e-7, 3.558e-7
0.439, -7.846e-7, -4.291e-7, 3.555e-7
0.438, -7.846e-7, -4.297e-7, 3.548e-7
0.437, -7.833e-7, -4.297e-7, 3.536e-7
0.436, -7.858e-7, -4.297e-7, 3.561e-7
0.435, -7.833e-7, -4.294e-7, 3.539e-7
0.434, -7.873e-7, -4.331e-7, 3.542e-7
0.433, -7.864e-7, -4.312e-7, 3.552e-7
0.432, -7.849e-7, -4.309e-7, 3.539e-7
0.431, -7.858e-7, -4.322e-7, 3.536e-7
0.430, -7.852e-7, -4.315e-7, 3.536e-7
0.429, -7.879e-7, -4.322e-7, 3.558e-7
0.428, -7.888e-7, -4.346e-7, 3.542e-7
0.427, -7.894e-7, -4.343e-7, 3.552e-7
0.426, -7.864e-7, -4.328e-7, 3.536e-7
0.425, -7.873e-7, -4.355e-7, 3.518e-7
0.424, -7.897e-7, -4.352e-7, 3.545e-7
0.423, -7.888e-7, -4.355e-7, 3.533e-7
0.422, -7.876e-7, -4.352e-7, 3.524e-7
0.421, -7.897e-7, -4.367e-7, 3.530e-7
0.420, -7.885e-7, -4.364e-7, 3.521e-7
0.419, -7.910e-7, -4.386e-7, 3.524e-7
0.418, -7.925e-7, -4.392e-7, 3.533e-7
0.417, -7.904e-7, -4.380e-7, 3.524e-7
0.416, -7.934e-7, -4.398e-7, 3.536e-7
0.415, -7.931e-7, -4.401e-7, 3.530e-7
0.414, -7.928e-7, -4.410e-7, 3.518e-7
0.413, -7.928e-7, -4.404e-7, 3.524e-7
0.412, -7.946e-7, -4.407e-7, 3.539e-7
0.411, -7.937e-7, -4.410e-7, 3.527e-7
0.410, -7.931e-7, -4.428e-7, 3.503e-7
0.409, -7.962e-7, -4.434e-7, 3.527e-7
0.408, -7.943e-7, -4.425e-7, 3.518e-7
0.407, -7.983e-7, -4.450e-7, 3.533e-7
0.406, -7.949e-7, -4.438e-7, 3.512e-7
0.405, -7.974e-7, -4.447e-7, 3.527e-7
0.404, -7.983e-7, -4.462e-7, 3.521e-7
0.403, -8.001e-7, -4.465e-7, 3.536e-7
0.402, -7.968e-7, -4.459e-7, 3.509e-7
0.401, -8.007e-7, -4.474e-7, 3.533e-7
0.400, -7.995e-7, -4.483e-7, 3.512e-7
0.399, -7.998e-7, -4.474e-7, 3.524e-7
0.398, -8.004e-7, -4.495e-7, 3.509e-7
0.397, -8.026e-7, -4.489e-7, 3.536e-7
0.396, -8.029e-7, -4.499e-7, 3.530e-7
0.395, -8.032e-7, -4.517e-7, 3.515e-7
0.394, -8.041e-7, -4.523e-7, 3.518e-7
0.393, -8.026e-7, -4.502e-7, 3.524e-7
0.392, -8.044e-7, -4.526e-7, 3.518e-7
0.391, -8.065e-7, -4.532e-7, 3.533e-7
0.390, -8.068e-7, -4.520e-7, 3.548e-7
0.389, -8.056e-7, -4.541e-7, 3.515e-7
0.388, -8.084e-7, -4.544e-7, 3.539e-7
0.387, -8.065e-7, -4.541e-7, 3.524e-7
0.386, -8.084e-7, -4.566e-7, 3.518e-7
0.385, -8.087e-7, -4.563e-7, 3.524e-7
0.384, -8.087e-7, -4.560e-7, 3.527e-7
0.383, -8.099e-7, -4.581e-7, 3.518e-7
0.382, -8.123e-7, -4.590e-7, 3.533e-7
0.381, -8.108e-7, -4.584e-7, 3.524e-7
0.380, -8.126e-7, -4.602e-7, 3.524e-7
0.379, -8.142e-7, -4.593e-7, 3.548e-7
0.378, -8.163e-7, -4.611e-7, 3.552e-7
0.377, -8.160e-7, -4.630e-7, 3.530e-7
0.376, -8.181e-7, -4.633e-7, 3.548e-7
0.375, -8.172e-7, -4.639e-7, 3.533e-7
0.374, -8.184e-7, -4.651e-7, 3.533e-7
0.373, -8.193e-7, -4.654e-7, 3.539e-7
0.372, -8.178e-7, -4.630e-7, 3.548e-7
0.371, -8.221e-7, -4.663e-7, 3.558e-7
0.370, -8.209e-7, -4.657e-7, 3.552e-7
0.369, -8.224e-7, -4.679e-7, 3.545e-7
0.368, -8.245e-7, -4.688e-7, 3.558e-7
0.367, -8.242e-7, -4.688e-7, 3.555e-7
0.366, -8.255e-7, -4.697e-7, 3.558e-7
0.365, -8.270e-7, -4.712e-7, 3.558e-7
0.364, -8.264e-7, -4.703e-7, 3.561e-7
0.363, -8.270e-7, -4.709e-7, 3.561e-7
0.362, -8.285e-7, -4.740e-7, 3.545e-7
0.361, -8.306e-7, -4.737e-7, 3.570e-7
0.360, -8.291e-7, -4.737e-7, 3.555e-7
0.359, -8.322e-7, -4.761e-7, 3.561e-7
0.358, -8.319e-7, -4.758e-7, 3.561e-7
0.357, -8.328e-7, -4.764e-7, 3.564e-7
0.356, -8.346e-7, -4.770e-7, 3.576e-7
0.355, -8.358e-7, -4.782e-7, 3.576e-7
0.354, -8.364e-7, -4.785e-7, 3.579e-7
0.353, -8.367e-7, -4.791e-7, 3.576e-7
0.352, -8.416e-7, -4.813e-7, 3.603e-7
0.351, -8.398e-7, -4.813e-7, 3.585e-7
0.350, -8.401e-7, -4.825e-7, 3.576e-7
0.349, -8.398e-7, -4.816e-7, 3.582e-7
0.348, -8.419e-7, -4.834e-7, 3.585e-7
0.347, -8.413e-7, -4.837e-7, 3.576e-7
0.346, -8.450e-7, -4.856e-7, 3.594e-7
0.345, -8.459e-7, -4.865e-7, 3.594e-7
0.344, -8.456e-7, -4.865e-7, 3.591e-7
0.343, -8.450e-7, -4.868e-7, 3.582e-7
0.342, -8.468e-7, -4.868e-7, 3.600e-7
0.341, -8.480e-7, -4.883e-7, 3.597e-7
0.340, -8.486e-7, -4.892e-7, 3.594e-7
0.339, -8.514e-7, -4.911e-7, 3.603e-7
0.338, -8.541e-7, -4.920e-7, 3.622e-7
0.337, -8.532e-7, -4.929e-7, 3.603e-7
0.336, -8.535e-7, -4.929e-7, 3.606e-7
0.335, -8.554e-7, -4.950e-7, 3.603e-7
0.334, -8.572e-7, -4.941e-7, 3.631e-7
0.333, -8.575e-7, -4.944e-7, 3.631e-7
0.332, -8.581e-7, -4.962e-7, 3.619e-7
0.331, -8.599e-7, -4.978e-7, 3.622e-7
0.330, -8.596e-7, -4.984e-7, 3.613e-7
0.329, -8.612e-7, -4.993e-7, 3.619e-7
0.328, -8.654e-7, -5.005e-7, 3.649e-7
0.327, -8.651e-7, -5.005e-7, 3.646e-7
0.326, -8.657e-7, -5.017e-7, 3.640e-7
0.325, -8.682e-7, -5.033e-7, 3.649e-7
0.324, -8.685e-7, -5.048e-7, 3.637e-7
0.323, -8.682e-7, -5.036e-7, 3.646e-7
0.322, -8.694e-7, -5.054e-7, 3.640e-7
0.321, -8.700e-7, -5.051e-7, 3.649e-7
0.320, -8.728e-7, -5.066e-7, 3.661e-7
0.319, -8.758e-7, -5.081e-7, 3.677e-7
0.318, -8.731e-7, -5.072e-7, 3.658e-7
0.317, -8.767e-7, -5.106e-7, 3.661e-7
0.316, -8.773e-7, -5.106e-7, 3.667e-7
0.315, -8.755e-7, -5.106e-7, 3.649e-7
0.314, -8.792e-7, -5.127e-7, 3.664e-7
0.313, -8.810e-7, -5.118e-7, 3.692e-7
0.312, -8.810e-7, -5.124e-7, 3.686e-7
0.311, -8.834e-7, -5.164e-7, 3.671e-7
0.310, -8.853e-7, -5.158e-7, 3.695e-7
0.309, -8.840e-7, -5.161e-7, 3.680e-7
0.308, -8.865e-7, -5.179e-7, 3.686e-7
0.307, -8.874e-7, -5.179e-7, 3.695e-7
0.306, -8.886e-7, -5.194e-7, 3.692e-7
0.305, -8.908e-7, -5.213e-7, 3.695e-7
0.304, -8.923e-7, -5.222e-7, 3.701e-7
0.303, -8.926e-7, -5.231e-7, 3.695e-7
0.302, -8.941e-7, -5.228e-7, 3.713e-7
0.301, -8.975e-7, -5.252e-7, 3.722e-7
0.300, -8.956e-7, -5.246e-7, 3.710e-7
0.299, -8.981e-7, -5.280e-7, 3.701e-7
0.298, -8.993e-7, -5.264e-7, 3.729e-7
0.297, -9.011e-7, -5.277e-7, 3.735e-7
0.296, -8.999e-7, -5.280e-7, 3.719e-7
0.295, -9.042e-7, -5.307e-7, 3.735e-7
0.294, -9.024e-7, -5.304e-7, 3.719e-7
0.293, -9.066e-7, -5.326e-7, 3.741e-7
0.292, -9.063e-7, -5.319e-7, 3.744e-7
0.291, -9.057e-7, -5.332e-7, 3.725e-7
0.290, -9.109e-7, -5.365e-7, 3.744e-7
0.289, -9.115e-7, -5.362e-7, 3.753e-7
0.288, -9.097e-7, -5.353e-7, 3.744e-7
0.287, -9.124e-7, -5.374e-7, 3.750e-7
0.286, -9.149e-7, -5.374e-7, 3.774e-7
0.285, -9.161e-7, -5.405e-7, 3.756e-7
0.284, -9.143e-7, -5.402e-7, 3.741e-7
0.283, -9.201e-7, -5.426e-7, 3.774e-7
0.282, -9.201e-7, -5.429e-7, 3.771e-7
0.281, -9.173e-7, -5.429e-7, 3.744e-7
0.280, -9.246e-7, -5.448e-7, 3.799e-7
0.279, -9.252e-7, -5.451e-7, 3.802e-7
0.278, -9.255e-7, -5.484e-7, 3.771e-7
0.277, -9.274e-7, -5.478e-7, 3.796e-7
0.276, -9.271e-7, -5.481e-7, 3.790e-7
0.275, -9.307e-7, -5.503e-7, 3.805e-7
0.274, -9.310e-7, -5.493e-7, 3.817e-7
0.273, -9.329e-7, -5.527e-7, 3.802e-7
0.272, -9.335e-7, -5.530e-7, 3.805e-7
0.271, -9.368e-7, -5.539e-7, 3.829e-7
0.270, -9.359e-7, -5.542e-7, 3.817e-7
0.269, -9.374e-7, -5.557e-7, 3.817e-7
0.268, -9.405e-7, -5.567e-7, 3.838e-7
0.267, -9.405e-7, -5.576e-7, 3.829e-7
0.266, -9.426e-7, -5.585e-7, 3.841e-7
0.265, -9.429e-7, -5.600e-7, 3.829e-7
0.264, -9.439e-7, -5.603e-7, 3.835e-7
0.263, -9.448e-7, -5.612e-7, 3.835e-7
0.262, -9.466e-7, -5.618e-7, 3.848e-7
0.261, -9.506e-7, -5.646e-7, 3.860e-7
0.260, -9.524e-7, -5.661e-7, 3.863e-7
0.259, -9.533e-7, -5.658e-7, 3.875e-7
0.258, -9.533e-7, -5.661e-7, 3.872e-7
0.257, -9.561e-7, -5.683e-7, 3.878e-7
0.256, -9.570e-7, -5.686e-7, 3.884e-7
0.255, -9.573e-7, -5.686e-7, 3.887e-7
0.254, -9.606e-7, -5.710e-7, 3.896e-7
0.253, -9.631e-7, -5.728e-7, 3.902e-7
0.252, -9.612e-7, -5.725e-7, 3.887e-7
0.251, -9.655e-7, -5.747e-7, 3.909e-7
0.250, -9.667e-7, -5.750e-7, 3.918e-7
0.249, -9.661e-7, -5.759e-7, 3.902e-7
0.248, -9.689e-7, -5.771e-7, 3.918e-7
0.247, -9.686e-7, -5.768e-7, 3.918e-7
0.246, -9.710e-7, -5.786e-7, 3.924e-7
0.245, -9.728e-7, -5.802e-7, 3.927e-7
0.244, -9.753e-7, -5.811e-7, 3.942e-7
0.243, -9.762e-7, -5.826e-7, 3.936e-7
0.242, -9.780e-7, -5.829e-7, 3.951e-7
0.241, -9.796e-7, -5.829e-7, 3.967e-7
0.240, -9.808e-7, -5.847e-7, 3.960e-7
0.239, -9.805e-7, -5.850e-7, 3.954e-7
0.238, -9.820e-7, -5.853e-7, 3.967e-7
0.237, -9.847e-7, -5.875e-7, 3.973e-7
0.236, -9.851e-7, -5.878e-7, 3.973e-7
0.235, -9.872e-7, -5.887e-7, 3.985e-7
0.234, -9.896e-7, -5.893e-7, 4.003e-7
0.233, -9.905e-7, -5.911e-7, 3.994e-7
0.232, -9.908e-7, -5.914e-7, 3.994e-7
0.231, -9.933e-7, -5.933e-7, 4.000e-7
0.230, -9.948e-7, -5.942e-7, 4.006e-7
0.229, -9.970e-7, -5.954e-7, 4.015e-7
0.228, -9.982e-7, -5.957e-7, 4.025e-7
0.227, -9.991e-7, -5.979e-7, 4.012e-7
0.226, -1.002e-6, -5.979e-7, 4.037e-7
0.225, -1.002e-6, -5.982e-7, 4.043e-7
0.224, -1.003e-6, -5.985e-7, 4.043e-7
0.223, -1.005e-6, -6.006e-7, 4.046e-7
0.222, -1.006e-6, -6.018e-7, 4.046e-7
0.221, -1.006e-6, -6.018e-7, 4.043e-7
0.220, -1.009e-6, -6.024e-7, 4.061e-7
0.219, -1.009e-6, -6.037e-7, 4.052e-7
0.218, -1.013e-6, -6.049e-7, 4.076e-7
0.217, -1.012e-6, -6.049e-7, 4.067e-7
0.216, -1.013e-6, -6.055e-7, 4.076e-7
0.215, -1.016e-6, -6.073e-7, 4.082e-7
0.214, -1.017e-6, -6.070e-7, 4.098e-7
0.213, -1.016e-6, -6.073e-7, 4.092e-7
0.212, -1.018e-6, -6.085e-7, 4.092e-7
0.211, -1.022e-6, -6.101e-7, 4.122e-7
0.210, -1.021e-6, -6.107e-7, 4.107e-7
0.209, -1.022e-6, -6.113e-7, 4.110e-7
0.208, -1.025e-6, -6.119e-7, 4.128e-7
0.207, -1.025e-6, -6.125e-7, 4.128e-7
0.206, -1.028e-6, -6.149e-7, 4.128e-7
0.205, -1.029e-6, -6.146e-7, 4.144e-7
0.204, -1.028e-6, -6.146e-7, 4.137e-7
0.203, -1.030e-6, -6.156e-7, 4.147e-7
0.202, -1.032e-6, -6.159e-7, 4.159e-7
0.201, -1.032e-6, -6.177e-7, 4.140e-7
0.200, -1.035e-6, -6.177e-7, 4.171e-7
0.199, -1.036e-6, -6.186e-7, 4.177e-7
0.198, -1.037e-6, -6.192e-7, 4.174e-7
0.197, -1.037e-6, -6.189e-7, 4.183e-7
0.196, -1.040e-6, -6.207e-7, 4.192e-7
0.195, -1.039e-6, -6.220e-7, 4.174e-7
0.194, -1.041e-6, -6.220e-7, 4.192e-7
0.193, -1.043e-6, -6.217e-7, 4.211e-7
0.192, -1.044e-6, -6.232e-7, 4.208e-7
0.191, -1.047e-6, -6.250e-7, 4.220e-7
0.190, -1.048e-6, -6.253e-7, 4.229e-7
0.189, -1.047e-6, -6.247e-7, 4.226e-7
0.188, -1.052e-6, -6.275e-7, 4.244e-7
0.187, -1.051e-6, -6.259e-7, 4.253e-7
0.186, -1.049e-6, -6.262e-7, 4.232e-7
0.185, -1.052e-6, -6.275e-7, 4.250e-7
0.184, -1.054e-6, -6.287e-7, 4.256e-7
0.183, -1.052e-6, -6.278e-7, 4.247e-7
0.182, -1.054e-6, -6.284e-7, 4.256e-7
0.181, -1.056e-6, -6.296e-7, 4.269e-7
0.180, -1.057e-6, -6.293e-7, 4.278e-7
0.179, -1.062e-6, -6.320e-7, 4.296e-7
0.178, -1.063e-6, -6.326e-7, 4.299e-7
0.177, -1.062e-6, -6.314e-7, 4.305e-7
0.176, -1.062e-6, -6.330e-7, 4.287e-7
0.175, -1.061e-6, -6.308e-7, 4.302e-7
0.174, -1.064e-6, -6.330e-7, 4.308e-7
0.173, -1.065e-6, -6.339e-7, 4.314e-7
0.172, -1.067e-6, -6.345e-7, 4.327e-7
0.171, -1.067e-6, -6.342e-7, 4.324e-7
0.170, -1.070e-6, -6.357e-7, 4.342e-7
0.169, -1.068e-6, -6.348e-7, 4.336e-7
0.168, -1.069e-6, -6.357e-7, 4.330e-7
0.167, -1.071e-6, -6.372e-7, 4.336e-7
0.166, -1.072e-6, -6.354e-7, 4.366e-7
0.165, -1.074e-6, -6.378e-7, 4.360e-7
0.164, -1.074e-6, -6.366e-7, 4.372e-7
0.163, -1.073e-6, -6.372e-7, 4.357e-7
0.162, -1.075e-6, -6.384e-7, 4.363e-7
0.161, -1.078e-6, -6.394e-7, 4.388e-7
0.160, -1.075e-6, -6.369e-7, 4.385e-7
0.159, -1.077e-6, -6.394e-7, 4.378e-7
0.158, -1.079e-6, -6.397e-7, 4.391e-7
0.157, -1.078e-6, -6.387e-7, 4.394e-7
0.156, -1.079e-6, -6.387e-7, 4.403e-7
0.155, -1.082e-6, -6.403e-7, 4.418e-7
0.154, -1.082e-6, -6.394e-7, 4.424e-7
0.153, -1.082e-6, -6.406e-7, 4.418e-7
0.152, -1.084e-6, -6.415e-7, 4.427e-7
0.151, -1.083e-6, -6.400e-7, 4.430e-7
0.150, -1.083e-6, -6.400e-7, 4.433e-7
0.149, -1.087e-6, -6.415e-7, 4.452e-7
0.148, -1.085e-6, -6.403e-7, 4.443e-7
0.147, -1.085e-6, -6.415e-7, 4.436e-7
0.146, -1.089e-6, -6.427e-7, 4.464e-7
0.145, -1.089e-6, -6.424e-7, 4.464e-7
0.144, -1.086e-6, -6.400e-7, 4.464e-7
0.143, -1.089e-6, -6.424e-7, 4.470e-7
0.142, -1.089e-6, -6.418e-7, 4.473e-7
0.141, -1.089e-6, -6.421e-7, 4.467e-7
0.140, -1.091e-6, -6.433e-7, 4.479e-7
0.139, -1.092e-6, -6.424e-7, 4.497e-7
0.138, -1.089e-6, -6.421e-7, 4.473e-7
0.137, -1.092e-6, -6.424e-7, 4.491e-7
0.136, -1.091e-6, -6.418e-7, 4.488e-7
0.135, -1.092e-6, -6.424e-7, 4.491e-7
0.134, -1.093e-6, -6.430e-7, 4.501e-7
0.133, -1.093e-6, -6.409e-7, 4.522e-7
0.132, -1.096e-6, -6.430e-7, 4.525e-7
0.131, -1.093e-6, -6.418e-7, 4.510e-7
0.130, -1.092e-6, -6.418e-7, 4.507e-7
0.129, -1.093e-6, -6.412e-7, 4.522e-7
0.128, -1.095e-6, -6.421e-7, 4.525e-7
0.127, -1.094e-6, -6.412e-7, 4.528e-7
0.126, -1.097e-6, -6.427e-7, 4.540e-7
0.125, -1.096e-6, -6.427e-7, 4.537e-7
0.124, -1.095e-6, -6.412e-7, 4.537e-7
0.123, -1.095e-6, -6.412e-7, 4.534e-7
0.122, -1.096e-6, -6.412e-7, 4.552e-7
0.121, -1.095e-6, -6.400e-7, 4.552e-7
0.120, -1.096e-6, -6.415e-7, 4.546e-7
0.119, -1.095e-6, -6.406e-7, 4.543e-7
0.118, -1.096e-6, -6.391e-7, 4.568e-7
0.117, -1.096e-6, -6.403e-7, 4.562e-7
0.116, -1.096e-6, -6.384e-7, 4.574e-7
0.115, -1.098e-6, -6.397e-7, 4.580e-7
0.114, -1.095e-6, -6.387e-7, 4.559e-7
0.113, -1.097e-6, -6.387e-7, 4.583e-7
0.112, -1.096e-6, -6.381e-7, 4.583e-7
0.111, -1.096e-6, -6.387e-7, 4.574e-7
0.110, -1.097e-6, -6.394e-7, 4.574e-7
0.109, -1.096e-6, -6.375e-7, 4.580e-7
0.108, -1.096e-6, -6.375e-7, 4.589e-7
0.107, -1.098e-6, -6.381e-7, 4.598e-7
0.106, -1.097e-6, -6.369e-7, 4.601e-7
0.105, -1.096e-6, -6.372e-7, 4.589e-7
0.104, -1.099e-6, -6.372e-7, 4.613e-7
0.103, -1.095e-6, -6.354e-7, 4.592e-7
0.102, -1.095e-6, -6.369e-7, 4.583e-7
0.101, -1.096e-6, -6.342e-7, 4.613e-7
0.100, -1.095e-6, -6.339e-7, 4.610e-7
0.099, -1.095e-6, -6.342e-7, 4.607e-7
0.098, -1.095e-6, -6.348e-7, 4.604e-7
0.097, -1.094e-6, -6.345e-7, 4.598e-7
0.096, -1.094e-6, -6.326e-7, 4.610e-7
0.095, -1.095e-6, -6.330e-7, 4.623e-7
0.094, -1.093e-6, -6.314e-7, 4.617e-7
0.093, -1.093e-6, -6.323e-7, 4.607e-7
0.092, -1.093e-6, -6.326e-7, 4.607e-7
0.091, -1.092e-6, -6.305e-7, 4.613e-7
0.090, -1.097e-6, -6.363e-7, 4.610e-7
0.089, -1.094e-6, -6.311e-7, 4.629e-7
0.088, -1.092e-6, -6.296e-7, 4.626e-7
0.087, -1.090e-6, -6.293e-7, 4.604e-7
0.086, -1.090e-6, -6.287e-7, 4.617e-7
0.085, -1.092e-6, -6.287e-7, 4.635e-7
0.084, -1.090e-6, -6.281e-7, 4.617e-7
0.083, -1.089e-6, -6.268e-7, 4.626e-7
0.082, -1.091e-6, -6.278e-7, 4.635e-7
0.081, -1.088e-6, -6.275e-7, 4.604e-7
0.080, -1.087e-6, -6.253e-7, 4.617e-7
0.079, -1.086e-6, -6.238e-7, 4.620e-7
0.078, -1.087e-6, -6.241e-7, 4.629e-7
0.077, -1.088e-6, -6.253e-7, 4.623e-7
0.076, -1.086e-6, -6.235e-7, 4.626e-7
0.075, -1.084e-6, -6.226e-7, 4.613e-7
0.074, -1.085e-6, -6.223e-7, 4.623e-7
0.073, -1.083e-6, -6.207e-7, 4.620e-7
0.072, -1.085e-6, -6.229e-7, 4.620e-7
0.071, -1.082e-6, -6.201e-7, 4.617e-7
0.070, -1.081e-6, -6.198e-7, 4.617e-7
0.069, -1.081e-6, -6.204e-7, 4.610e-7
0.068, -1.079e-6, -6.171e-7, 4.620e-7
0.067, -1.080e-6, -6.177e-7, 4.620e-7
0.066, -1.080e-6, -6.180e-7, 4.617e-7
0.065, -1.079e-6, -6.171e-7, 4.617e-7
0.064, -1.078e-6, -6.162e-7, 4.620e-7
0.063, -1.077e-6, -6.168e-7, 4.604e-7
0.062, -1.077e-6, -6.149e-7, 4.623e-7
0.061, -1.074e-6, -6.128e-7, 4.613e-7
0.060, -1.075e-6, -6.143e-7, 4.607e-7
0.059, -1.075e-6, -6.134e-7, 4.613e-7
0.058, -1.072e-6, -6.110e-7, 4.610e-7
0.057, -1.071e-6, -6.116e-7, 4.592e-7
0.056, -1.072e-6, -6.128e-7, 4.589e-7
0.055, -1.069e-6, -6.101e-7, 4.589e-7
0.054, -1.069e-6, -6.107e-7, 4.586e-7
0.053, -1.069e-6, -6.088e-7, 4.598e-7
0.052, -1.066e-6, -6.076e-7, 4.586e-7
0.051, -1.067e-6, -6.082e-7, 4.583e-7
0.050, -1.065e-6, -6.055e-7, 4.595e-7
0.049, -1.062e-6, -6.046e-7, 4.577e-7
0.048, -1.064e-6, -6.064e-7, 4.574e-7
0.047, -1.065e-6, -6.058e-7, 4.589e-7
0.046, -1.061e-6, -6.034e-7, 4.577e-7
0.045, -1.061e-6, -6.043e-7, 4.571e-7
0.044, -1.061e-6, -6.043e-7, 4.568e-7
0.043, -1.060e-6, -6.024e-7, 4.571e-7
0.042, -1.058e-6, -6.024e-7, 4.559e-7
0.041, -1.060e-6, -6.027e-7, 4.571e-7
0.040, -1.056e-6, -6.003e-7, 4.559e-7
0.039, -1.054e-6, -5.997e-7, 4.543e-7
0.038, -1.056e-6, -6.000e-7, 4.565e-7
0.037, -1.054e-6, -5.991e-7, 4.546e-7
0.036, -1.053e-6, -5.985e-7, 4.546e-7
0.035, -1.052e-6, -5.976e-7, 4.549e-7
0.034, -1.050e-6, -5.960e-7, 4.540e-7
0.033, -1.050e-6, -5.972e-7, 4.528e-7
0.032, -1.050e-6, -5.954e-7, 4.546e-7
0.031, -1.048e-6, -5.945e-7, 4.537e-7
0.030, -1.045e-6, -5.942e-7, 4.510e-7
0.029, -1.046e-6, -5.933e-7, 4.528e-7
0.028, -1.045e-6, -5.921e-7, 4.534e-7
0.027, -1.043e-6, -5.930e-7, 4.501e-7
0.026, -1.042e-6, -5.908e-7, 4.513e-7
0.025, -1.042e-6, -5.905e-7, 4.513e-7
0.024, -1.039e-6, -5.896e-7, 4.494e-7
0.023, -1.041e-6, -5.899e-7, 4.510e-7
0.022, -1.039e-6, -5.887e-7, 4.504e-7
0.021, -1.039e-6, -5.893e-7, 4.494e-7
0.020, -1.038e-6, -5.881e-7, 4.494e-7
0.019, -1.034e-6, -5.857e-7, 4.485e-7
0.018, -1.034e-6, -5.857e-7, 4.482e-7
0.017, -1.035e-6, -5.860e-7, 4.494e-7
0.016, -1.033e-6, -5.850e-7, 4.479e-7
0.015, -1.032e-6, -5.850e-7, 4.467e-7
0.014, -1.031e-6, -5.841e-7, 4.470e-7
0.013, -1.030e-6, -5.832e-7, 4.467e-7
0.012, -1.031e-6, -5.844e-7, 4.464e-7
0.011, -1.030e-6, -5.832e-7, 4.464e-7
0.010, -1.027e-6, -5.808e-7, 4.467e-7
0.009, -1.026e-6, -5.817e-7, 4.443e-7
0.008, -1.026e-6, -5.814e-7, 4.449e-7
0.007, -1.024e-6, -5.792e-7, 4.443e-7
0.006, -1.025e-6, -5.817e-7, 4.433e-7
0.005, -1.025e-6, -5.802e-7, 4.446e-7
0.004, -1.022e-6, -5.789e-7, 4.430e-7
0.003, -1.020e-6, -5.786e-7, 4.418e-7
0.002, -1.020e-6, -5.771e-7, 4.430e-7
0.001, -1.018e-6, -5.768e-7, 4.415e-7
-0.000, -1.018e-6, -5.768e-7, 4.415e-7
-0.001, -1.017e-6, -5.759e-7, 4.412e-7
-0.002, -1.016e-6, -5.756e-7, 4.406e-7
-0.003, -1.015e-6, -5.750e-7, 4.400e-7
-0.004, -1.016e-6, -5.750e-7, 4.406e-7
-0.005, -1.013e-6, -5.734e-7, 4.400e-7
-0.006, -1.010e-6, -5.734e-7, 4.366e-7
-0.007, -1.012e-6, -5.728e-7, 4.391e-7
-0.008, -1.010e-6, -5.722e-7, 4.382e-7
-0.009, -1.010e-6, -5.728e-7, 4.372e-7
-0.010, -1.011e-6, -5.728e-7, 4.382e-7
-0.011, -1.007e-6, -5.710e-7, 4.363e-7
-0.012, -1.006e-6, -5.707e-7, 4.357e-7
-0.013, -1.006e-6, -5.695e-7, 4.369e-7
-0.014, -1.005e-6, -5.695e-7, 4.357e-7
-0.015, -1.006e-6, -5.707e-7, 4.351e-7
-0.016, -1.005e-6, -5.701e-7, 4.354e-7
-0.017, -1.004e-6, -5.683e-7, 4.354e-7
-0.018, -1.002e-6, -5.689e-7, 4.333e-7
-0.019, -1.002e-6, -5.680e-7, 4.345e-7
-0.020, -1.000e-6, -5.667e-7, 4.333e-7
-0.021, -9.991e-7, -5.670e-7, 4.320e-7
-0.022, -9.991e-7, -5.667e-7, 4.324e-7
-0.023, -9.970e-7, -5.658e-7, 4.311e-7
-0.024, -9.976e-7, -5.667e-7, 4.308e-7
-0.025, -9.979e-7, -5.655e-7, 4.324e-7
-0.026, -9.957e-7, -5.646e-7, 4.311e-7
-0.027, -9.954e-7, -5.655e-7, 4.299e-7
-0.028, -9.960e-7, -5.643e-7, 4.317e-7
-0.029, -9.954e-7, -5.640e-7, 4.314e-7
-0.030, -9.908e-7, -5.640e-7, 4.269e-7
-0.031, -9.939e-7, -5.640e-7, 4.299e-7
-0.032, -9.915e-7, -5.619e-7, 4.296e-7
-0.033, -9.915e-7, -5.637e-7, 4.278e-7
-0.034, -9.915e-7, -5.628e-7, 4.287e-7
-0.035, -9.890e-7, -5.622e-7, 4.269e-7
-0.036, -9.887e-7, -5.628e-7, 4.259e-7
-0.037, -9.896e-7, -5.619e-7, 4.278e-7
-0.038, -9.872e-7, -5.609e-7, 4.263e-7
-0.039, -9.857e-7, -5.609e-7, 4.247e-7
-0.040, -9.872e-7, -5.600e-7, 4.272e-7
-0.041, -9.851e-7, -5.600e-7, 4.250e-7
-0.042, -9.847e-7, -5.612e-7, 4.235e-7
-0.043, -9.847e-7, -5.600e-7, 4.247e-7
-0.044, -9.844e-7, -5.600e-7, 4.244e-7
-0.045, -9.817e-7, -5.606e-7, 4.211e-7
-0.046, -9.847e-7, -5.603e-7, 4.244e-7
-0.047, -9.823e-7, -5.597e-7, 4.226e-7
-0.048, -9.814e-7, -5.603e-7, 4.211e-7
-0.049, -9.817e-7, -5.594e-7, 4.223e-7
-0.050, -9.796e-7, -5.579e-7, 4.217e-7
