Feb. 28, 2018   11:12:53
Square Wave Voltammetry
File: c:\users\electrochemist\desktop\2018\28022018_unbuffered_9,2\1_e1_9,2_0118_ph4,07_5.txt
Data Source:  Experiment
Instrument Model:  CHI1040A
Header: 
Note: 

Init E (V) = 0.5
Final E (V) = -0.05
Incr E (V) = 0.001
Amplitude (V) = 0.1
Frequency (Hz) = 150
Quiet Time (sec) = 0
Sensitivity (A/V) = 1e-6

Difference:

Forward:

Reverse:

Potential/V, Diff(i/A), For(i/A), Rev(i/A)

0.499, -6.588e-7, -1.712e-7, 4.876e-7
0.498, -8.132e-7, -3.845e-7, 4.287e-7
0.497, -8.074e-7, -3.986e-7, 4.089e-7
0.496, -8.013e-7, -4.035e-7, 3.979e-7
0.495, -8.001e-7, -4.090e-7, 3.912e-7
0.494, -7.959e-7, -4.099e-7, 3.860e-7
0.493, -7.943e-7, -4.138e-7, 3.805e-7
0.492, -7.916e-7, -4.148e-7, 3.768e-7
0.491, -7.910e-7, -4.148e-7, 3.762e-7
0.490, -7.907e-7, -4.175e-7, 3.732e-7
0.489, -7.904e-7, -4.203e-7, 3.701e-7
0.488, -7.904e-7, -4.196e-7, 3.707e-7
0.487, -7.885e-7, -4.218e-7, 3.668e-7
0.486, -7.894e-7, -4.215e-7, 3.680e-7
0.485, -7.867e-7, -4.233e-7, 3.634e-7
0.484, -7.891e-7, -4.242e-7, 3.649e-7
0.483, -7.904e-7, -4.267e-7, 3.637e-7
0.482, -7.894e-7, -4.267e-7, 3.628e-7
0.481, -7.885e-7, -4.267e-7, 3.619e-7
0.480, -7.919e-7, -4.294e-7, 3.625e-7
0.479, -7.919e-7, -4.303e-7, 3.616e-7
0.478, -7.937e-7, -4.303e-7, 3.634e-7
0.477, -7.928e-7, -4.322e-7, 3.606e-7
0.476, -7.946e-7, -4.331e-7, 3.616e-7
0.475, -7.922e-7, -4.334e-7, 3.588e-7
0.474, -7.949e-7, -4.346e-7, 3.603e-7
0.473, -7.971e-7, -4.361e-7, 3.610e-7
0.472, -7.974e-7, -4.376e-7, 3.597e-7
0.471, -7.962e-7, -4.367e-7, 3.594e-7
0.470, -7.995e-7, -4.389e-7, 3.606e-7
0.469, -8.001e-7, -4.407e-7, 3.594e-7
0.468, -8.007e-7, -4.404e-7, 3.603e-7
0.467, -8.020e-7, -4.431e-7, 3.588e-7
0.466, -8.038e-7, -4.434e-7, 3.603e-7
0.465, -8.032e-7, -4.434e-7, 3.597e-7
0.464, -8.050e-7, -4.456e-7, 3.594e-7
0.463, -8.053e-7, -4.468e-7, 3.585e-7
0.462, -8.087e-7, -4.474e-7, 3.613e-7
0.461, -8.078e-7, -4.477e-7, 3.600e-7
0.460, -8.081e-7, -4.483e-7, 3.597e-7
0.459, -8.105e-7, -4.505e-7, 3.600e-7
0.458, -8.123e-7, -4.511e-7, 3.613e-7
0.457, -8.145e-7, -4.532e-7, 3.613e-7
0.456, -8.160e-7, -4.535e-7, 3.625e-7
0.455, -8.163e-7, -4.547e-7, 3.616e-7
0.454, -8.172e-7, -4.563e-7, 3.610e-7
0.453, -8.197e-7, -4.578e-7, 3.619e-7
0.452, -8.193e-7, -4.575e-7, 3.619e-7
0.451, -8.203e-7, -4.581e-7, 3.622e-7
0.450, -8.239e-7, -4.614e-7, 3.625e-7
0.449, -8.248e-7, -4.614e-7, 3.634e-7
0.448, -8.270e-7, -4.630e-7, 3.640e-7
0.447, -8.267e-7, -4.636e-7, 3.631e-7
0.446, -8.291e-7, -4.648e-7, 3.643e-7
0.445, -8.306e-7, -4.669e-7, 3.637e-7
0.444, -8.303e-7, -4.669e-7, 3.634e-7
0.443, -8.337e-7, -4.694e-7, 3.643e-7
0.442, -8.349e-7, -4.703e-7, 3.646e-7
0.441, -8.349e-7, -4.691e-7, 3.658e-7
0.440, -8.383e-7, -4.712e-7, 3.671e-7
0.439, -8.395e-7, -4.730e-7, 3.664e-7
0.438, -8.401e-7, -4.740e-7, 3.661e-7
0.437, -8.419e-7, -4.746e-7, 3.674e-7
0.436, -8.441e-7, -4.764e-7, 3.677e-7
0.435, -8.447e-7, -4.764e-7, 3.683e-7
0.434, -8.459e-7, -4.779e-7, 3.680e-7
0.433, -8.468e-7, -4.795e-7, 3.674e-7
0.432, -8.499e-7, -4.810e-7, 3.689e-7
0.431, -8.505e-7, -4.813e-7, 3.692e-7
0.430, -8.517e-7, -4.831e-7, 3.686e-7
0.429, -8.544e-7, -4.831e-7, 3.713e-7
0.428, -8.541e-7, -4.843e-7, 3.698e-7
0.427, -8.572e-7, -4.856e-7, 3.716e-7
0.426, -8.590e-7, -4.874e-7, 3.716e-7
0.425, -8.584e-7, -4.883e-7, 3.701e-7
0.424, -8.657e-7, -4.926e-7, 3.732e-7
0.423, -8.642e-7, -4.911e-7, 3.732e-7
0.422, -8.651e-7, -4.923e-7, 3.729e-7
0.421, -8.694e-7, -4.956e-7, 3.738e-7
0.420, -8.691e-7, -4.941e-7, 3.750e-7
0.419, -8.697e-7, -4.965e-7, 3.732e-7
0.418, -8.721e-7, -4.968e-7, 3.753e-7
0.417, -8.746e-7, -4.990e-7, 3.756e-7
0.416, -8.758e-7, -4.987e-7, 3.771e-7
0.415, -8.779e-7, -5.011e-7, 3.768e-7
0.414, -8.804e-7, -5.014e-7, 3.790e-7
0.413, -8.807e-7, -5.030e-7, 3.777e-7
0.412, -8.831e-7, -5.045e-7, 3.787e-7
0.411, -8.871e-7, -5.060e-7, 3.811e-7
0.410, -8.856e-7, -5.066e-7, 3.790e-7
0.409, -8.877e-7, -5.087e-7, 3.790e-7
0.408, -8.901e-7, -5.103e-7, 3.799e-7
0.407, -8.917e-7, -5.112e-7, 3.805e-7
0.406, -8.944e-7, -5.124e-7, 3.820e-7
0.405, -8.941e-7, -5.127e-7, 3.814e-7
0.404, -8.978e-7, -5.145e-7, 3.832e-7
0.403, -9.002e-7, -5.164e-7, 3.838e-7
0.402, -9.011e-7, -5.170e-7, 3.841e-7
0.401, -9.039e-7, -5.200e-7, 3.838e-7
0.400, -9.042e-7, -5.194e-7, 3.848e-7
0.399, -9.054e-7, -5.200e-7, 3.854e-7
0.398, -9.075e-7, -5.225e-7, 3.851e-7
0.397, -9.112e-7, -5.246e-7, 3.866e-7
0.396, -9.118e-7, -5.243e-7, 3.875e-7
0.395, -9.146e-7, -5.264e-7, 3.881e-7
0.394, -9.155e-7, -5.271e-7, 3.884e-7
0.393, -9.167e-7, -5.264e-7, 3.902e-7
0.392, -9.179e-7, -5.277e-7, 3.902e-7
0.391, -9.201e-7, -5.298e-7, 3.902e-7
0.390, -9.228e-7, -5.313e-7, 3.915e-7
0.389, -9.225e-7, -5.310e-7, 3.915e-7
0.388, -9.246e-7, -5.329e-7, 3.918e-7
0.387, -9.298e-7, -5.353e-7, 3.945e-7
0.386, -9.295e-7, -5.347e-7, 3.948e-7
0.385, -9.323e-7, -5.377e-7, 3.945e-7
0.384, -9.320e-7, -5.377e-7, 3.942e-7
0.383, -9.347e-7, -5.396e-7, 3.951e-7
0.382, -9.384e-7, -5.420e-7, 3.963e-7
0.381, -9.387e-7, -5.414e-7, 3.973e-7
0.380, -9.402e-7, -5.432e-7, 3.970e-7
0.379, -9.411e-7, -5.432e-7, 3.979e-7
0.378, -9.426e-7, -5.441e-7, 3.985e-7
0.377, -9.442e-7, -5.457e-7, 3.985e-7
0.376, -9.457e-7, -5.472e-7, 3.985e-7
0.375, -9.509e-7, -5.487e-7, 4.021e-7
0.374, -9.530e-7, -5.506e-7, 4.025e-7
0.373, -9.521e-7, -5.509e-7, 4.012e-7
0.372, -9.536e-7, -5.518e-7, 4.018e-7
0.371, -9.536e-7, -5.509e-7, 4.028e-7
0.370, -9.582e-7, -5.545e-7, 4.037e-7
0.369, -9.588e-7, -5.539e-7, 4.049e-7
0.368, -9.619e-7, -5.557e-7, 4.061e-7
0.367, -9.646e-7, -5.582e-7, 4.064e-7
0.366, -9.652e-7, -5.573e-7, 4.079e-7
0.365, -9.658e-7, -5.585e-7, 4.073e-7
0.364, -9.677e-7, -5.597e-7, 4.079e-7
0.363, -9.695e-7, -5.597e-7, 4.098e-7
0.362, -9.731e-7, -5.631e-7, 4.101e-7
0.361, -9.731e-7, -5.628e-7, 4.104e-7
0.360, -9.728e-7, -5.618e-7, 4.110e-7
0.359, -9.765e-7, -5.649e-7, 4.116e-7
0.358, -9.765e-7, -5.646e-7, 4.119e-7
0.357, -9.805e-7, -5.658e-7, 4.147e-7
0.356, -9.796e-7, -5.661e-7, 4.134e-7
0.355, -9.847e-7, -5.695e-7, 4.153e-7
0.354, -9.841e-7, -5.673e-7, 4.168e-7
0.353, -9.841e-7, -5.689e-7, 4.153e-7
0.352, -9.869e-7, -5.692e-7, 4.177e-7
0.351, -9.881e-7, -5.713e-7, 4.168e-7
0.350, -9.869e-7, -5.698e-7, 4.171e-7
0.349, -9.921e-7, -5.731e-7, 4.189e-7
0.348, -9.927e-7, -5.725e-7, 4.202e-7
0.347, -9.942e-7, -5.741e-7, 4.202e-7
0.346, -9.954e-7, -5.741e-7, 4.214e-7
0.345, -9.973e-7, -5.747e-7, 4.226e-7
0.344, -9.985e-7, -5.774e-7, 4.211e-7
0.343, -9.988e-7, -5.762e-7, 4.226e-7
0.342, -1.001e-6, -5.765e-7, 4.241e-7
0.341, -1.002e-6, -5.789e-7, 4.232e-7
0.340, -1.004e-6, -5.795e-7, 4.241e-7
0.339, -1.005e-6, -5.792e-7, 4.259e-7
0.338, -1.008e-6, -5.808e-7, 4.272e-7
0.337, -1.008e-6, -5.805e-7, 4.275e-7
0.336, -1.009e-6, -5.799e-7, 4.287e-7
0.335, -1.010e-6, -5.808e-7, 4.293e-7
0.334, -1.013e-6, -5.832e-7, 4.302e-7
0.333, -1.013e-6, -5.826e-7, 4.299e-7
0.332, -1.014e-6, -5.832e-7, 4.308e-7
0.331, -1.015e-6, -5.832e-7, 4.321e-7
0.330, -1.016e-6, -5.838e-7, 4.324e-7
0.329, -1.019e-6, -5.850e-7, 4.339e-7
0.328, -1.019e-6, -5.856e-7, 4.336e-7
0.327, -1.020e-6, -5.841e-7, 4.360e-7
0.326, -1.020e-6, -5.856e-7, 4.348e-7
0.325, -1.020e-6, -5.853e-7, 4.348e-7
0.324, -1.022e-6, -5.863e-7, 4.360e-7
0.323, -1.025e-6, -5.872e-7, 4.375e-7
0.322, -1.024e-6, -5.872e-7, 4.369e-7
0.321, -1.024e-6, -5.866e-7, 4.372e-7
0.320, -1.026e-6, -5.872e-7, 4.391e-7
0.319, -1.028e-6, -5.884e-7, 4.394e-7
0.318, -1.029e-6, -5.878e-7, 4.415e-7
0.317, -1.030e-6, -5.878e-7, 4.424e-7
0.316, -1.031e-6, -5.881e-7, 4.427e-7
0.315, -1.031e-6, -5.872e-7, 4.433e-7
0.314, -1.034e-6, -5.911e-7, 4.427e-7
0.313, -1.033e-6, -5.890e-7, 4.436e-7
0.312, -1.034e-6, -5.881e-7, 4.461e-7
0.311, -1.034e-6, -5.890e-7, 4.446e-7
0.310, -1.036e-6, -5.899e-7, 4.464e-7
0.309, -1.035e-6, -5.881e-7, 4.467e-7
0.308, -1.036e-6, -5.896e-7, 4.464e-7
0.307, -1.038e-6, -5.893e-7, 4.482e-7
0.306, -1.038e-6, -5.884e-7, 4.491e-7
0.305, -1.039e-6, -5.890e-7, 4.498e-7
0.304, -1.040e-6, -5.896e-7, 4.504e-7
0.303, -1.037e-6, -5.869e-7, 4.504e-7
0.302, -1.038e-6, -5.878e-7, 4.504e-7
0.301, -1.040e-6, -5.890e-7, 4.510e-7
0.300, -1.042e-6, -5.881e-7, 4.534e-7
0.299, -1.040e-6, -5.881e-7, 4.519e-7
0.298, -1.041e-6, -5.887e-7, 4.522e-7
0.297, -1.042e-6, -5.875e-7, 4.543e-7
0.296, -1.044e-6, -5.890e-7, 4.552e-7
0.295, -1.043e-6, -5.884e-7, 4.549e-7
0.294, -1.042e-6, -5.878e-7, 4.540e-7
0.293, -1.044e-6, -5.875e-7, 4.562e-7
0.292, -1.044e-6, -5.863e-7, 4.577e-7
0.291, -1.046e-6, -5.869e-7, 4.589e-7
0.290, -1.041e-6, -5.853e-7, 4.555e-7
0.289, -1.045e-6, -5.866e-7, 4.580e-7
0.288, -1.045e-6, -5.857e-7, 4.595e-7
0.287, -1.045e-6, -5.853e-7, 4.592e-7
0.286, -1.046e-6, -5.863e-7, 4.595e-7
0.285, -1.044e-6, -5.838e-7, 4.604e-7
0.284, -1.043e-6, -5.835e-7, 4.592e-7
0.283, -1.046e-6, -5.844e-7, 4.620e-7
0.282, -1.044e-6, -5.826e-7, 4.613e-7
0.281, -1.045e-6, -5.829e-7, 4.620e-7
0.280, -1.047e-6, -5.835e-7, 4.632e-7
0.279, -1.046e-6, -5.820e-7, 4.638e-7
0.278, -1.044e-6, -5.805e-7, 4.632e-7
0.277, -1.046e-6, -5.811e-7, 4.647e-7
0.276, -1.042e-6, -5.789e-7, 4.635e-7
0.275, -1.046e-6, -5.808e-7, 4.653e-7
0.274, -1.046e-6, -5.795e-7, 4.662e-7
0.273, -1.042e-6, -5.783e-7, 4.638e-7
0.272, -1.043e-6, -5.780e-7, 4.647e-7
0.271, -1.044e-6, -5.768e-7, 4.671e-7
0.270, -1.042e-6, -5.759e-7, 4.659e-7
0.269, -1.045e-6, -5.783e-7, 4.662e-7
0.268, -1.045e-6, -5.759e-7, 4.693e-7
0.267, -1.042e-6, -5.744e-7, 4.681e-7
0.266, -1.042e-6, -5.744e-7, 4.675e-7
0.265, -1.040e-6, -5.731e-7, 4.668e-7
0.264, -1.042e-6, -5.725e-7, 4.690e-7
0.263, -1.041e-6, -5.728e-7, 4.681e-7
0.262, -1.041e-6, -5.701e-7, 4.705e-7
0.261, -1.040e-6, -5.707e-7, 4.696e-7
0.260, -1.040e-6, -5.704e-7, 4.696e-7
0.259, -1.040e-6, -5.686e-7, 4.714e-7
0.258, -1.038e-6, -5.673e-7, 4.702e-7
0.257, -1.038e-6, -5.683e-7, 4.702e-7
0.256, -1.039e-6, -5.667e-7, 4.720e-7
0.255, -1.036e-6, -5.655e-7, 4.708e-7
0.254, -1.036e-6, -5.661e-7, 4.699e-7
0.253, -1.038e-6, -5.652e-7, 4.723e-7
0.252, -1.033e-6, -5.625e-7, 4.705e-7
0.251, -1.034e-6, -5.640e-7, 4.705e-7
0.250, -1.034e-6, -5.625e-7, 4.720e-7
0.249, -1.034e-6, -5.612e-7, 4.732e-7
0.248, -1.033e-6, -5.618e-7, 4.714e-7
0.247, -1.033e-6, -5.597e-7, 4.729e-7
0.246, -1.029e-6, -5.576e-7, 4.714e-7
0.245, -1.031e-6, -5.588e-7, 4.720e-7
0.244, -1.030e-6, -5.576e-7, 4.720e-7
0.243, -1.028e-6, -5.557e-7, 4.720e-7
0.242, -1.029e-6, -5.554e-7, 4.732e-7
0.241, -1.025e-6, -5.536e-7, 4.717e-7
0.240, -1.028e-6, -5.539e-7, 4.742e-7
0.239, -1.026e-6, -5.524e-7, 4.732e-7
0.238, -1.024e-6, -5.521e-7, 4.714e-7
0.237, -1.023e-6, -5.506e-7, 4.723e-7
0.236, -1.021e-6, -5.496e-7, 4.717e-7
0.235, -1.021e-6, -5.487e-7, 4.726e-7
0.234, -1.020e-6, -5.469e-7, 4.726e-7
0.233, -1.020e-6, -5.475e-7, 4.723e-7
0.232, -1.018e-6, -5.441e-7, 4.736e-7
0.231, -1.015e-6, -5.438e-7, 4.708e-7
0.230, -1.015e-6, -5.441e-7, 4.708e-7
0.229, -1.016e-6, -5.432e-7, 4.729e-7
0.228, -1.013e-6, -5.417e-7, 4.711e-7
0.227, -1.012e-6, -5.405e-7, 4.711e-7
0.226, -1.013e-6, -5.402e-7, 4.723e-7
0.225, -1.010e-6, -5.387e-7, 4.711e-7
0.224, -1.008e-6, -5.384e-7, 4.699e-7
0.223, -1.009e-6, -5.377e-7, 4.711e-7
0.222, -1.006e-6, -5.365e-7, 4.699e-7
0.221, -1.005e-6, -5.356e-7, 4.699e-7
0.220, -1.004e-6, -5.338e-7, 4.702e-7
0.219, -1.002e-6, -5.316e-7, 4.708e-7
0.218, -1.003e-6, -5.332e-7, 4.696e-7
0.217, -9.994e-7, -5.301e-7, 4.693e-7
0.216, -9.982e-7, -5.292e-7, 4.690e-7
0.215, -9.991e-7, -5.301e-7, 4.690e-7
0.214, -9.963e-7, -5.277e-7, 4.687e-7
0.213, -9.942e-7, -5.280e-7, 4.662e-7
0.212, -9.936e-7, -5.261e-7, 4.674e-7
0.211, -9.908e-7, -5.249e-7, 4.659e-7
0.210, -9.912e-7, -5.243e-7, 4.668e-7
0.209, -9.887e-7, -5.234e-7, 4.653e-7
0.208, -9.890e-7, -5.225e-7, 4.665e-7
0.207, -9.863e-7, -5.207e-7, 4.656e-7
0.206, -9.851e-7, -5.207e-7, 4.644e-7
0.205, -9.844e-7, -5.188e-7, 4.656e-7
0.204, -9.832e-7, -5.188e-7, 4.644e-7
0.203, -9.817e-7, -5.188e-7, 4.629e-7
0.202, -9.805e-7, -5.158e-7, 4.647e-7
0.201, -9.777e-7, -5.149e-7, 4.629e-7
0.200, -9.789e-7, -5.158e-7, 4.632e-7
0.199, -9.771e-7, -5.136e-7, 4.635e-7
0.198, -9.738e-7, -5.121e-7, 4.617e-7
0.197, -9.741e-7, -5.130e-7, 4.610e-7
0.196, -9.716e-7, -5.109e-7, 4.607e-7
0.195, -9.692e-7, -5.094e-7, 4.598e-7
0.194, -9.689e-7, -5.097e-7, 4.592e-7
0.193, -9.677e-7, -5.069e-7, 4.607e-7
0.192, -9.664e-7, -5.075e-7, 4.589e-7
0.191, -9.643e-7, -5.069e-7, 4.574e-7
0.190, -9.628e-7, -5.051e-7, 4.577e-7
0.189, -9.594e-7, -5.036e-7, 4.559e-7
0.188, -9.597e-7, -5.033e-7, 4.565e-7
0.187, -9.576e-7, -5.020e-7, 4.555e-7
0.186, -9.545e-7, -5.005e-7, 4.540e-7
0.185, -9.548e-7, -5.014e-7, 4.534e-7
0.184, -9.539e-7, -4.993e-7, 4.546e-7
0.183, -9.503e-7, -4.981e-7, 4.522e-7
0.182, -9.509e-7, -4.978e-7, 4.531e-7
0.181, -9.481e-7, -4.950e-7, 4.531e-7
0.180, -9.460e-7, -4.953e-7, 4.507e-7
0.179, -9.460e-7, -4.953e-7, 4.507e-7
0.178, -9.423e-7, -4.929e-7, 4.494e-7
0.177, -9.399e-7, -4.926e-7, 4.473e-7
0.176, -9.417e-7, -4.932e-7, 4.485e-7
0.175, -9.399e-7, -4.920e-7, 4.479e-7
0.174, -9.384e-7, -4.907e-7, 4.476e-7
0.173, -9.356e-7, -4.898e-7, 4.458e-7
0.172, -9.359e-7, -4.901e-7, 4.458e-7
0.171, -9.320e-7, -4.880e-7, 4.440e-7
0.170, -9.310e-7, -4.874e-7, 4.436e-7
0.169, -9.298e-7, -4.856e-7, 4.443e-7
0.168, -9.262e-7, -4.843e-7, 4.418e-7
0.167, -9.258e-7, -4.849e-7, 4.409e-7
0.166, -9.255e-7, -4.834e-7, 4.421e-7
0.165, -9.219e-7, -4.828e-7, 4.391e-7
0.164, -9.213e-7, -4.819e-7, 4.394e-7
0.163, -9.188e-7, -4.801e-7, 4.388e-7
0.162, -9.173e-7, -4.795e-7, 4.378e-7
0.161, -9.179e-7, -4.804e-7, 4.375e-7
0.160, -9.170e-7, -4.785e-7, 4.385e-7
0.159, -9.121e-7, -4.773e-7, 4.348e-7
0.158, -9.109e-7, -4.767e-7, 4.342e-7
0.157, -9.097e-7, -4.758e-7, 4.339e-7
0.156, -9.051e-7, -4.737e-7, 4.314e-7
0.155, -9.057e-7, -4.743e-7, 4.314e-7
0.154, -9.030e-7, -4.715e-7, 4.314e-7
0.153, -9.020e-7, -4.724e-7, 4.296e-7
0.152, -9.033e-7, -4.727e-7, 4.305e-7
0.151, -8.999e-7, -4.697e-7, 4.302e-7
0.150, -8.969e-7, -4.703e-7, 4.266e-7
0.149, -8.972e-7, -4.703e-7, 4.269e-7
0.148, -8.956e-7, -4.685e-7, 4.272e-7
0.147, -8.944e-7, -4.685e-7, 4.259e-7
0.146, -8.923e-7, -4.669e-7, 4.253e-7
0.145, -8.901e-7, -4.651e-7, 4.250e-7
0.144, -8.877e-7, -4.651e-7, 4.226e-7
0.143, -8.883e-7, -4.660e-7, 4.223e-7
0.142, -8.850e-7, -4.639e-7, 4.211e-7
0.141, -8.822e-7, -4.630e-7, 4.192e-7
0.140, -8.828e-7, -4.633e-7, 4.195e-7
0.139, -8.825e-7, -4.618e-7, 4.208e-7
0.138, -8.782e-7, -4.605e-7, 4.177e-7
0.137, -8.782e-7, -4.605e-7, 4.177e-7
0.136, -8.767e-7, -4.587e-7, 4.180e-7
0.135, -8.734e-7, -4.587e-7, 4.147e-7
0.134, -8.731e-7, -4.587e-7, 4.144e-7
0.133, -8.688e-7, -4.553e-7, 4.134e-7
0.132, -8.688e-7, -4.566e-7, 4.122e-7
0.131, -8.688e-7, -4.569e-7, 4.119e-7
0.130, -8.679e-7, -4.553e-7, 4.125e-7
0.129, -8.663e-7, -4.544e-7, 4.119e-7
0.128, -8.654e-7, -4.538e-7, 4.116e-7
0.127, -8.624e-7, -4.517e-7, 4.107e-7
0.126, -8.599e-7, -4.508e-7, 4.092e-7
0.125, -8.593e-7, -4.511e-7, 4.082e-7
0.124, -8.596e-7, -4.511e-7, 4.086e-7
0.123, -8.560e-7, -4.489e-7, 4.070e-7
0.122, -8.557e-7, -4.496e-7, 4.061e-7
0.121, -8.538e-7, -4.480e-7, 4.058e-7
0.120, -8.499e-7, -4.474e-7, 4.025e-7
0.119, -8.523e-7, -4.474e-7, 4.049e-7
0.118, -8.502e-7, -4.456e-7, 4.046e-7
0.117, -8.474e-7, -4.453e-7, 4.021e-7
0.116, -8.438e-7, -4.444e-7, 3.994e-7
0.115, -8.450e-7, -4.428e-7, 4.021e-7
0.114, -8.425e-7, -4.441e-7, 3.985e-7
0.113, -8.428e-7, -4.444e-7, 3.985e-7
0.112, -8.398e-7, -4.416e-7, 3.982e-7
0.111, -8.398e-7, -4.425e-7, 3.973e-7
0.110, -8.377e-7, -4.410e-7, 3.967e-7
0.109, -8.386e-7, -4.410e-7, 3.976e-7
0.108, -8.343e-7, -4.395e-7, 3.948e-7
0.107, -8.328e-7, -4.386e-7, 3.942e-7
0.106, -8.322e-7, -4.373e-7, 3.948e-7
0.105, -8.285e-7, -4.370e-7, 3.915e-7
0.104, -8.300e-7, -4.377e-7, 3.924e-7
0.103, -8.279e-7, -4.346e-7, 3.933e-7
0.102, -8.264e-7, -4.355e-7, 3.909e-7
0.101, -8.258e-7, -4.352e-7, 3.905e-7
0.100, -8.236e-7, -4.334e-7, 3.902e-7
0.099, -8.209e-7, -4.340e-7, 3.869e-7
0.098, -8.221e-7, -4.331e-7, 3.890e-7
0.097, -8.200e-7, -4.319e-7, 3.881e-7
0.096, -8.197e-7, -4.322e-7, 3.875e-7
0.095, -8.175e-7, -4.303e-7, 3.872e-7
0.094, -8.163e-7, -4.288e-7, 3.875e-7
0.093, -8.132e-7, -4.294e-7, 3.838e-7
0.092, -8.120e-7, -4.282e-7, 3.838e-7
0.091, -8.129e-7, -4.279e-7, 3.851e-7
0.090, -8.108e-7, -4.270e-7, 3.838e-7
0.089, -8.096e-7, -4.273e-7, 3.823e-7
0.088, -8.087e-7, -4.261e-7, 3.826e-7
0.087, -8.074e-7, -4.264e-7, 3.811e-7
0.086, -8.050e-7, -4.251e-7, 3.799e-7
0.085, -8.068e-7, -4.248e-7, 3.820e-7
0.084, -8.038e-7, -4.242e-7, 3.796e-7
0.083, -8.017e-7, -4.239e-7, 3.777e-7
0.082, -8.010e-7, -4.218e-7, 3.793e-7
0.081, -7.989e-7, -4.209e-7, 3.780e-7
0.080, -7.995e-7, -4.215e-7, 3.780e-7
0.079, -7.968e-7, -4.193e-7, 3.774e-7
0.078, -7.943e-7, -4.196e-7, 3.747e-7
0.077, -7.955e-7, -4.193e-7, 3.762e-7
0.076, -7.940e-7, -4.178e-7, 3.762e-7
0.075, -7.910e-7, -4.190e-7, 3.719e-7
0.074, -7.922e-7, -4.181e-7, 3.741e-7
0.073, -7.904e-7, -4.157e-7, 3.747e-7
0.072, -7.879e-7, -4.160e-7, 3.719e-7
0.071, -7.870e-7, -4.160e-7, 3.710e-7
0.070, -7.870e-7, -4.145e-7, 3.725e-7
0.069, -7.843e-7, -4.148e-7, 3.695e-7
0.068, -7.840e-7, -4.142e-7, 3.698e-7
0.067, -7.846e-7, -4.135e-7, 3.710e-7
0.066, -7.818e-7, -4.120e-7, 3.698e-7
0.065, -7.800e-7, -4.114e-7, 3.686e-7
0.064, -7.809e-7, -4.105e-7, 3.704e-7
0.063, -7.794e-7, -4.108e-7, 3.686e-7
0.062, -7.778e-7, -4.105e-7, 3.674e-7
0.061, -7.766e-7, -4.084e-7, 3.683e-7
0.060, -7.727e-7, -4.087e-7, 3.640e-7
0.059, -7.736e-7, -4.087e-7, 3.649e-7
0.058, -7.724e-7, -4.068e-7, 3.655e-7
0.057, -7.724e-7, -4.068e-7, 3.655e-7
0.056, -7.711e-7, -4.074e-7, 3.637e-7
0.055, -7.696e-7, -4.047e-7, 3.649e-7
0.054, -7.669e-7, -4.047e-7, 3.622e-7
0.053, -7.678e-7, -4.050e-7, 3.628e-7
0.052, -7.666e-7, -4.029e-7, 3.637e-7
0.051, -7.626e-7, -4.026e-7, 3.600e-7
0.050, -7.641e-7, -4.029e-7, 3.613e-7
0.049, -7.632e-7, -4.013e-7, 3.619e-7
0.048, -7.611e-7, -4.010e-7, 3.600e-7
0.047, -7.623e-7, -4.023e-7, 3.600e-7
0.046, -7.598e-7, -3.995e-7, 3.603e-7
0.045, -7.601e-7, -4.004e-7, 3.597e-7
0.044, -7.601e-7, -3.998e-7, 3.603e-7
0.043, -7.562e-7, -3.971e-7, 3.591e-7
0.042, -7.559e-7, -3.983e-7, 3.576e-7
0.041, -7.565e-7, -3.971e-7, 3.594e-7
0.040, -7.547e-7, -3.965e-7, 3.582e-7
0.039, -7.516e-7, -3.955e-7, 3.561e-7
0.038, -7.519e-7, -3.961e-7, 3.558e-7
0.037, -7.504e-7, -3.946e-7, 3.558e-7
0.036, -7.498e-7, -3.940e-7, 3.558e-7
0.035, -7.504e-7, -3.955e-7, 3.548e-7
0.034, -7.482e-7, -3.931e-7, 3.551e-7
0.033, -7.473e-7, -3.931e-7, 3.542e-7
0.032, -7.461e-7, -3.922e-7, 3.539e-7
0.031, -7.443e-7, -3.900e-7, 3.542e-7
0.030, -7.437e-7, -3.913e-7, 3.524e-7
0.029, -7.428e-7, -3.900e-7, 3.527e-7
0.028, -7.421e-7, -3.891e-7, 3.530e-7
0.027, -7.403e-7, -3.891e-7, 3.512e-7
0.026, -7.409e-7, -3.891e-7, 3.518e-7
0.025, -7.397e-7, -3.879e-7, 3.518e-7
0.024, -7.370e-7, -3.867e-7, 3.503e-7
0.023, -7.385e-7, -3.882e-7, 3.503e-7
0.022, -7.370e-7, -3.861e-7, 3.509e-7
0.021, -7.348e-7, -3.861e-7, 3.487e-7
0.020, -7.339e-7, -3.839e-7, 3.500e-7
0.019, -7.339e-7, -3.839e-7, 3.500e-7
0.018, -7.318e-7, -3.839e-7, 3.478e-7
0.017, -7.318e-7, -3.833e-7, 3.484e-7
0.016, -7.324e-7, -3.833e-7, 3.490e-7
0.015, -7.296e-7, -3.827e-7, 3.469e-7
0.014, -7.305e-7, -3.836e-7, 3.469e-7
0.013, -7.278e-7, -3.812e-7, 3.466e-7
0.012, -7.275e-7, -3.812e-7, 3.463e-7
0.011, -7.251e-7, -3.806e-7, 3.445e-7
0.010, -7.254e-7, -3.794e-7, 3.460e-7
0.009, -7.248e-7, -3.791e-7, 3.457e-7
0.008, -7.238e-7, -3.781e-7, 3.457e-7
0.007, -7.217e-7, -3.781e-7, 3.436e-7
0.006, -7.199e-7, -3.775e-7, 3.423e-7
0.005, -7.202e-7, -3.769e-7, 3.432e-7
0.004, -7.193e-7, -3.760e-7, 3.432e-7
0.003, -7.186e-7, -3.763e-7, 3.423e-7
0.002, -7.171e-7, -3.745e-7, 3.426e-7
0.001, -7.153e-7, -3.736e-7, 3.417e-7
-0.000, -7.147e-7, -3.748e-7, 3.399e-7
-0.001, -7.159e-7, -3.739e-7, 3.420e-7
-0.002, -7.147e-7, -3.727e-7, 3.420e-7
-0.003, -7.107e-7, -3.711e-7, 3.396e-7
-0.004, -7.128e-7, -3.723e-7, 3.405e-7
-0.005, -7.119e-7, -3.720e-7, 3.399e-7
-0.006, -7.107e-7, -3.720e-7, 3.387e-7
-0.007, -7.104e-7, -3.708e-7, 3.396e-7
-0.008, -7.092e-7, -3.702e-7, 3.390e-7
-0.009, -7.071e-7, -3.699e-7, 3.371e-7
-0.010, -7.089e-7, -3.702e-7, 3.387e-7
-0.011, -7.043e-7, -3.681e-7, 3.362e-7
-0.012, -7.064e-7, -3.687e-7, 3.378e-7
-0.013, -7.043e-7, -3.675e-7, 3.368e-7
-0.014, -7.043e-7, -3.672e-7, 3.371e-7
-0.015, -7.019e-7, -3.666e-7, 3.353e-7
-0.016, -7.037e-7, -3.675e-7, 3.362e-7
-0.017, -7.006e-7, -3.656e-7, 3.350e-7
-0.018, -7.006e-7, -3.659e-7, 3.347e-7
-0.019, -6.988e-7, -3.638e-7, 3.350e-7
-0.020, -6.997e-7, -3.647e-7, 3.350e-7
-0.021, -6.982e-7, -3.641e-7, 3.341e-7
-0.022, -6.973e-7, -3.641e-7, 3.332e-7
-0.023, -6.967e-7, -3.623e-7, 3.344e-7
-0.024, -6.945e-7, -3.623e-7, 3.323e-7
-0.025, -6.952e-7, -3.623e-7, 3.329e-7
-0.026, -6.939e-7, -3.620e-7, 3.320e-7
-0.027, -6.939e-7, -3.623e-7, 3.317e-7
-0.028, -6.918e-7, -3.601e-7, 3.317e-7
-0.029, -6.900e-7, -3.598e-7, 3.301e-7
-0.030, -6.906e-7, -3.608e-7, 3.298e-7
-0.031, -6.909e-7, -3.601e-7, 3.307e-7
-0.032, -6.887e-7, -3.586e-7, 3.301e-7
-0.033, -6.900e-7, -3.601e-7, 3.298e-7
-0.034, -6.884e-7, -3.592e-7, 3.292e-7
-0.035, -6.854e-7, -3.565e-7, 3.289e-7
-0.036, -6.854e-7, -3.577e-7, 3.277e-7
-0.037, -6.845e-7, -3.571e-7, 3.274e-7
-0.038, -6.823e-7, -3.562e-7, 3.262e-7
-0.039, -6.817e-7, -3.553e-7, 3.265e-7
-0.040, -6.820e-7, -3.550e-7, 3.271e-7
-0.041, -6.802e-7, -3.543e-7, 3.259e-7
-0.042, -6.808e-7, -3.556e-7, 3.252e-7
-0.043, -6.805e-7, -3.546e-7, 3.259e-7
-0.044, -6.793e-7, -3.534e-7, 3.259e-7
-0.045, -6.778e-7, -3.534e-7, 3.243e-7
-0.046, -6.790e-7, -3.534e-7, 3.255e-7
-0.047, -6.778e-7, -3.525e-7, 3.252e-7
-0.048, -6.759e-7, -3.519e-7, 3.240e-7
-0.049, -6.759e-7, -3.531e-7, 3.228e-7
-0.050, -6.765e-7, -3.528e-7, 3.237e-7
