Feb. 28, 2018   11:42:02
Square Wave Voltammetry
File: c:\users\electrochemist\desktop\2018\28022018_unbuffered_9,2\20_e6_9,2_0118_ph6,05_1.txt
Data Source:  Experiment
Instrument Model:  CHI1040A
Header: 
Note: 

Init E (V) = 0.5
Final E (V) = -0.05
Incr E (V) = 0.001
Amplitude (V) = 0.1
Frequency (Hz) = 150
Quiet Time (sec) = 0
Sensitivity (A/V) = 1e-6

Difference:

Forward:

Reverse:

Potential/V, Diff(i/A), For(i/A), Rev(i/A)

0.499, -8.309e-7, -1.996e-7, 6.313e-7
0.498, -1.002e-6, -4.669e-7, 5.346e-7
0.497, -9.881e-7, -4.859e-7, 5.022e-7
0.496, -9.747e-7, -4.907e-7, 4.839e-7
0.495, -9.646e-7, -4.953e-7, 4.693e-7
0.494, -9.573e-7, -4.981e-7, 4.592e-7
0.493, -9.500e-7, -4.990e-7, 4.510e-7
0.492, -9.448e-7, -5.011e-7, 4.436e-7
0.491, -9.411e-7, -4.999e-7, 4.412e-7
0.490, -9.378e-7, -5.020e-7, 4.357e-7
0.489, -9.335e-7, -5.036e-7, 4.299e-7
0.488, -9.329e-7, -5.057e-7, 4.272e-7
0.487, -9.298e-7, -5.054e-7, 4.244e-7
0.486, -9.258e-7, -5.060e-7, 4.198e-7
0.485, -9.258e-7, -5.063e-7, 4.195e-7
0.484, -9.216e-7, -5.054e-7, 4.162e-7
0.483, -9.182e-7, -5.063e-7, 4.119e-7
0.482, -9.222e-7, -5.081e-7, 4.140e-7
0.481, -9.210e-7, -5.075e-7, 4.134e-7
0.480, -9.185e-7, -5.094e-7, 4.092e-7
0.479, -9.179e-7, -5.106e-7, 4.073e-7
0.478, -9.133e-7, -5.081e-7, 4.052e-7
0.477, -9.130e-7, -5.103e-7, 4.028e-7
0.476, -9.149e-7, -5.121e-7, 4.028e-7
0.475, -9.143e-7, -5.118e-7, 4.025e-7
0.474, -9.130e-7, -5.124e-7, 4.006e-7
0.473, -9.152e-7, -5.145e-7, 4.006e-7
0.472, -9.130e-7, -5.136e-7, 3.994e-7
0.471, -9.106e-7, -5.149e-7, 3.957e-7
0.470, -9.115e-7, -5.149e-7, 3.967e-7
0.469, -9.127e-7, -5.155e-7, 3.973e-7
0.468, -9.115e-7, -5.155e-7, 3.960e-7
0.467, -9.121e-7, -5.164e-7, 3.957e-7
0.466, -9.130e-7, -5.170e-7, 3.960e-7
0.465, -9.112e-7, -5.173e-7, 3.939e-7
0.464, -9.139e-7, -5.197e-7, 3.942e-7
0.463, -9.112e-7, -5.182e-7, 3.930e-7
0.462, -9.124e-7, -5.206e-7, 3.918e-7
0.461, -9.143e-7, -5.219e-7, 3.924e-7
0.460, -9.118e-7, -5.200e-7, 3.918e-7
0.459, -9.118e-7, -5.219e-7, 3.899e-7
0.458, -9.121e-7, -5.219e-7, 3.902e-7
0.457, -9.133e-7, -5.222e-7, 3.912e-7
0.456, -9.124e-7, -5.246e-7, 3.878e-7
0.455, -9.124e-7, -5.240e-7, 3.884e-7
0.454, -9.152e-7, -5.243e-7, 3.909e-7
0.453, -9.152e-7, -5.271e-7, 3.881e-7
0.452, -9.146e-7, -5.261e-7, 3.884e-7
0.451, -9.167e-7, -5.274e-7, 3.893e-7
0.450, -9.173e-7, -5.292e-7, 3.881e-7
0.449, -9.167e-7, -5.274e-7, 3.893e-7
0.448, -9.167e-7, -5.283e-7, 3.884e-7
0.447, -9.182e-7, -5.313e-7, 3.869e-7
0.446, -9.191e-7, -5.313e-7, 3.878e-7
0.445, -9.164e-7, -5.304e-7, 3.860e-7
0.444, -9.179e-7, -5.326e-7, 3.854e-7
0.443, -9.204e-7, -5.332e-7, 3.872e-7
0.442, -9.201e-7, -5.329e-7, 3.872e-7
0.441, -9.210e-7, -5.353e-7, 3.857e-7
0.440, -9.225e-7, -5.347e-7, 3.878e-7
0.439, -9.231e-7, -5.353e-7, 3.878e-7
0.438, -9.219e-7, -5.371e-7, 3.848e-7
0.437, -9.249e-7, -5.365e-7, 3.884e-7
0.436, -9.240e-7, -5.371e-7, 3.869e-7
0.435, -9.255e-7, -5.405e-7, 3.851e-7
0.434, -9.268e-7, -5.402e-7, 3.866e-7
0.433, -9.268e-7, -5.408e-7, 3.860e-7
0.432, -9.265e-7, -5.414e-7, 3.851e-7
0.431, -9.304e-7, -5.429e-7, 3.875e-7
0.430, -9.301e-7, -5.426e-7, 3.875e-7
0.429, -9.301e-7, -5.448e-7, 3.854e-7
0.428, -9.307e-7, -5.469e-7, 3.838e-7
0.427, -9.301e-7, -5.454e-7, 3.848e-7
0.426, -9.323e-7, -5.463e-7, 3.860e-7
0.425, -9.341e-7, -5.487e-7, 3.854e-7
0.424, -9.347e-7, -5.487e-7, 3.860e-7
0.423, -9.371e-7, -5.499e-7, 3.872e-7
0.422, -9.362e-7, -5.503e-7, 3.860e-7
0.421, -9.374e-7, -5.499e-7, 3.875e-7
0.420, -9.374e-7, -5.512e-7, 3.863e-7
0.419, -9.402e-7, -5.536e-7, 3.866e-7
0.418, -9.432e-7, -5.554e-7, 3.878e-7
0.417, -9.408e-7, -5.554e-7, 3.854e-7
0.416, -9.426e-7, -5.554e-7, 3.872e-7
0.415, -9.429e-7, -5.564e-7, 3.866e-7
0.414, -9.442e-7, -5.588e-7, 3.854e-7
0.413, -9.469e-7, -5.588e-7, 3.881e-7
0.412, -9.454e-7, -5.591e-7, 3.863e-7
0.411, -9.457e-7, -5.606e-7, 3.851e-7
0.410, -9.500e-7, -5.622e-7, 3.878e-7
0.409, -9.493e-7, -5.618e-7, 3.875e-7
0.408, -9.527e-7, -5.658e-7, 3.869e-7
0.407, -9.512e-7, -5.637e-7, 3.875e-7
0.406, -9.564e-7, -5.667e-7, 3.896e-7
0.405, -9.536e-7, -5.661e-7, 3.875e-7
0.404, -9.576e-7, -5.686e-7, 3.890e-7
0.403, -9.582e-7, -5.692e-7, 3.890e-7
0.402, -9.567e-7, -5.698e-7, 3.869e-7
0.401, -9.606e-7, -5.719e-7, 3.887e-7
0.400, -9.612e-7, -5.710e-7, 3.902e-7
0.399, -9.646e-7, -5.747e-7, 3.899e-7
0.398, -9.655e-7, -5.744e-7, 3.912e-7
0.397, -9.646e-7, -5.750e-7, 3.896e-7
0.396, -9.667e-7, -5.774e-7, 3.893e-7
0.395, -9.698e-7, -5.774e-7, 3.924e-7
0.394, -9.683e-7, -5.771e-7, 3.912e-7
0.393, -9.695e-7, -5.802e-7, 3.893e-7
0.392, -9.731e-7, -5.808e-7, 3.924e-7
0.391, -9.722e-7, -5.811e-7, 3.912e-7
0.390, -9.759e-7, -5.829e-7, 3.930e-7
0.389, -9.762e-7, -5.838e-7, 3.924e-7
0.388, -9.774e-7, -5.856e-7, 3.918e-7
0.387, -9.780e-7, -5.856e-7, 3.924e-7
0.386, -9.826e-7, -5.878e-7, 3.948e-7
0.385, -9.789e-7, -5.860e-7, 3.930e-7
0.384, -9.838e-7, -5.902e-7, 3.936e-7
0.383, -9.847e-7, -5.914e-7, 3.933e-7
0.382, -9.869e-7, -5.918e-7, 3.951e-7
0.381, -9.866e-7, -5.942e-7, 3.924e-7
0.380, -9.915e-7, -5.951e-7, 3.963e-7
0.379, -9.902e-7, -5.948e-7, 3.954e-7
0.378, -9.908e-7, -5.963e-7, 3.945e-7
0.377, -9.948e-7, -5.985e-7, 3.963e-7
0.376, -9.948e-7, -5.982e-7, 3.967e-7
0.375, -9.966e-7, -6.006e-7, 3.960e-7
0.374, -1.001e-6, -6.021e-7, 3.985e-7
0.373, -1.000e-6, -6.030e-7, 3.973e-7
0.372, -1.001e-6, -6.040e-7, 3.967e-7
0.371, -1.002e-6, -6.049e-7, 3.973e-7
0.370, -1.004e-6, -6.058e-7, 3.982e-7
0.369, -1.004e-6, -6.070e-7, 3.967e-7
0.368, -1.006e-6, -6.082e-7, 3.982e-7
0.367, -1.008e-6, -6.079e-7, 3.997e-7
0.366, -1.012e-6, -6.122e-7, 4.000e-7
0.365, -1.013e-6, -6.128e-7, 4.006e-7
0.364, -1.014e-6, -6.140e-7, 3.997e-7
0.363, -1.015e-6, -6.146e-7, 4.006e-7
0.362, -1.018e-6, -6.162e-7, 4.018e-7
0.361, -1.019e-6, -6.165e-7, 4.028e-7
0.360, -1.020e-6, -6.177e-7, 4.028e-7
0.359, -1.023e-6, -6.201e-7, 4.031e-7
0.358, -1.024e-6, -6.201e-7, 4.037e-7
0.357, -1.026e-6, -6.229e-7, 4.034e-7
0.356, -1.027e-6, -6.223e-7, 4.046e-7
0.355, -1.030e-6, -6.253e-7, 4.049e-7
0.354, -1.030e-6, -6.268e-7, 4.031e-7
0.353, -1.033e-6, -6.281e-7, 4.046e-7
0.352, -1.035e-6, -6.293e-7, 4.058e-7
0.351, -1.035e-6, -6.308e-7, 4.040e-7
0.350, -1.038e-6, -6.320e-7, 4.058e-7
0.349, -1.040e-6, -6.329e-7, 4.073e-7
0.348, -1.042e-6, -6.345e-7, 4.073e-7
0.347, -1.042e-6, -6.357e-7, 4.067e-7
0.346, -1.045e-6, -6.372e-7, 4.079e-7
0.345, -1.046e-6, -6.381e-7, 4.076e-7
0.344, -1.051e-6, -6.403e-7, 4.107e-7
0.343, -1.050e-6, -6.418e-7, 4.086e-7
0.342, -1.054e-6, -6.424e-7, 4.119e-7
0.341, -1.053e-6, -6.433e-7, 4.101e-7
0.340, -1.056e-6, -6.452e-7, 4.107e-7
0.339, -1.056e-6, -6.464e-7, 4.095e-7
0.338, -1.060e-6, -6.485e-7, 4.116e-7
0.337, -1.059e-6, -6.479e-7, 4.113e-7
0.336, -1.061e-6, -6.497e-7, 4.116e-7
0.335, -1.065e-6, -6.516e-7, 4.134e-7
0.334, -1.067e-6, -6.528e-7, 4.140e-7
0.333, -1.067e-6, -6.543e-7, 4.128e-7
0.332, -1.073e-6, -6.574e-7, 4.156e-7
0.331, -1.070e-6, -6.571e-7, 4.134e-7
0.330, -1.075e-6, -6.601e-7, 4.150e-7
0.329, -1.077e-6, -6.607e-7, 4.159e-7
0.328, -1.078e-6, -6.616e-7, 4.162e-7
0.327, -1.080e-6, -6.635e-7, 4.165e-7
0.326, -1.082e-6, -6.650e-7, 4.174e-7
0.325, -1.082e-6, -6.650e-7, 4.171e-7
0.324, -1.086e-6, -6.677e-7, 4.186e-7
0.323, -1.088e-6, -6.690e-7, 4.189e-7
0.322, -1.089e-6, -6.708e-7, 4.186e-7
0.321, -1.093e-6, -6.717e-7, 4.214e-7
0.320, -1.095e-6, -6.735e-7, 4.214e-7
0.319, -1.096e-6, -6.741e-7, 4.214e-7
0.318, -1.098e-6, -6.757e-7, 4.223e-7
0.317, -1.102e-6, -6.787e-7, 4.229e-7
0.316, -1.102e-6, -6.799e-7, 4.220e-7
0.315, -1.102e-6, -6.796e-7, 4.226e-7
0.314, -1.105e-6, -6.815e-7, 4.235e-7
0.313, -1.107e-6, -6.824e-7, 4.250e-7
0.312, -1.111e-6, -6.857e-7, 4.253e-7
0.311, -1.113e-6, -6.864e-7, 4.269e-7
0.310, -1.114e-6, -6.876e-7, 4.266e-7
0.309, -1.117e-6, -6.894e-7, 4.275e-7
0.308, -1.117e-6, -6.894e-7, 4.281e-7
0.307, -1.120e-6, -6.918e-7, 4.278e-7
0.306, -1.122e-6, -6.943e-7, 4.281e-7
0.305, -1.123e-6, -6.943e-7, 4.290e-7
0.304, -1.127e-6, -6.964e-7, 4.302e-7
0.303, -1.130e-6, -6.989e-7, 4.311e-7
0.302, -1.130e-6, -6.986e-7, 4.314e-7
0.301, -1.133e-6, -7.010e-7, 4.324e-7
0.300, -1.133e-6, -7.019e-7, 4.314e-7
0.299, -1.135e-6, -7.031e-7, 4.321e-7
0.298, -1.138e-6, -7.044e-7, 4.333e-7
0.297, -1.141e-6, -7.074e-7, 4.339e-7
0.296, -1.141e-6, -7.062e-7, 4.351e-7
0.295, -1.142e-6, -7.077e-7, 4.342e-7
0.294, -1.148e-6, -7.120e-7, 4.363e-7
0.293, -1.150e-6, -7.126e-7, 4.378e-7
0.292, -1.150e-6, -7.132e-7, 4.363e-7
0.291, -1.151e-6, -7.129e-7, 4.382e-7
0.290, -1.155e-6, -7.153e-7, 4.394e-7
0.289, -1.156e-6, -7.169e-7, 4.391e-7
0.288, -1.159e-6, -7.202e-7, 4.385e-7
0.287, -1.161e-6, -7.199e-7, 4.406e-7
0.286, -1.163e-6, -7.230e-7, 4.400e-7
0.285, -1.164e-6, -7.233e-7, 4.403e-7
0.284, -1.168e-6, -7.248e-7, 4.436e-7
0.283, -1.168e-6, -7.263e-7, 4.421e-7
0.282, -1.173e-6, -7.279e-7, 4.449e-7
0.281, -1.171e-6, -7.282e-7, 4.430e-7
0.280, -1.176e-6, -7.300e-7, 4.458e-7
0.279, -1.176e-6, -7.324e-7, 4.440e-7
0.278, -1.180e-6, -7.330e-7, 4.467e-7
0.277, -1.182e-6, -7.346e-7, 4.473e-7
0.276, -1.184e-6, -7.361e-7, 4.476e-7
0.275, -1.187e-6, -7.379e-7, 4.494e-7
0.274, -1.187e-6, -7.376e-7, 4.494e-7
0.273, -1.190e-6, -7.401e-7, 4.504e-7
0.272, -1.191e-6, -7.416e-7, 4.494e-7
0.271, -1.195e-6, -7.434e-7, 4.516e-7
0.270, -1.197e-6, -7.446e-7, 4.525e-7
0.269, -1.198e-6, -7.443e-7, 4.537e-7
0.268, -1.199e-6, -7.462e-7, 4.531e-7
0.267, -1.202e-6, -7.489e-7, 4.528e-7
0.266, -1.205e-6, -7.489e-7, 4.559e-7
0.265, -1.205e-6, -7.498e-7, 4.555e-7
0.264, -1.208e-6, -7.520e-7, 4.565e-7
0.263, -1.211e-6, -7.532e-7, 4.583e-7
0.262, -1.212e-6, -7.541e-7, 4.583e-7
0.261, -1.213e-6, -7.550e-7, 4.580e-7
0.260, -1.215e-6, -7.559e-7, 4.586e-7
0.259, -1.217e-6, -7.581e-7, 4.589e-7
0.258, -1.220e-6, -7.593e-7, 4.607e-7
0.257, -1.225e-6, -7.611e-7, 4.635e-7
0.256, -1.225e-6, -7.623e-7, 4.626e-7
0.255, -1.228e-6, -7.651e-7, 4.626e-7
0.254, -1.229e-6, -7.636e-7, 4.653e-7
0.253, -1.229e-6, -7.654e-7, 4.632e-7
0.252, -1.233e-6, -7.681e-7, 4.653e-7
0.251, -1.232e-6, -7.684e-7, 4.638e-7
0.250, -1.235e-6, -7.694e-7, 4.656e-7
0.249, -1.240e-6, -7.724e-7, 4.674e-7
0.248, -1.240e-6, -7.715e-7, 4.681e-7
0.247, -1.243e-6, -7.742e-7, 4.687e-7
0.246, -1.245e-6, -7.742e-7, 4.708e-7
0.245, -1.247e-6, -7.764e-7, 4.705e-7
0.244, -1.249e-6, -7.779e-7, 4.711e-7
0.243, -1.251e-6, -7.791e-7, 4.720e-7
0.242, -1.253e-6, -7.791e-7, 4.742e-7
0.241, -1.255e-6, -7.816e-7, 4.729e-7
0.240, -1.256e-6, -7.816e-7, 4.742e-7
0.239, -1.259e-6, -7.834e-7, 4.757e-7
0.238, -1.258e-6, -7.825e-7, 4.751e-7
0.237, -1.262e-6, -7.855e-7, 4.760e-7
0.236, -1.264e-6, -7.849e-7, 4.790e-7
0.235, -1.265e-6, -7.867e-7, 4.787e-7
0.234, -1.266e-6, -7.877e-7, 4.784e-7
0.233, -1.267e-6, -7.883e-7, 4.787e-7
0.232, -1.269e-6, -7.892e-7, 4.794e-7
0.231, -1.272e-6, -7.910e-7, 4.806e-7
0.230, -1.273e-6, -7.916e-7, 4.818e-7
0.229, -1.276e-6, -7.938e-7, 4.824e-7
0.228, -1.275e-6, -7.938e-7, 4.815e-7
0.227, -1.279e-6, -7.944e-7, 4.842e-7
0.226, -1.279e-6, -7.974e-7, 4.818e-7
0.225, -1.282e-6, -7.968e-7, 4.851e-7
0.224, -1.282e-6, -7.962e-7, 4.855e-7
0.223, -1.286e-6, -7.990e-7, 4.867e-7
0.222, -1.288e-6, -8.005e-7, 4.876e-7
0.221, -1.289e-6, -8.017e-7, 4.876e-7
0.220, -1.290e-6, -8.017e-7, 4.885e-7
0.219, -1.293e-6, -8.026e-7, 4.903e-7
0.218, -1.294e-6, -8.029e-7, 4.909e-7
0.217, -1.294e-6, -8.035e-7, 4.909e-7
0.216, -1.297e-6, -8.057e-7, 4.913e-7
0.215, -1.298e-6, -8.048e-7, 4.931e-7
0.214, -1.300e-6, -8.063e-7, 4.937e-7
0.213, -1.301e-6, -8.072e-7, 4.943e-7
0.212, -1.303e-6, -8.072e-7, 4.955e-7
0.211, -1.304e-6, -8.078e-7, 4.958e-7
0.210, -1.307e-6, -8.102e-7, 4.967e-7
0.209, -1.307e-6, -8.096e-7, 4.970e-7
0.208, -1.307e-6, -8.099e-7, 4.967e-7
0.207, -1.309e-6, -8.109e-7, 4.986e-7
0.206, -1.312e-6, -8.121e-7, 4.995e-7
0.205, -1.311e-6, -8.124e-7, 4.986e-7
0.204, -1.314e-6, -8.142e-7, 5.001e-7
0.203, -1.317e-6, -8.157e-7, 5.016e-7
0.202, -1.317e-6, -8.151e-7, 5.019e-7
0.201, -1.320e-6, -8.154e-7, 5.050e-7
0.200, -1.320e-6, -8.164e-7, 5.038e-7
0.199, -1.320e-6, -8.173e-7, 5.032e-7
0.198, -1.325e-6, -8.182e-7, 5.068e-7
0.197, -1.323e-6, -8.179e-7, 5.053e-7
0.196, -1.324e-6, -8.173e-7, 5.068e-7
0.195, -1.326e-6, -8.185e-7, 5.071e-7
0.194, -1.327e-6, -8.194e-7, 5.074e-7
0.193, -1.328e-6, -8.194e-7, 5.090e-7
0.192, -1.332e-6, -8.218e-7, 5.102e-7
0.191, -1.331e-6, -8.200e-7, 5.108e-7
0.190, -1.331e-6, -8.212e-7, 5.102e-7
0.189, -1.331e-6, -8.212e-7, 5.102e-7
0.188, -1.335e-6, -8.212e-7, 5.135e-7
0.187, -1.333e-6, -8.218e-7, 5.114e-7
0.186, -1.334e-6, -8.218e-7, 5.126e-7
0.185, -1.336e-6, -8.218e-7, 5.144e-7
0.184, -1.337e-6, -8.237e-7, 5.132e-7
0.183, -1.338e-6, -8.237e-7, 5.144e-7
0.182, -1.340e-6, -8.243e-7, 5.154e-7
0.181, -1.340e-6, -8.243e-7, 5.160e-7
0.180, -1.340e-6, -8.240e-7, 5.163e-7
0.179, -1.340e-6, -8.231e-7, 5.166e-7
0.178, -1.345e-6, -8.249e-7, 5.202e-7
0.177, -1.346e-6, -8.255e-7, 5.205e-7
0.176, -1.343e-6, -8.221e-7, 5.205e-7
0.175, -1.345e-6, -8.255e-7, 5.196e-7
0.174, -1.347e-6, -8.261e-7, 5.212e-7
0.173, -1.345e-6, -8.237e-7, 5.218e-7
0.172, -1.347e-6, -8.264e-7, 5.209e-7
0.171, -1.348e-6, -8.255e-7, 5.221e-7
0.170, -1.349e-6, -8.252e-7, 5.236e-7
0.169, -1.349e-6, -8.264e-7, 5.230e-7
0.168, -1.350e-6, -8.249e-7, 5.248e-7
0.167, -1.351e-6, -8.249e-7, 5.260e-7
0.166, -1.352e-6, -8.261e-7, 5.257e-7
0.165, -1.353e-6, -8.255e-7, 5.276e-7
0.164, -1.352e-6, -8.249e-7, 5.266e-7
0.163, -1.353e-6, -8.267e-7, 5.266e-7
0.162, -1.353e-6, -8.246e-7, 5.282e-7
0.161, -1.353e-6, -8.249e-7, 5.282e-7
0.160, -1.353e-6, -8.243e-7, 5.285e-7
0.159, -1.356e-6, -8.258e-7, 5.297e-7
0.158, -1.356e-6, -8.258e-7, 5.306e-7
0.157, -1.352e-6, -8.240e-7, 5.282e-7
0.156, -1.356e-6, -8.246e-7, 5.318e-7
0.155, -1.357e-6, -8.252e-7, 5.318e-7
0.154, -1.357e-6, -8.243e-7, 5.324e-7
0.153, -1.355e-6, -8.225e-7, 5.324e-7
0.152, -1.356e-6, -8.225e-7, 5.337e-7
0.151, -1.358e-6, -8.246e-7, 5.337e-7
0.150, -1.356e-6, -8.228e-7, 5.331e-7
0.149, -1.356e-6, -8.221e-7, 5.340e-7
0.148, -1.358e-6, -8.240e-7, 5.343e-7
0.147, -1.359e-6, -8.225e-7, 5.364e-7
0.146, -1.356e-6, -8.206e-7, 5.352e-7
0.145, -1.355e-6, -8.212e-7, 5.340e-7
0.144, -1.357e-6, -8.215e-7, 5.355e-7
0.143, -1.360e-6, -8.212e-7, 5.389e-7
0.142, -1.356e-6, -8.206e-7, 5.358e-7
0.141, -1.357e-6, -8.197e-7, 5.373e-7
0.140, -1.359e-6, -8.191e-7, 5.395e-7
0.139, -1.357e-6, -8.188e-7, 5.379e-7
0.138, -1.356e-6, -8.176e-7, 5.379e-7
0.137, -1.357e-6, -8.176e-7, 5.398e-7
0.136, -1.355e-6, -8.164e-7, 5.386e-7
0.135, -1.358e-6, -8.170e-7, 5.407e-7
0.134, -1.357e-6, -8.167e-7, 5.401e-7
0.133, -1.356e-6, -8.167e-7, 5.389e-7
0.132, -1.359e-6, -8.167e-7, 5.419e-7
0.131, -1.353e-6, -8.139e-7, 5.395e-7
0.130, -1.355e-6, -8.139e-7, 5.407e-7
0.129, -1.354e-6, -8.133e-7, 5.410e-7
0.128, -1.353e-6, -8.121e-7, 5.407e-7
0.127, -1.353e-6, -8.124e-7, 5.404e-7
0.126, -1.354e-6, -8.121e-7, 5.416e-7
0.125, -1.352e-6, -8.090e-7, 5.434e-7
0.124, -1.351e-6, -8.106e-7, 5.401e-7
0.123, -1.352e-6, -8.084e-7, 5.431e-7
0.122, -1.352e-6, -8.084e-7, 5.437e-7
0.121, -1.350e-6, -8.066e-7, 5.431e-7
0.120, -1.349e-6, -8.072e-7, 5.419e-7
0.119, -1.349e-6, -8.066e-7, 5.428e-7
0.118, -1.348e-6, -8.048e-7, 5.428e-7
0.117, -1.348e-6, -8.038e-7, 5.440e-7
0.116, -1.348e-6, -8.035e-7, 5.440e-7
0.115, -1.344e-6, -8.035e-7, 5.407e-7
0.114, -1.346e-6, -8.020e-7, 5.437e-7
0.113, -1.345e-6, -8.008e-7, 5.437e-7
0.112, -1.345e-6, -8.005e-7, 5.443e-7
0.111, -1.346e-6, -8.005e-7, 5.453e-7
0.110, -1.344e-6, -7.983e-7, 5.453e-7
0.109, -1.340e-6, -7.974e-7, 5.425e-7
0.108, -1.340e-6, -7.950e-7, 5.447e-7
0.107, -1.341e-6, -7.959e-7, 5.456e-7
0.106, -1.337e-6, -7.953e-7, 5.419e-7
0.105, -1.341e-6, -7.953e-7, 5.453e-7
0.104, -1.338e-6, -7.947e-7, 5.434e-7
0.103, -1.337e-6, -7.932e-7, 5.437e-7
0.102, -1.334e-6, -7.901e-7, 5.434e-7
0.101, -1.334e-6, -7.895e-7, 5.440e-7
0.100, -1.336e-6, -7.904e-7, 5.453e-7
0.099, -1.334e-6, -7.883e-7, 5.453e-7
0.098, -1.331e-6, -7.871e-7, 5.443e-7
0.097, -1.331e-6, -7.874e-7, 5.434e-7
0.096, -1.331e-6, -7.858e-7, 5.453e-7
0.095, -1.328e-6, -7.843e-7, 5.434e-7
0.094, -1.327e-6, -7.837e-7, 5.437e-7
0.093, -1.325e-6, -7.819e-7, 5.428e-7
0.092, -1.325e-6, -7.825e-7, 5.422e-7
0.091, -1.323e-6, -7.800e-7, 5.428e-7
0.090, -1.320e-6, -7.791e-7, 5.407e-7
0.089, -1.322e-6, -7.788e-7, 5.431e-7
0.088, -1.319e-6, -7.779e-7, 5.410e-7
0.087, -1.318e-6, -7.755e-7, 5.425e-7
0.086, -1.315e-6, -7.742e-7, 5.404e-7
0.085, -1.315e-6, -7.758e-7, 5.395e-7
0.084, -1.315e-6, -7.724e-7, 5.425e-7
0.083, -1.312e-6, -7.718e-7, 5.401e-7
0.082, -1.310e-6, -7.712e-7, 5.389e-7
0.081, -1.310e-6, -7.687e-7, 5.413e-7
0.080, -1.308e-6, -7.687e-7, 5.395e-7
0.079, -1.308e-6, -7.684e-7, 5.392e-7
0.078, -1.304e-6, -7.666e-7, 5.376e-7
0.077, -1.307e-6, -7.660e-7, 5.407e-7
0.076, -1.301e-6, -7.639e-7, 5.370e-7
0.075, -1.302e-6, -7.626e-7, 5.398e-7
0.074, -1.301e-6, -7.633e-7, 5.382e-7
0.073, -1.299e-6, -7.617e-7, 5.370e-7
0.072, -1.294e-6, -7.578e-7, 5.361e-7
0.071, -1.295e-6, -7.581e-7, 5.370e-7
0.070, -1.297e-6, -7.608e-7, 5.358e-7
0.069, -1.291e-6, -7.556e-7, 5.349e-7
0.068, -1.288e-6, -7.544e-7, 5.340e-7
0.067, -1.291e-6, -7.550e-7, 5.358e-7
0.066, -1.287e-6, -7.532e-7, 5.343e-7
0.065, -1.286e-6, -7.526e-7, 5.337e-7
0.064, -1.285e-6, -7.507e-7, 5.343e-7
0.063, -1.283e-6, -7.507e-7, 5.328e-7
0.062, -1.284e-6, -7.486e-7, 5.355e-7
0.061, -1.282e-6, -7.504e-7, 5.312e-7
0.060, -1.280e-6, -7.465e-7, 5.334e-7
0.059, -1.273e-6, -7.440e-7, 5.294e-7
0.058, -1.276e-6, -7.462e-7, 5.303e-7
0.057, -1.272e-6, -7.428e-7, 5.294e-7
0.056, -1.273e-6, -7.440e-7, 5.294e-7
0.055, -1.271e-6, -7.416e-7, 5.297e-7
0.054, -1.270e-6, -7.416e-7, 5.285e-7
0.053, -1.266e-6, -7.382e-7, 5.279e-7
0.052, -1.265e-6, -7.382e-7, 5.263e-7
0.051, -1.262e-6, -7.355e-7, 5.270e-7
0.050, -1.264e-6, -7.373e-7, 5.266e-7
0.049, -1.261e-6, -7.376e-7, 5.236e-7
0.048, -1.261e-6, -7.349e-7, 5.257e-7
0.047, -1.258e-6, -7.324e-7, 5.254e-7
0.046, -1.255e-6, -7.315e-7, 5.230e-7
0.045, -1.252e-6, -7.300e-7, 5.221e-7
0.044, -1.252e-6, -7.291e-7, 5.227e-7
0.043, -1.247e-6, -7.282e-7, 5.184e-7
0.042, -1.250e-6, -7.279e-7, 5.224e-7
0.041, -1.247e-6, -7.266e-7, 5.199e-7
0.040, -1.244e-6, -7.254e-7, 5.190e-7
0.039, -1.245e-6, -7.254e-7, 5.193e-7
0.038, -1.242e-6, -7.227e-7, 5.193e-7
0.037, -1.240e-6, -7.227e-7, 5.172e-7
0.036, -1.241e-6, -7.230e-7, 5.181e-7
0.035, -1.236e-6, -7.205e-7, 5.157e-7
0.034, -1.237e-6, -7.211e-7, 5.160e-7
0.033, -1.234e-6, -7.199e-7, 5.141e-7
0.032, -1.232e-6, -7.175e-7, 5.141e-7
0.031, -1.228e-6, -7.160e-7, 5.123e-7
0.030, -1.230e-6, -7.156e-7, 5.147e-7
0.029, -1.227e-6, -7.144e-7, 5.123e-7
0.028, -1.224e-6, -7.144e-7, 5.093e-7
0.027, -1.225e-6, -7.135e-7, 5.117e-7
0.026, -1.224e-6, -7.126e-7, 5.114e-7
0.025, -1.221e-6, -7.123e-7, 5.086e-7
0.024, -1.218e-6, -7.099e-7, 5.086e-7
0.023, -1.217e-6, -7.092e-7, 5.080e-7
0.022, -1.219e-6, -7.105e-7, 5.086e-7
0.021, -1.215e-6, -7.077e-7, 5.071e-7
0.020, -1.212e-6, -7.068e-7, 5.056e-7
0.019, -1.211e-6, -7.062e-7, 5.053e-7
0.018, -1.211e-6, -7.053e-7, 5.056e-7
0.017, -1.209e-6, -7.047e-7, 5.047e-7
0.016, -1.207e-6, -7.044e-7, 5.028e-7
0.015, -1.206e-6, -7.031e-7, 5.032e-7
0.014, -1.205e-6, -7.013e-7, 5.035e-7
0.013, -1.203e-6, -7.025e-7, 5.007e-7
0.012, -1.202e-6, -7.007e-7, 5.013e-7
0.011, -1.201e-6, -7.007e-7, 5.007e-7
0.010, -1.199e-6, -6.992e-7, 4.995e-7
0.009, -1.200e-6, -6.995e-7, 5.007e-7
0.008, -1.195e-6, -6.973e-7, 4.977e-7
0.007, -1.194e-6, -6.980e-7, 4.964e-7
0.006, -1.192e-6, -6.955e-7, 4.961e-7
0.005, -1.191e-6, -6.946e-7, 4.964e-7
0.004, -1.192e-6, -6.964e-7, 4.955e-7
0.003, -1.190e-6, -6.946e-7, 4.955e-7
0.002, -1.186e-6, -6.937e-7, 4.925e-7
0.001, -1.186e-6, -6.931e-7, 4.925e-7
-0.000, -1.184e-6, -6.918e-7, 4.925e-7
-0.001, -1.183e-6, -6.915e-7, 4.919e-7
-0.002, -1.183e-6, -6.915e-7, 4.912e-7
-0.003, -1.181e-6, -6.897e-7, 4.909e-7
-0.004, -1.179e-6, -6.897e-7, 4.894e-7
-0.005, -1.178e-6, -6.897e-7, 4.882e-7
-0.006, -1.176e-6, -6.888e-7, 4.873e-7
-0.007, -1.173e-6, -6.864e-7, 4.867e-7
-0.008, -1.173e-6, -6.867e-7, 4.861e-7
-0.009, -1.174e-6, -6.870e-7, 4.873e-7
-0.010, -1.175e-6, -6.882e-7, 4.864e-7
-0.011, -1.173e-6, -6.876e-7, 4.858e-7
-0.012, -1.172e-6, -6.854e-7, 4.861e-7
-0.013, -1.167e-6, -6.830e-7, 4.842e-7
-0.014, -1.167e-6, -6.854e-7, 4.815e-7
-0.015, -1.168e-6, -6.845e-7, 4.833e-7
-0.016, -1.165e-6, -6.845e-7, 4.809e-7
-0.017, -1.164e-6, -6.830e-7, 4.815e-7
-0.018, -1.164e-6, -6.824e-7, 4.812e-7
-0.019, -1.164e-6, -6.836e-7, 4.809e-7
-0.020, -1.163e-6, -6.818e-7, 4.815e-7
-0.021, -1.162e-6, -6.815e-7, 4.803e-7
-0.022, -1.159e-6, -6.796e-7, 4.793e-7
-0.023, -1.156e-6, -6.787e-7, 4.775e-7
-0.024, -1.157e-6, -6.787e-7, 4.784e-7
-0.025, -1.155e-6, -6.778e-7, 4.769e-7
-0.026, -1.155e-6, -6.787e-7, 4.760e-7
-0.027, -1.157e-6, -6.790e-7, 4.784e-7
-0.028, -1.153e-6, -6.793e-7, 4.742e-7
-0.029, -1.153e-6, -6.784e-7, 4.748e-7
-0.030, -1.153e-6, -6.772e-7, 4.754e-7
-0.031, -1.151e-6, -6.775e-7, 4.732e-7
-0.032, -1.152e-6, -6.784e-7, 4.736e-7
-0.033, -1.151e-6, -6.781e-7, 4.732e-7
-0.034, -1.149e-6, -6.757e-7, 4.729e-7
-0.035, -1.147e-6, -6.754e-7, 4.717e-7
-0.036, -1.147e-6, -6.745e-7, 4.729e-7
-0.037, -1.144e-6, -6.741e-7, 4.696e-7
-0.038, -1.146e-6, -6.751e-7, 4.714e-7
-0.039, -1.143e-6, -6.745e-7, 4.690e-7
-0.040, -1.145e-6, -6.751e-7, 4.696e-7
-0.041, -1.143e-6, -6.738e-7, 4.687e-7
-0.042, -1.144e-6, -6.754e-7, 4.684e-7
-0.043, -1.142e-6, -6.735e-7, 4.684e-7
-0.044, -1.139e-6, -6.732e-7, 4.662e-7
-0.045, -1.142e-6, -6.745e-7, 4.671e-7
-0.046, -1.140e-6, -6.745e-7, 4.656e-7
-0.047, -1.139e-6, -6.723e-7, 4.662e-7
-0.048, -1.138e-6, -6.720e-7, 4.662e-7
-0.049, -1.139e-6, -6.720e-7, 4.665e-7
-0.050, -1.135e-6, -6.711e-7, 4.641e-7
