Feb. 28, 2018   11:42:12
Square Wave Voltammetry
File: c:\users\electrochemist\desktop\2018\28022018_unbuffered_9,2\20_e6_9,2_0118_ph6,05_3.txt
Data Source:  Experiment
Instrument Model:  CHI1040A
Header: 
Note: 

Init E (V) = 0.5
Final E (V) = -0.05
Incr E (V) = 0.001
Amplitude (V) = 0.1
Frequency (Hz) = 150
Quiet Time (sec) = 0
Sensitivity (A/V) = 1e-6

Difference:

Forward:

Reverse:
Ep = 0.082V
ip = 6.726e-10A
Ah = 1.790e-10VA

Potential/V, Diff(i/A), For(i/A), Rev(i/A)

0.499, -7.702e-7, -1.993e-7, 5.709e-7
0.498, -9.545e-7, -4.630e-7, 4.916e-7
0.497, -9.457e-7, -4.791e-7, 4.665e-7
0.496, -9.368e-7, -4.862e-7, 4.507e-7
0.495, -9.313e-7, -4.901e-7, 4.412e-7
0.494, -9.280e-7, -4.923e-7, 4.357e-7
0.493, -9.204e-7, -4.932e-7, 4.272e-7
0.492, -9.207e-7, -4.968e-7, 4.238e-7
0.491, -9.161e-7, -4.962e-7, 4.198e-7
0.490, -9.109e-7, -4.962e-7, 4.147e-7
0.489, -9.121e-7, -4.984e-7, 4.137e-7
0.488, -9.063e-7, -4.975e-7, 4.089e-7
0.487, -9.063e-7, -4.978e-7, 4.086e-7
0.486, -9.030e-7, -4.999e-7, 4.031e-7
0.485, -9.039e-7, -4.996e-7, 4.043e-7
0.484, -9.036e-7, -5.017e-7, 4.018e-7
0.483, -9.030e-7, -5.036e-7, 3.994e-7
0.482, -9.033e-7, -5.020e-7, 4.012e-7
0.481, -9.008e-7, -5.033e-7, 3.976e-7
0.480, -8.999e-7, -5.045e-7, 3.954e-7
0.479, -9.020e-7, -5.042e-7, 3.979e-7
0.478, -8.990e-7, -5.057e-7, 3.933e-7
0.477, -8.999e-7, -5.060e-7, 3.939e-7
0.476, -9.017e-7, -5.066e-7, 3.951e-7
0.475, -8.996e-7, -5.069e-7, 3.927e-7
0.474, -8.984e-7, -5.084e-7, 3.899e-7
0.473, -8.990e-7, -5.081e-7, 3.909e-7
0.472, -8.950e-7, -5.066e-7, 3.884e-7
0.471, -8.962e-7, -5.084e-7, 3.878e-7
0.470, -8.981e-7, -5.091e-7, 3.890e-7
0.469, -8.959e-7, -5.094e-7, 3.866e-7
0.468, -8.987e-7, -5.112e-7, 3.875e-7
0.467, -9.002e-7, -5.121e-7, 3.881e-7
0.466, -8.969e-7, -5.121e-7, 3.848e-7
0.465, -9.002e-7, -5.139e-7, 3.863e-7
0.464, -9.008e-7, -5.142e-7, 3.866e-7
0.463, -8.978e-7, -5.136e-7, 3.841e-7
0.462, -8.999e-7, -5.164e-7, 3.835e-7
0.461, -8.984e-7, -5.152e-7, 3.832e-7
0.460, -8.993e-7, -5.167e-7, 3.826e-7
0.459, -9.002e-7, -5.170e-7, 3.832e-7
0.458, -9.011e-7, -5.173e-7, 3.838e-7
0.457, -8.978e-7, -5.164e-7, 3.814e-7
0.456, -9.024e-7, -5.203e-7, 3.820e-7
0.455, -9.024e-7, -5.191e-7, 3.832e-7
0.454, -9.030e-7, -5.203e-7, 3.826e-7
0.453, -9.054e-7, -5.228e-7, 3.826e-7
0.452, -9.024e-7, -5.213e-7, 3.811e-7
0.451, -9.048e-7, -5.231e-7, 3.817e-7
0.450, -9.060e-7, -5.243e-7, 3.817e-7
0.449, -9.054e-7, -5.240e-7, 3.814e-7
0.448, -9.033e-7, -5.234e-7, 3.799e-7
0.447, -9.039e-7, -5.249e-7, 3.790e-7
0.446, -9.069e-7, -5.261e-7, 3.808e-7
0.445, -9.072e-7, -5.268e-7, 3.805e-7
0.444, -9.091e-7, -5.283e-7, 3.808e-7
0.443, -9.097e-7, -5.277e-7, 3.820e-7
0.442, -9.091e-7, -5.289e-7, 3.802e-7
0.441, -9.106e-7, -5.295e-7, 3.811e-7
0.440, -9.124e-7, -5.316e-7, 3.808e-7
0.439, -9.106e-7, -5.310e-7, 3.796e-7
0.438, -9.106e-7, -5.319e-7, 3.787e-7
0.437, -9.121e-7, -5.322e-7, 3.799e-7
0.436, -9.118e-7, -5.329e-7, 3.790e-7
0.435, -9.133e-7, -5.344e-7, 3.790e-7
0.434, -9.146e-7, -5.347e-7, 3.799e-7
0.433, -9.173e-7, -5.368e-7, 3.805e-7
0.432, -9.158e-7, -5.368e-7, 3.790e-7
0.431, -9.185e-7, -5.374e-7, 3.811e-7
0.430, -9.170e-7, -5.380e-7, 3.790e-7
0.429, -9.219e-7, -5.405e-7, 3.814e-7
0.428, -9.207e-7, -5.396e-7, 3.811e-7
0.427, -9.216e-7, -5.408e-7, 3.808e-7
0.426, -9.228e-7, -5.420e-7, 3.808e-7
0.425, -9.249e-7, -5.438e-7, 3.811e-7
0.424, -9.252e-7, -5.441e-7, 3.811e-7
0.423, -9.252e-7, -5.445e-7, 3.808e-7
0.422, -9.252e-7, -5.448e-7, 3.805e-7
0.421, -9.268e-7, -5.460e-7, 3.808e-7
0.420, -9.310e-7, -5.490e-7, 3.820e-7
0.419, -9.316e-7, -5.496e-7, 3.820e-7
0.418, -9.316e-7, -5.499e-7, 3.817e-7
0.417, -9.329e-7, -5.515e-7, 3.814e-7
0.416, -9.332e-7, -5.512e-7, 3.820e-7
0.415, -9.341e-7, -5.524e-7, 3.817e-7
0.414, -9.371e-7, -5.542e-7, 3.829e-7
0.413, -9.381e-7, -5.554e-7, 3.826e-7
0.412, -9.371e-7, -5.542e-7, 3.829e-7
0.411, -9.387e-7, -5.573e-7, 3.814e-7
0.410, -9.390e-7, -5.570e-7, 3.820e-7
0.409, -9.390e-7, -5.576e-7, 3.814e-7
0.408, -9.414e-7, -5.588e-7, 3.826e-7
0.407, -9.432e-7, -5.597e-7, 3.835e-7
0.406, -9.426e-7, -5.609e-7, 3.817e-7
0.405, -9.457e-7, -5.628e-7, 3.829e-7
0.404, -9.451e-7, -5.631e-7, 3.820e-7
0.403, -9.475e-7, -5.637e-7, 3.838e-7
0.402, -9.515e-7, -5.655e-7, 3.860e-7
0.401, -9.503e-7, -5.661e-7, 3.841e-7
0.400, -9.536e-7, -5.679e-7, 3.857e-7
0.399, -9.542e-7, -5.695e-7, 3.848e-7
0.398, -9.570e-7, -5.701e-7, 3.869e-7
0.397, -9.567e-7, -5.704e-7, 3.863e-7
0.396, -9.576e-7, -5.734e-7, 3.841e-7
0.395, -9.582e-7, -5.713e-7, 3.869e-7
0.394, -9.597e-7, -5.741e-7, 3.857e-7
0.393, -9.619e-7, -5.765e-7, 3.854e-7
0.392, -9.625e-7, -5.762e-7, 3.863e-7
0.391, -9.646e-7, -5.777e-7, 3.869e-7
0.390, -9.670e-7, -5.795e-7, 3.875e-7
0.389, -9.661e-7, -5.789e-7, 3.872e-7
0.388, -9.698e-7, -5.823e-7, 3.875e-7
0.387, -9.710e-7, -5.817e-7, 3.893e-7
0.386, -9.704e-7, -5.829e-7, 3.875e-7
0.385, -9.735e-7, -5.850e-7, 3.884e-7
0.384, -9.725e-7, -5.841e-7, 3.884e-7
0.383, -9.747e-7, -5.853e-7, 3.893e-7
0.382, -9.759e-7, -5.869e-7, 3.890e-7
0.381, -9.783e-7, -5.878e-7, 3.906e-7
0.380, -9.802e-7, -5.902e-7, 3.899e-7
0.379, -9.817e-7, -5.914e-7, 3.902e-7
0.378, -9.820e-7, -5.921e-7, 3.899e-7
0.377, -9.847e-7, -5.927e-7, 3.921e-7
0.376, -9.841e-7, -5.942e-7, 3.899e-7
0.375, -9.887e-7, -5.963e-7, 3.924e-7
0.374, -9.893e-7, -5.966e-7, 3.927e-7
0.373, -9.905e-7, -5.985e-7, 3.921e-7
0.372, -9.924e-7, -5.988e-7, 3.936e-7
0.371, -9.945e-7, -6.000e-7, 3.945e-7
0.370, -9.960e-7, -6.021e-7, 3.939e-7
0.369, -9.982e-7, -6.037e-7, 3.945e-7
0.368, -9.976e-7, -6.033e-7, 3.942e-7
0.367, -9.991e-7, -6.058e-7, 3.933e-7
0.366, -1.003e-6, -6.076e-7, 3.951e-7
0.365, -1.005e-6, -6.091e-7, 3.957e-7
0.364, -1.005e-6, -6.091e-7, 3.963e-7
0.363, -1.007e-6, -6.104e-7, 3.970e-7
0.362, -1.008e-6, -6.116e-7, 3.963e-7
0.361, -1.011e-6, -6.140e-7, 3.967e-7
0.360, -1.013e-6, -6.137e-7, 3.988e-7
0.359, -1.014e-6, -6.149e-7, 3.988e-7
0.358, -1.017e-6, -6.177e-7, 3.991e-7
0.357, -1.020e-6, -6.192e-7, 4.003e-7
0.356, -1.019e-6, -6.189e-7, 4.000e-7
0.355, -1.018e-6, -6.192e-7, 3.985e-7
0.354, -1.021e-6, -6.226e-7, 3.988e-7
0.353, -1.024e-6, -6.244e-7, 4.000e-7
0.352, -1.025e-6, -6.247e-7, 4.003e-7
0.351, -1.028e-6, -6.268e-7, 4.015e-7
0.350, -1.028e-6, -6.256e-7, 4.025e-7
0.349, -1.031e-6, -6.290e-7, 4.025e-7
0.348, -1.032e-6, -6.302e-7, 4.015e-7
0.347, -1.034e-6, -6.317e-7, 4.021e-7
0.346, -1.036e-6, -6.333e-7, 4.025e-7
0.345, -1.039e-6, -6.348e-7, 4.046e-7
0.344, -1.043e-6, -6.372e-7, 4.058e-7
0.343, -1.042e-6, -6.366e-7, 4.058e-7
0.342, -1.044e-6, -6.381e-7, 4.061e-7
0.341, -1.046e-6, -6.391e-7, 4.067e-7
0.340, -1.047e-6, -6.406e-7, 4.064e-7
0.339, -1.050e-6, -6.421e-7, 4.083e-7
0.338, -1.050e-6, -6.433e-7, 4.070e-7
0.337, -1.052e-6, -6.439e-7, 4.086e-7
0.336, -1.055e-6, -6.464e-7, 4.086e-7
0.335, -1.056e-6, -6.476e-7, 4.089e-7
0.334, -1.061e-6, -6.497e-7, 4.110e-7
0.333, -1.062e-6, -6.519e-7, 4.101e-7
0.332, -1.063e-6, -6.519e-7, 4.107e-7
0.331, -1.067e-6, -6.546e-7, 4.122e-7
0.330, -1.065e-6, -6.540e-7, 4.113e-7
0.329, -1.068e-6, -6.555e-7, 4.122e-7
0.328, -1.072e-6, -6.592e-7, 4.125e-7
0.327, -1.073e-6, -6.595e-7, 4.131e-7
0.326, -1.075e-6, -6.619e-7, 4.131e-7
0.325, -1.079e-6, -6.629e-7, 4.159e-7
0.324, -1.081e-6, -6.635e-7, 4.171e-7
0.323, -1.081e-6, -6.647e-7, 4.159e-7
0.322, -1.084e-6, -6.677e-7, 4.162e-7
0.321, -1.085e-6, -6.671e-7, 4.180e-7
0.320, -1.087e-6, -6.693e-7, 4.180e-7
0.319, -1.090e-6, -6.720e-7, 4.183e-7
0.318, -1.090e-6, -6.720e-7, 4.180e-7
0.317, -1.092e-6, -6.732e-7, 4.189e-7
0.316, -1.094e-6, -6.754e-7, 4.183e-7
0.315, -1.097e-6, -6.766e-7, 4.205e-7
0.314, -1.097e-6, -6.781e-7, 4.186e-7
0.313, -1.100e-6, -6.787e-7, 4.214e-7
0.312, -1.104e-6, -6.815e-7, 4.223e-7
0.311, -1.103e-6, -6.824e-7, 4.205e-7
0.310, -1.106e-6, -6.836e-7, 4.226e-7
0.309, -1.110e-6, -6.848e-7, 4.250e-7
0.308, -1.111e-6, -6.873e-7, 4.235e-7
0.307, -1.114e-6, -6.888e-7, 4.250e-7
0.306, -1.114e-6, -6.897e-7, 4.238e-7
0.305, -1.119e-6, -6.922e-7, 4.269e-7
0.304, -1.120e-6, -6.925e-7, 4.275e-7
0.303, -1.122e-6, -6.943e-7, 4.275e-7
0.302, -1.121e-6, -6.934e-7, 4.278e-7
0.301, -1.125e-6, -6.970e-7, 4.284e-7
0.300, -1.128e-6, -6.986e-7, 4.296e-7
0.299, -1.128e-6, -6.986e-7, 4.296e-7
0.298, -1.132e-6, -7.010e-7, 4.311e-7
0.297, -1.133e-6, -7.022e-7, 4.308e-7
0.296, -1.132e-6, -7.031e-7, 4.290e-7
0.295, -1.135e-6, -7.047e-7, 4.308e-7
0.294, -1.143e-6, -7.086e-7, 4.339e-7
0.293, -1.140e-6, -7.071e-7, 4.333e-7
0.292, -1.146e-6, -7.111e-7, 4.348e-7
0.291, -1.144e-6, -7.098e-7, 4.345e-7
0.290, -1.149e-6, -7.129e-7, 4.360e-7
0.289, -1.152e-6, -7.160e-7, 4.363e-7
0.288, -1.153e-6, -7.153e-7, 4.382e-7
0.287, -1.154e-6, -7.172e-7, 4.372e-7
0.286, -1.157e-6, -7.190e-7, 4.375e-7
0.285, -1.161e-6, -7.202e-7, 4.403e-7
0.284, -1.161e-6, -7.211e-7, 4.400e-7
0.283, -1.161e-6, -7.218e-7, 4.391e-7
0.282, -1.165e-6, -7.233e-7, 4.415e-7
0.281, -1.168e-6, -7.254e-7, 4.424e-7
0.280, -1.170e-6, -7.269e-7, 4.427e-7
0.279, -1.170e-6, -7.266e-7, 4.436e-7
0.278, -1.172e-6, -7.294e-7, 4.424e-7
0.277, -1.175e-6, -7.306e-7, 4.443e-7
0.276, -1.177e-6, -7.327e-7, 4.446e-7
0.275, -1.178e-6, -7.333e-7, 4.449e-7
0.274, -1.182e-6, -7.349e-7, 4.467e-7
0.273, -1.185e-6, -7.358e-7, 4.488e-7
0.272, -1.187e-6, -7.388e-7, 4.485e-7
0.271, -1.190e-6, -7.401e-7, 4.494e-7
0.270, -1.190e-6, -7.404e-7, 4.491e-7
0.269, -1.190e-6, -7.410e-7, 4.491e-7
0.268, -1.195e-6, -7.437e-7, 4.510e-7
0.267, -1.197e-6, -7.446e-7, 4.519e-7
0.266, -1.199e-6, -7.471e-7, 4.519e-7
0.265, -1.203e-6, -7.504e-7, 4.525e-7
0.264, -1.201e-6, -7.474e-7, 4.537e-7
0.263, -1.208e-6, -7.526e-7, 4.552e-7
0.262, -1.208e-6, -7.514e-7, 4.562e-7
0.261, -1.210e-6, -7.529e-7, 4.574e-7
0.260, -1.211e-6, -7.550e-7, 4.555e-7
0.259, -1.213e-6, -7.565e-7, 4.568e-7
0.258, -1.216e-6, -7.568e-7, 4.592e-7
0.257, -1.220e-6, -7.593e-7, 4.604e-7
0.256, -1.219e-6, -7.596e-7, 4.595e-7
0.255, -1.221e-6, -7.599e-7, 4.607e-7
0.254, -1.224e-6, -7.626e-7, 4.613e-7
0.253, -1.226e-6, -7.639e-7, 4.617e-7
0.252, -1.230e-6, -7.648e-7, 4.650e-7
0.251, -1.229e-6, -7.654e-7, 4.638e-7
0.250, -1.234e-6, -7.691e-7, 4.653e-7
0.249, -1.234e-6, -7.687e-7, 4.650e-7
0.248, -1.235e-6, -7.691e-7, 4.659e-7
0.247, -1.239e-6, -7.715e-7, 4.671e-7
0.246, -1.242e-6, -7.736e-7, 4.681e-7
0.245, -1.240e-6, -7.724e-7, 4.678e-7
0.244, -1.243e-6, -7.748e-7, 4.678e-7
0.243, -1.247e-6, -7.755e-7, 4.720e-7
0.242, -1.246e-6, -7.764e-7, 4.693e-7
0.241, -1.251e-6, -7.794e-7, 4.717e-7
0.240, -1.253e-6, -7.791e-7, 4.736e-7
0.239, -1.252e-6, -7.806e-7, 4.714e-7
0.238, -1.256e-6, -7.825e-7, 4.732e-7
0.237, -1.258e-6, -7.831e-7, 4.751e-7
0.236, -1.258e-6, -7.843e-7, 4.739e-7
0.235, -1.263e-6, -7.867e-7, 4.760e-7
0.234, -1.262e-6, -7.849e-7, 4.775e-7
0.233, -1.264e-6, -7.874e-7, 4.766e-7
0.232, -1.266e-6, -7.886e-7, 4.775e-7
0.231, -1.269e-6, -7.886e-7, 4.800e-7
0.230, -1.269e-6, -7.916e-7, 4.778e-7
0.229, -1.273e-6, -7.929e-7, 4.806e-7
0.228, -1.274e-6, -7.925e-7, 4.812e-7
0.227, -1.274e-6, -7.925e-7, 4.812e-7
0.226, -1.278e-6, -7.950e-7, 4.827e-7
0.225, -1.282e-6, -7.959e-7, 4.861e-7
0.224, -1.282e-6, -7.977e-7, 4.842e-7
0.223, -1.283e-6, -7.974e-7, 4.861e-7
0.222, -1.285e-6, -7.990e-7, 4.858e-7
0.221, -1.285e-6, -7.983e-7, 4.870e-7
0.220, -1.288e-6, -8.002e-7, 4.879e-7
0.219, -1.290e-6, -8.011e-7, 4.885e-7
0.218, -1.294e-6, -8.041e-7, 4.903e-7
0.217, -1.294e-6, -8.029e-7, 4.909e-7
0.216, -1.298e-6, -8.060e-7, 4.919e-7
0.215, -1.296e-6, -8.054e-7, 4.906e-7
0.214, -1.300e-6, -8.066e-7, 4.937e-7
0.213, -1.299e-6, -8.069e-7, 4.925e-7
0.212, -1.301e-6, -8.078e-7, 4.934e-7
0.211, -1.301e-6, -8.081e-7, 4.934e-7
0.210, -1.304e-6, -8.096e-7, 4.943e-7
0.209, -1.305e-6, -8.106e-7, 4.943e-7
0.208, -1.309e-6, -8.124e-7, 4.967e-7
0.207, -1.310e-6, -8.121e-7, 4.977e-7
0.206, -1.309e-6, -8.112e-7, 4.974e-7
0.205, -1.313e-6, -8.145e-7, 4.986e-7
0.204, -1.315e-6, -8.151e-7, 4.998e-7
0.203, -1.316e-6, -8.148e-7, 5.013e-7
0.202, -1.317e-6, -8.157e-7, 5.016e-7
0.201, -1.319e-6, -8.148e-7, 5.041e-7
0.200, -1.319e-6, -8.173e-7, 5.013e-7
0.199, -1.321e-6, -8.176e-7, 5.038e-7
0.198, -1.322e-6, -8.173e-7, 5.050e-7
0.197, -1.324e-6, -8.191e-7, 5.050e-7
0.196, -1.323e-6, -8.191e-7, 5.035e-7
0.195, -1.324e-6, -8.185e-7, 5.059e-7
0.194, -1.328e-6, -8.209e-7, 5.074e-7
0.193, -1.330e-6, -8.228e-7, 5.074e-7
0.192, -1.328e-6, -8.200e-7, 5.083e-7
0.191, -1.330e-6, -8.215e-7, 5.083e-7
0.190, -1.331e-6, -8.215e-7, 5.096e-7
0.189, -1.333e-6, -8.225e-7, 5.108e-7
0.188, -1.336e-6, -8.246e-7, 5.114e-7
0.187, -1.337e-6, -8.246e-7, 5.126e-7
0.186, -1.338e-6, -8.240e-7, 5.135e-7
0.185, -1.338e-6, -8.258e-7, 5.117e-7
0.184, -1.340e-6, -8.261e-7, 5.138e-7
0.183, -1.340e-6, -8.249e-7, 5.151e-7
0.182, -1.342e-6, -8.264e-7, 5.160e-7
0.181, -1.342e-6, -8.273e-7, 5.147e-7
0.180, -1.344e-6, -8.267e-7, 5.169e-7
0.179, -1.342e-6, -8.255e-7, 5.166e-7
0.178, -1.348e-6, -8.279e-7, 5.199e-7
0.177, -1.346e-6, -8.276e-7, 5.184e-7
0.176, -1.346e-6, -8.279e-7, 5.184e-7
0.175, -1.348e-6, -8.289e-7, 5.187e-7
0.174, -1.349e-6, -8.273e-7, 5.218e-7
0.173, -1.349e-6, -8.276e-7, 5.218e-7
0.172, -1.352e-6, -8.292e-7, 5.224e-7
0.171, -1.351e-6, -8.276e-7, 5.236e-7
0.170, -1.352e-6, -8.295e-7, 5.227e-7
0.169, -1.353e-6, -8.289e-7, 5.239e-7
0.168, -1.352e-6, -8.270e-7, 5.248e-7
0.167, -1.353e-6, -8.289e-7, 5.242e-7
0.166, -1.353e-6, -8.276e-7, 5.254e-7
0.165, -1.358e-6, -8.295e-7, 5.282e-7
0.164, -1.355e-6, -8.289e-7, 5.257e-7
0.163, -1.357e-6, -8.289e-7, 5.279e-7
0.162, -1.356e-6, -8.283e-7, 5.282e-7
0.161, -1.357e-6, -8.283e-7, 5.285e-7
0.160, -1.357e-6, -8.292e-7, 5.282e-7
0.159, -1.358e-6, -8.276e-7, 5.300e-7
0.158, -1.359e-6, -8.286e-7, 5.309e-7
0.157, -1.358e-6, -8.276e-7, 5.306e-7
0.156, -1.359e-6, -8.283e-7, 5.309e-7
0.155, -1.361e-6, -8.286e-7, 5.324e-7
0.154, -1.363e-6, -8.298e-7, 5.337e-7
0.153, -1.360e-6, -8.273e-7, 5.328e-7
0.152, -1.360e-6, -8.267e-7, 5.331e-7
0.151, -1.363e-6, -8.276e-7, 5.352e-7
0.150, -1.361e-6, -8.264e-7, 5.346e-7
0.149, -1.363e-6, -8.270e-7, 5.358e-7
0.148, -1.365e-6, -8.283e-7, 5.364e-7
0.147, -1.362e-6, -8.264e-7, 5.358e-7
0.146, -1.363e-6, -8.258e-7, 5.367e-7
0.145, -1.365e-6, -8.258e-7, 5.389e-7
0.144, -1.365e-6, -8.252e-7, 5.398e-7
0.143, -1.364e-6, -8.258e-7, 5.379e-7
0.142, -1.364e-6, -8.252e-7, 5.386e-7
0.141, -1.364e-6, -8.243e-7, 5.395e-7
0.140, -1.365e-6, -8.246e-7, 5.401e-7
0.139, -1.364e-6, -8.243e-7, 5.395e-7
0.138, -1.362e-6, -8.225e-7, 5.398e-7
0.137, -1.363e-6, -8.228e-7, 5.404e-7
0.136, -1.364e-6, -8.231e-7, 5.410e-7
0.135, -1.363e-6, -8.212e-7, 5.419e-7
0.134, -1.365e-6, -8.225e-7, 5.422e-7
0.133, -1.364e-6, -8.215e-7, 5.428e-7
0.132, -1.363e-6, -8.200e-7, 5.434e-7
0.131, -1.360e-6, -8.197e-7, 5.407e-7
0.130, -1.360e-6, -8.185e-7, 5.419e-7
0.129, -1.361e-6, -8.191e-7, 5.422e-7
0.128, -1.361e-6, -8.179e-7, 5.428e-7
0.127, -1.362e-6, -8.179e-7, 5.440e-7
0.126, -1.362e-6, -8.170e-7, 5.447e-7
0.125, -1.361e-6, -8.167e-7, 5.440e-7
0.124, -1.362e-6, -8.157e-7, 5.465e-7
0.123, -1.359e-6, -8.154e-7, 5.437e-7
0.122, -1.359e-6, -8.145e-7, 5.447e-7
0.121, -1.358e-6, -8.127e-7, 5.453e-7
0.120, -1.357e-6, -8.121e-7, 5.453e-7
0.119, -1.360e-6, -8.139e-7, 5.465e-7
0.118, -1.360e-6, -8.124e-7, 5.474e-7
0.117, -1.357e-6, -8.099e-7, 5.471e-7
0.116, -1.355e-6, -8.093e-7, 5.459e-7
0.115, -1.357e-6, -8.090e-7, 5.477e-7
0.114, -1.354e-6, -8.075e-7, 5.462e-7
0.113, -1.356e-6, -8.090e-7, 5.468e-7
0.112, -1.354e-6, -8.063e-7, 5.477e-7
0.111, -1.352e-6, -8.048e-7, 5.474e-7
0.110, -1.353e-6, -8.051e-7, 5.480e-7
0.109, -1.352e-6, -8.051e-7, 5.471e-7
0.108, -1.348e-6, -8.014e-7, 5.471e-7
0.107, -1.349e-6, -8.035e-7, 5.459e-7
0.106, -1.350e-6, -8.017e-7, 5.483e-7
0.105, -1.350e-6, -8.011e-7, 5.486e-7
0.104, -1.344e-6, -7.987e-7, 5.456e-7
0.103, -1.344e-6, -7.983e-7, 5.456e-7
0.102, -1.345e-6, -7.971e-7, 5.474e-7
0.101, -1.344e-6, -7.974e-7, 5.465e-7
0.100, -1.342e-6, -7.941e-7, 5.480e-7
0.099, -1.343e-6, -7.941e-7, 5.486e-7
0.098, -1.341e-6, -7.938e-7, 5.477e-7
0.097, -1.341e-6, -7.938e-7, 5.477e-7
0.096, -1.339e-6, -7.922e-7, 5.471e-7
0.095, -1.338e-6, -7.919e-7, 5.459e-7
0.094, -1.337e-6, -7.901e-7, 5.468e-7
0.093, -1.335e-6, -7.886e-7, 5.468e-7
0.092, -1.335e-6, -7.886e-7, 5.468e-7
0.091, -1.336e-6, -7.886e-7, 5.477e-7
0.090, -1.332e-6, -7.852e-7, 5.465e-7
0.089, -1.331e-6, -7.852e-7, 5.462e-7
0.088, -1.332e-6, -7.840e-7, 5.480e-7
0.087, -1.329e-6, -7.834e-7, 5.459e-7
0.086, -1.326e-6, -7.806e-7, 5.456e-7
0.085, -1.327e-6, -7.813e-7, 5.456e-7
0.084, -1.324e-6, -7.794e-7, 5.447e-7
0.083, -1.324e-6, -7.794e-7, 5.443e-7
0.082, -1.325e-6, -7.785e-7, 5.462e-7
0.081, -1.322e-6, -7.770e-7, 5.447e-7
0.080, -1.319e-6, -7.745e-7, 5.443e-7
0.079, -1.318e-6, -7.745e-7, 5.431e-7
0.078, -1.318e-6, -7.727e-7, 5.450e-7
0.077, -1.316e-6, -7.724e-7, 5.434e-7
0.076, -1.314e-6, -7.706e-7, 5.437e-7
0.075, -1.311e-6, -7.684e-7, 5.425e-7
0.074, -1.310e-6, -7.694e-7, 5.410e-7
0.073, -1.309e-6, -7.678e-7, 5.416e-7
0.072, -1.307e-6, -7.657e-7, 5.413e-7
0.071, -1.308e-6, -7.660e-7, 5.419e-7
0.070, -1.306e-6, -7.648e-7, 5.410e-7
0.069, -1.304e-6, -7.633e-7, 5.404e-7
0.068, -1.301e-6, -7.614e-7, 5.395e-7
0.067, -1.302e-6, -7.614e-7, 5.407e-7
0.066, -1.299e-6, -7.596e-7, 5.392e-7
0.065, -1.296e-6, -7.590e-7, 5.370e-7
0.064, -1.298e-6, -7.584e-7, 5.392e-7
0.063, -1.294e-6, -7.568e-7, 5.367e-7
0.062, -1.293e-6, -7.559e-7, 5.370e-7
0.061, -1.292e-6, -7.535e-7, 5.382e-7
0.060, -1.287e-6, -7.520e-7, 5.355e-7
0.059, -1.286e-6, -7.517e-7, 5.346e-7
0.058, -1.288e-6, -7.510e-7, 5.373e-7
0.057, -1.283e-6, -7.495e-7, 5.340e-7
0.056, -1.284e-6, -7.480e-7, 5.358e-7
0.055, -1.280e-6, -7.462e-7, 5.343e-7
0.054, -1.279e-6, -7.462e-7, 5.328e-7
0.053, -1.276e-6, -7.452e-7, 5.312e-7
0.052, -1.276e-6, -7.440e-7, 5.318e-7
0.051, -1.272e-6, -7.422e-7, 5.300e-7
0.050, -1.273e-6, -7.416e-7, 5.312e-7
0.049, -1.272e-6, -7.416e-7, 5.306e-7
0.048, -1.270e-6, -7.398e-7, 5.300e-7
0.047, -1.269e-6, -7.391e-7, 5.303e-7
0.046, -1.267e-6, -7.373e-7, 5.297e-7
0.045, -1.263e-6, -7.352e-7, 5.279e-7
0.044, -1.262e-6, -7.355e-7, 5.270e-7
0.043, -1.262e-6, -7.349e-7, 5.276e-7
0.042, -1.258e-6, -7.327e-7, 5.254e-7
0.041, -1.260e-6, -7.333e-7, 5.263e-7
0.040, -1.257e-6, -7.303e-7, 5.266e-7
0.039, -1.252e-6, -7.288e-7, 5.236e-7
0.038, -1.253e-6, -7.294e-7, 5.236e-7
0.037, -1.251e-6, -7.276e-7, 5.239e-7
0.036, -1.251e-6, -7.269e-7, 5.242e-7
0.035, -1.248e-6, -7.269e-7, 5.212e-7
0.034, -1.247e-6, -7.248e-7, 5.227e-7
0.033, -1.244e-6, -7.248e-7, 5.190e-7
0.032, -1.244e-6, -7.233e-7, 5.202e-7
0.031, -1.240e-6, -7.205e-7, 5.196e-7
0.030, -1.237e-6, -7.205e-7, 5.166e-7
0.029, -1.237e-6, -7.205e-7, 5.160e-7
0.028, -1.236e-6, -7.187e-7, 5.175e-7
0.027, -1.234e-6, -7.184e-7, 5.157e-7
0.026, -1.231e-6, -7.166e-7, 5.141e-7
0.025, -1.231e-6, -7.150e-7, 5.157e-7
0.024, -1.229e-6, -7.144e-7, 5.147e-7
0.023, -1.225e-6, -7.129e-7, 5.120e-7
0.022, -1.228e-6, -7.138e-7, 5.141e-7
0.021, -1.223e-6, -7.120e-7, 5.111e-7
0.020, -1.221e-6, -7.111e-7, 5.096e-7
0.019, -1.222e-6, -7.102e-7, 5.114e-7
0.018, -1.220e-6, -7.092e-7, 5.111e-7
0.017, -1.220e-6, -7.092e-7, 5.105e-7
0.016, -1.216e-6, -7.068e-7, 5.093e-7
0.015, -1.214e-6, -7.068e-7, 5.074e-7
0.014, -1.215e-6, -7.065e-7, 5.080e-7
0.013, -1.214e-6, -7.056e-7, 5.080e-7
0.012, -1.209e-6, -7.037e-7, 5.053e-7
0.011, -1.208e-6, -7.041e-7, 5.044e-7
0.010, -1.208e-6, -7.025e-7, 5.056e-7
0.009, -1.204e-6, -7.016e-7, 5.022e-7
0.008, -1.205e-6, -7.010e-7, 5.044e-7
0.007, -1.205e-6, -7.004e-7, 5.044e-7
0.006, -1.200e-6, -6.992e-7, 5.010e-7
0.005, -1.200e-6, -7.001e-7, 5.004e-7
0.004, -1.199e-6, -6.980e-7, 5.013e-7
0.003, -1.196e-6, -6.967e-7, 4.989e-7
0.002, -1.198e-6, -6.992e-7, 4.986e-7
0.001, -1.195e-6, -6.961e-7, 4.992e-7
-0.000, -1.192e-6, -6.949e-7, 4.967e-7
-0.001, -1.190e-6, -6.940e-7, 4.961e-7
-0.002, -1.191e-6, -6.940e-7, 4.974e-7
-0.003, -1.189e-6, -6.931e-7, 4.961e-7
-0.004, -1.189e-6, -6.937e-7, 4.949e-7
-0.005, -1.187e-6, -6.918e-7, 4.952e-7
-0.006, -1.183e-6, -6.909e-7, 4.922e-7
-0.007, -1.184e-6, -6.909e-7, 4.934e-7
-0.008, -1.181e-6, -6.882e-7, 4.925e-7
-0.009, -1.177e-6, -6.885e-7, 4.888e-7
-0.010, -1.178e-6, -6.885e-7, 4.894e-7
-0.011, -1.180e-6, -6.879e-7, 4.919e-7
-0.012, -1.175e-6, -6.873e-7, 4.876e-7
-0.013, -1.177e-6, -6.882e-7, 4.891e-7
-0.014, -1.175e-6, -6.864e-7, 4.888e-7
-0.015, -1.173e-6, -6.870e-7, 4.858e-7
-0.016, -1.173e-6, -6.857e-7, 4.876e-7
-0.017, -1.171e-6, -6.845e-7, 4.864e-7
-0.018, -1.169e-6, -6.842e-7, 4.845e-7
-0.019, -1.170e-6, -6.845e-7, 4.858e-7
-0.020, -1.169e-6, -6.830e-7, 4.858e-7
-0.021, -1.166e-6, -6.830e-7, 4.830e-7
-0.022, -1.163e-6, -6.824e-7, 4.803e-7
-0.023, -1.165e-6, -6.818e-7, 4.833e-7
-0.024, -1.161e-6, -6.809e-7, 4.806e-7
-0.025, -1.163e-6, -6.821e-7, 4.806e-7
-0.026, -1.161e-6, -6.799e-7, 4.815e-7
-0.027, -1.160e-6, -6.803e-7, 4.793e-7
-0.028, -1.160e-6, -6.806e-7, 4.793e-7
-0.029, -1.158e-6, -6.784e-7, 4.800e-7
-0.030, -1.157e-6, -6.784e-7, 4.781e-7
-0.031, -1.157e-6, -6.784e-7, 4.784e-7
-0.032, -1.155e-6, -6.772e-7, 4.775e-7
-0.033, -1.153e-6, -6.781e-7, 4.748e-7
-0.034, -1.155e-6, -6.790e-7, 4.757e-7
-0.035, -1.151e-6, -6.760e-7, 4.754e-7
-0.036, -1.150e-6, -6.760e-7, 4.745e-7
-0.037, -1.150e-6, -6.769e-7, 4.736e-7
-0.038, -1.150e-6, -6.757e-7, 4.745e-7
-0.039, -1.145e-6, -6.748e-7, 4.705e-7
-0.040, -1.149e-6, -6.760e-7, 4.732e-7
-0.041, -1.146e-6, -6.732e-7, 4.732e-7
-0.042, -1.145e-6, -6.745e-7, 4.702e-7
-0.043, -1.145e-6, -6.748e-7, 4.702e-7
-0.044, -1.146e-6, -6.735e-7, 4.720e-7
-0.045, -1.142e-6, -6.726e-7, 4.690e-7
-0.046, -1.142e-6, -6.729e-7, 4.690e-7
-0.047, -1.142e-6, -6.726e-7, 4.696e-7
-0.048, -1.139e-6, -6.717e-7, 4.674e-7
-0.049, -1.142e-6, -6.735e-7, 4.684e-7
-0.050, -1.141e-6, -6.708e-7, 4.705e-7
