Feb. 28, 2018   11:42:07
Square Wave Voltammetry
File: c:\users\electrochemist\desktop\2018\28022018_unbuffered_9,2\20_e6_9,2_0118_ph6,05_2.txt
Data Source:  Experiment
Instrument Model:  CHI1040A
Header: 
Note: 

Init E (V) = 0.5
Final E (V) = -0.05
Incr E (V) = 0.001
Amplitude (V) = 0.1
Frequency (Hz) = 150
Quiet Time (sec) = 0
Sensitivity (A/V) = 1e-6

Difference:

Forward:

Reverse:

Potential/V, Diff(i/A), For(i/A), Rev(i/A)

0.499, -7.815e-7, -2.011e-7, 5.804e-7
0.498, -9.652e-7, -4.642e-7, 5.010e-7
0.497, -9.545e-7, -4.819e-7, 4.726e-7
0.496, -9.457e-7, -4.889e-7, 4.568e-7
0.495, -9.381e-7, -4.895e-7, 4.485e-7
0.494, -9.329e-7, -4.941e-7, 4.388e-7
0.493, -9.304e-7, -4.965e-7, 4.339e-7
0.492, -9.258e-7, -4.953e-7, 4.305e-7
0.491, -9.201e-7, -4.956e-7, 4.244e-7
0.490, -9.204e-7, -4.990e-7, 4.214e-7
0.489, -9.170e-7, -4.987e-7, 4.183e-7
0.488, -9.146e-7, -4.996e-7, 4.150e-7
0.487, -9.127e-7, -5.008e-7, 4.119e-7
0.486, -9.106e-7, -5.008e-7, 4.098e-7
0.485, -9.088e-7, -5.011e-7, 4.076e-7
0.484, -9.097e-7, -5.036e-7, 4.061e-7
0.483, -9.078e-7, -5.033e-7, 4.046e-7
0.482, -9.066e-7, -5.048e-7, 4.018e-7
0.481, -9.066e-7, -5.054e-7, 4.012e-7
0.480, -9.054e-7, -5.045e-7, 4.009e-7
0.479, -9.057e-7, -5.072e-7, 3.985e-7
0.478, -9.066e-7, -5.084e-7, 3.982e-7
0.477, -9.063e-7, -5.075e-7, 3.988e-7
0.476, -9.027e-7, -5.078e-7, 3.948e-7
0.475, -9.027e-7, -5.084e-7, 3.942e-7
0.474, -9.045e-7, -5.094e-7, 3.951e-7
0.473, -9.057e-7, -5.118e-7, 3.939e-7
0.472, -9.042e-7, -5.112e-7, 3.930e-7
0.471, -9.060e-7, -5.109e-7, 3.951e-7
0.470, -9.024e-7, -5.109e-7, 3.915e-7
0.469, -9.063e-7, -5.158e-7, 3.906e-7
0.468, -9.036e-7, -5.118e-7, 3.918e-7
0.467, -9.014e-7, -5.130e-7, 3.884e-7
0.466, -9.042e-7, -5.149e-7, 3.893e-7
0.465, -9.014e-7, -5.121e-7, 3.893e-7
0.464, -9.017e-7, -5.145e-7, 3.872e-7
0.463, -9.072e-7, -5.182e-7, 3.890e-7
0.462, -9.030e-7, -5.149e-7, 3.881e-7
0.461, -9.027e-7, -5.170e-7, 3.857e-7
0.460, -9.066e-7, -5.194e-7, 3.872e-7
0.459, -9.036e-7, -5.170e-7, 3.866e-7
0.458, -9.027e-7, -5.188e-7, 3.838e-7
0.457, -9.066e-7, -5.203e-7, 3.863e-7
0.456, -9.066e-7, -5.197e-7, 3.869e-7
0.455, -9.069e-7, -5.213e-7, 3.857e-7
0.454, -9.069e-7, -5.222e-7, 3.848e-7
0.453, -9.063e-7, -5.213e-7, 3.851e-7
0.452, -9.075e-7, -5.234e-7, 3.841e-7
0.451, -9.103e-7, -5.243e-7, 3.860e-7
0.450, -9.097e-7, -5.249e-7, 3.848e-7
0.449, -9.106e-7, -5.255e-7, 3.851e-7
0.448, -9.103e-7, -5.264e-7, 3.838e-7
0.447, -9.130e-7, -5.271e-7, 3.860e-7
0.446, -9.100e-7, -5.277e-7, 3.823e-7
0.445, -9.130e-7, -5.295e-7, 3.835e-7
0.444, -9.136e-7, -5.295e-7, 3.841e-7
0.443, -9.130e-7, -5.310e-7, 3.820e-7
0.442, -9.164e-7, -5.322e-7, 3.841e-7
0.441, -9.176e-7, -5.319e-7, 3.857e-7
0.440, -9.143e-7, -5.332e-7, 3.811e-7
0.439, -9.149e-7, -5.335e-7, 3.814e-7
0.438, -9.164e-7, -5.332e-7, 3.832e-7
0.437, -9.164e-7, -5.350e-7, 3.814e-7
0.436, -9.210e-7, -5.377e-7, 3.832e-7
0.435, -9.197e-7, -5.356e-7, 3.841e-7
0.434, -9.182e-7, -5.359e-7, 3.823e-7
0.433, -9.216e-7, -5.390e-7, 3.826e-7
0.432, -9.210e-7, -5.371e-7, 3.838e-7
0.431, -9.213e-7, -5.402e-7, 3.811e-7
0.430, -9.271e-7, -5.423e-7, 3.848e-7
0.429, -9.231e-7, -5.408e-7, 3.823e-7
0.428, -9.258e-7, -5.445e-7, 3.814e-7
0.427, -9.268e-7, -5.438e-7, 3.829e-7
0.426, -9.283e-7, -5.438e-7, 3.844e-7
0.425, -9.268e-7, -5.457e-7, 3.811e-7
0.424, -9.301e-7, -5.478e-7, 3.823e-7
0.423, -9.301e-7, -5.466e-7, 3.835e-7
0.422, -9.283e-7, -5.478e-7, 3.805e-7
0.421, -9.326e-7, -5.490e-7, 3.835e-7
0.420, -9.335e-7, -5.496e-7, 3.838e-7
0.419, -9.341e-7, -5.515e-7, 3.826e-7
0.418, -9.359e-7, -5.524e-7, 3.835e-7
0.417, -9.356e-7, -5.509e-7, 3.848e-7
0.416, -9.356e-7, -5.524e-7, 3.832e-7
0.415, -9.387e-7, -5.548e-7, 3.838e-7
0.414, -9.378e-7, -5.539e-7, 3.838e-7
0.413, -9.393e-7, -5.564e-7, 3.829e-7
0.412, -9.411e-7, -5.582e-7, 3.829e-7
0.411, -9.439e-7, -5.576e-7, 3.863e-7
0.410, -9.429e-7, -5.600e-7, 3.829e-7
0.409, -9.484e-7, -5.625e-7, 3.860e-7
0.408, -9.463e-7, -5.603e-7, 3.860e-7
0.407, -9.460e-7, -5.628e-7, 3.832e-7
0.406, -9.478e-7, -5.634e-7, 3.844e-7
0.405, -9.493e-7, -5.631e-7, 3.863e-7
0.404, -9.469e-7, -5.649e-7, 3.820e-7
0.403, -9.500e-7, -5.664e-7, 3.835e-7
0.402, -9.536e-7, -5.652e-7, 3.884e-7
0.401, -9.539e-7, -5.686e-7, 3.854e-7
0.400, -9.588e-7, -5.713e-7, 3.875e-7
0.399, -9.545e-7, -5.686e-7, 3.860e-7
0.398, -9.579e-7, -5.716e-7, 3.863e-7
0.397, -9.612e-7, -5.731e-7, 3.881e-7
0.396, -9.622e-7, -5.737e-7, 3.884e-7
0.395, -9.628e-7, -5.765e-7, 3.863e-7
0.394, -9.649e-7, -5.768e-7, 3.881e-7
0.393, -9.652e-7, -5.750e-7, 3.902e-7
0.392, -9.655e-7, -5.783e-7, 3.872e-7
0.391, -9.680e-7, -5.795e-7, 3.884e-7
0.390, -9.713e-7, -5.805e-7, 3.909e-7
0.389, -9.707e-7, -5.820e-7, 3.887e-7
0.388, -9.731e-7, -5.844e-7, 3.887e-7
0.387, -9.744e-7, -5.835e-7, 3.909e-7
0.386, -9.738e-7, -5.850e-7, 3.887e-7
0.385, -9.765e-7, -5.860e-7, 3.906e-7
0.384, -9.759e-7, -5.853e-7, 3.906e-7
0.383, -9.786e-7, -5.887e-7, 3.899e-7
0.382, -9.820e-7, -5.905e-7, 3.915e-7
0.381, -9.841e-7, -5.905e-7, 3.936e-7
0.380, -9.832e-7, -5.930e-7, 3.902e-7
0.379, -9.851e-7, -5.933e-7, 3.918e-7
0.378, -9.872e-7, -5.936e-7, 3.936e-7
0.377, -9.872e-7, -5.945e-7, 3.927e-7
0.376, -9.893e-7, -5.972e-7, 3.921e-7
0.375, -9.921e-7, -5.963e-7, 3.957e-7
0.374, -9.924e-7, -5.982e-7, 3.942e-7
0.373, -9.954e-7, -6.006e-7, 3.948e-7
0.372, -9.966e-7, -6.009e-7, 3.957e-7
0.371, -9.957e-7, -6.021e-7, 3.936e-7
0.370, -1.000e-6, -6.046e-7, 3.957e-7
0.369, -1.000e-6, -6.043e-7, 3.960e-7
0.368, -9.988e-7, -6.043e-7, 3.945e-7
0.367, -1.006e-6, -6.085e-7, 3.973e-7
0.366, -1.005e-6, -6.067e-7, 3.979e-7
0.365, -1.005e-6, -6.088e-7, 3.960e-7
0.364, -1.011e-6, -6.134e-7, 3.979e-7
0.363, -1.008e-6, -6.101e-7, 3.976e-7
0.362, -1.013e-6, -6.143e-7, 3.985e-7
0.361, -1.015e-6, -6.162e-7, 3.988e-7
0.360, -1.016e-6, -6.159e-7, 4.006e-7
0.359, -1.015e-6, -6.152e-7, 4.000e-7
0.358, -1.020e-6, -6.192e-7, 4.006e-7
0.357, -1.021e-6, -6.195e-7, 4.015e-7
0.356, -1.019e-6, -6.207e-7, 3.985e-7
0.355, -1.025e-6, -6.229e-7, 4.021e-7
0.354, -1.025e-6, -6.238e-7, 4.012e-7
0.353, -1.026e-6, -6.259e-7, 4.003e-7
0.352, -1.031e-6, -6.284e-7, 4.028e-7
0.351, -1.030e-6, -6.259e-7, 4.037e-7
0.350, -1.031e-6, -6.296e-7, 4.015e-7
0.349, -1.035e-6, -6.311e-7, 4.040e-7
0.348, -1.036e-6, -6.311e-7, 4.052e-7
0.347, -1.037e-6, -6.329e-7, 4.043e-7
0.346, -1.040e-6, -6.354e-7, 4.049e-7
0.345, -1.042e-6, -6.354e-7, 4.067e-7
0.344, -1.043e-6, -6.378e-7, 4.055e-7
0.343, -1.047e-6, -6.400e-7, 4.073e-7
0.342, -1.048e-6, -6.403e-7, 4.079e-7
0.341, -1.048e-6, -6.415e-7, 4.067e-7
0.340, -1.053e-6, -6.430e-7, 4.104e-7
0.339, -1.051e-6, -6.424e-7, 4.089e-7
0.338, -1.054e-6, -6.458e-7, 4.086e-7
0.337, -1.060e-6, -6.485e-7, 4.110e-7
0.336, -1.059e-6, -6.470e-7, 4.116e-7
0.335, -1.060e-6, -6.503e-7, 4.098e-7
0.334, -1.063e-6, -6.516e-7, 4.113e-7
0.333, -1.064e-6, -6.510e-7, 4.131e-7
0.332, -1.064e-6, -6.537e-7, 4.101e-7
0.331, -1.070e-6, -6.564e-7, 4.131e-7
0.330, -1.069e-6, -6.549e-7, 4.144e-7
0.329, -1.072e-6, -6.583e-7, 4.140e-7
0.328, -1.074e-6, -6.610e-7, 4.134e-7
0.327, -1.076e-6, -6.601e-7, 4.156e-7
0.326, -1.078e-6, -6.622e-7, 4.159e-7
0.325, -1.081e-6, -6.659e-7, 4.153e-7
0.324, -1.081e-6, -6.650e-7, 4.165e-7
0.323, -1.085e-6, -6.674e-7, 4.174e-7
0.322, -1.088e-6, -6.696e-7, 4.189e-7
0.321, -1.086e-6, -6.680e-7, 4.183e-7
0.320, -1.087e-6, -6.693e-7, 4.177e-7
0.319, -1.092e-6, -6.720e-7, 4.198e-7
0.318, -1.092e-6, -6.729e-7, 4.195e-7
0.317, -1.095e-6, -6.748e-7, 4.202e-7
0.316, -1.097e-6, -6.760e-7, 4.211e-7
0.315, -1.102e-6, -6.793e-7, 4.226e-7
0.314, -1.101e-6, -6.796e-7, 4.211e-7
0.313, -1.104e-6, -6.812e-7, 4.229e-7
0.312, -1.107e-6, -6.815e-7, 4.250e-7
0.311, -1.106e-6, -6.830e-7, 4.232e-7
0.310, -1.110e-6, -6.851e-7, 4.250e-7
0.309, -1.112e-6, -6.860e-7, 4.256e-7
0.308, -1.116e-6, -6.891e-7, 4.266e-7
0.307, -1.118e-6, -6.909e-7, 4.275e-7
0.306, -1.118e-6, -6.903e-7, 4.275e-7
0.305, -1.119e-6, -6.928e-7, 4.266e-7
0.304, -1.122e-6, -6.943e-7, 4.275e-7
0.303, -1.125e-6, -6.949e-7, 4.296e-7
0.302, -1.126e-6, -6.976e-7, 4.287e-7
0.301, -1.129e-6, -6.989e-7, 4.305e-7
0.300, -1.128e-6, -6.973e-7, 4.305e-7
0.299, -1.133e-6, -7.016e-7, 4.317e-7
0.298, -1.135e-6, -7.031e-7, 4.317e-7
0.297, -1.136e-6, -7.041e-7, 4.324e-7
0.296, -1.139e-6, -7.056e-7, 4.336e-7
0.295, -1.141e-6, -7.071e-7, 4.336e-7
0.294, -1.145e-6, -7.092e-7, 4.360e-7
0.293, -1.144e-6, -7.098e-7, 4.339e-7
0.292, -1.146e-6, -7.108e-7, 4.354e-7
0.291, -1.149e-6, -7.120e-7, 4.369e-7
0.290, -1.150e-6, -7.150e-7, 4.348e-7
0.289, -1.155e-6, -7.166e-7, 4.388e-7
0.288, -1.155e-6, -7.163e-7, 4.388e-7
0.287, -1.157e-6, -7.184e-7, 4.391e-7
0.286, -1.158e-6, -7.187e-7, 4.391e-7
0.285, -1.160e-6, -7.199e-7, 4.400e-7
0.284, -1.164e-6, -7.230e-7, 4.406e-7
0.283, -1.166e-6, -7.242e-7, 4.418e-7
0.282, -1.167e-6, -7.248e-7, 4.418e-7
0.281, -1.168e-6, -7.260e-7, 4.418e-7
0.280, -1.171e-6, -7.275e-7, 4.430e-7
0.279, -1.172e-6, -7.279e-7, 4.443e-7
0.278, -1.175e-6, -7.315e-7, 4.433e-7
0.277, -1.178e-6, -7.324e-7, 4.458e-7
0.276, -1.179e-6, -7.330e-7, 4.464e-7
0.275, -1.181e-6, -7.349e-7, 4.458e-7
0.274, -1.188e-6, -7.385e-7, 4.491e-7
0.273, -1.187e-6, -7.373e-7, 4.494e-7
0.272, -1.189e-6, -7.404e-7, 4.485e-7
0.271, -1.189e-6, -7.394e-7, 4.494e-7
0.270, -1.191e-6, -7.419e-7, 4.491e-7
0.269, -1.195e-6, -7.437e-7, 4.513e-7
0.268, -1.199e-6, -7.459e-7, 4.528e-7
0.267, -1.199e-6, -7.456e-7, 4.534e-7
0.266, -1.200e-6, -7.483e-7, 4.522e-7
0.265, -1.204e-6, -7.495e-7, 4.540e-7
0.264, -1.205e-6, -7.492e-7, 4.555e-7
0.263, -1.205e-6, -7.517e-7, 4.537e-7
0.262, -1.209e-6, -7.532e-7, 4.559e-7
0.261, -1.210e-6, -7.523e-7, 4.580e-7
0.260, -1.214e-6, -7.562e-7, 4.580e-7
0.259, -1.215e-6, -7.565e-7, 4.589e-7
0.258, -1.217e-6, -7.575e-7, 4.598e-7
0.257, -1.218e-6, -7.593e-7, 4.592e-7
0.256, -1.221e-6, -7.608e-7, 4.604e-7
0.255, -1.222e-6, -7.605e-7, 4.617e-7
0.254, -1.227e-6, -7.639e-7, 4.629e-7
0.253, -1.226e-6, -7.639e-7, 4.620e-7
0.252, -1.232e-6, -7.663e-7, 4.653e-7
0.251, -1.231e-6, -7.684e-7, 4.629e-7
0.250, -1.233e-6, -7.687e-7, 4.644e-7
0.249, -1.237e-6, -7.703e-7, 4.671e-7
0.248, -1.236e-6, -7.712e-7, 4.650e-7
0.247, -1.241e-6, -7.736e-7, 4.674e-7
0.246, -1.241e-6, -7.727e-7, 4.687e-7
0.245, -1.244e-6, -7.752e-7, 4.693e-7
0.244, -1.246e-6, -7.767e-7, 4.696e-7
0.243, -1.249e-6, -7.773e-7, 4.714e-7
0.242, -1.246e-6, -7.770e-7, 4.690e-7
0.241, -1.252e-6, -7.806e-7, 4.714e-7
0.240, -1.254e-6, -7.803e-7, 4.739e-7
0.239, -1.257e-6, -7.837e-7, 4.736e-7
0.238, -1.257e-6, -7.822e-7, 4.745e-7
0.237, -1.258e-6, -7.831e-7, 4.745e-7
0.236, -1.258e-6, -7.840e-7, 4.745e-7
0.235, -1.265e-6, -7.871e-7, 4.775e-7
0.234, -1.264e-6, -7.861e-7, 4.781e-7
0.233, -1.267e-6, -7.883e-7, 4.790e-7
0.232, -1.269e-6, -7.901e-7, 4.787e-7
0.231, -1.270e-6, -7.898e-7, 4.800e-7
0.230, -1.272e-6, -7.925e-7, 4.797e-7
0.229, -1.275e-6, -7.935e-7, 4.818e-7
0.228, -1.276e-6, -7.932e-7, 4.824e-7
0.227, -1.277e-6, -7.959e-7, 4.812e-7
0.226, -1.282e-6, -7.971e-7, 4.848e-7
0.225, -1.280e-6, -7.965e-7, 4.833e-7
0.224, -1.280e-6, -7.962e-7, 4.842e-7
0.223, -1.286e-6, -7.990e-7, 4.873e-7
0.222, -1.285e-6, -7.980e-7, 4.867e-7
0.221, -1.287e-6, -8.008e-7, 4.861e-7
0.220, -1.288e-6, -8.008e-7, 4.870e-7
0.219, -1.291e-6, -8.014e-7, 4.897e-7
0.218, -1.297e-6, -8.048e-7, 4.925e-7
0.217, -1.294e-6, -8.041e-7, 4.897e-7
0.216, -1.297e-6, -8.051e-7, 4.919e-7
0.215, -1.297e-6, -8.066e-7, 4.903e-7
0.214, -1.299e-6, -8.066e-7, 4.925e-7
0.213, -1.299e-6, -8.054e-7, 4.934e-7
0.212, -1.300e-6, -8.063e-7, 4.940e-7
0.211, -1.305e-6, -8.099e-7, 4.949e-7
0.210, -1.305e-6, -8.096e-7, 4.949e-7
0.209, -1.307e-6, -8.109e-7, 4.961e-7
0.208, -1.309e-6, -8.118e-7, 4.974e-7
0.207, -1.308e-6, -8.106e-7, 4.970e-7
0.206, -1.311e-6, -8.136e-7, 4.977e-7
0.205, -1.312e-6, -8.136e-7, 4.989e-7
0.204, -1.313e-6, -8.139e-7, 4.995e-7
0.203, -1.315e-6, -8.151e-7, 5.001e-7
0.202, -1.318e-6, -8.154e-7, 5.025e-7
0.201, -1.318e-6, -8.145e-7, 5.038e-7
0.200, -1.320e-6, -8.176e-7, 5.028e-7
0.199, -1.324e-6, -8.185e-7, 5.053e-7
0.198, -1.322e-6, -8.167e-7, 5.050e-7
0.197, -1.325e-6, -8.182e-7, 5.065e-7
0.196, -1.324e-6, -8.185e-7, 5.056e-7
0.195, -1.326e-6, -8.185e-7, 5.071e-7
0.194, -1.326e-6, -8.194e-7, 5.065e-7
0.193, -1.330e-6, -8.206e-7, 5.090e-7
0.192, -1.329e-6, -8.203e-7, 5.083e-7
0.191, -1.332e-6, -8.221e-7, 5.096e-7
0.190, -1.333e-6, -8.225e-7, 5.102e-7
0.189, -1.331e-6, -8.212e-7, 5.102e-7
0.188, -1.335e-6, -8.240e-7, 5.108e-7
0.187, -1.334e-6, -8.225e-7, 5.111e-7
0.186, -1.336e-6, -8.237e-7, 5.123e-7
0.185, -1.338e-6, -8.243e-7, 5.132e-7
0.184, -1.339e-6, -8.240e-7, 5.154e-7
0.183, -1.338e-6, -8.231e-7, 5.144e-7
0.182, -1.341e-6, -8.261e-7, 5.144e-7
0.181, -1.343e-6, -8.261e-7, 5.169e-7
0.180, -1.344e-6, -8.264e-7, 5.172e-7
0.179, -1.343e-6, -8.252e-7, 5.175e-7
0.178, -1.344e-6, -8.258e-7, 5.184e-7
0.177, -1.345e-6, -8.264e-7, 5.187e-7
0.176, -1.345e-6, -8.258e-7, 5.196e-7
0.175, -1.348e-6, -8.270e-7, 5.209e-7
0.174, -1.347e-6, -8.264e-7, 5.202e-7
0.173, -1.349e-6, -8.267e-7, 5.221e-7
0.172, -1.349e-6, -8.267e-7, 5.221e-7
0.171, -1.350e-6, -8.273e-7, 5.224e-7
0.170, -1.351e-6, -8.286e-7, 5.227e-7
0.169, -1.351e-6, -8.273e-7, 5.236e-7
0.168, -1.353e-6, -8.270e-7, 5.260e-7
0.167, -1.354e-6, -8.289e-7, 5.254e-7
0.166, -1.357e-6, -8.292e-7, 5.276e-7
0.165, -1.354e-6, -8.273e-7, 5.270e-7
0.164, -1.355e-6, -8.276e-7, 5.270e-7
0.163, -1.357e-6, -8.289e-7, 5.279e-7
0.162, -1.356e-6, -8.283e-7, 5.282e-7
0.161, -1.358e-6, -8.292e-7, 5.291e-7
0.160, -1.356e-6, -8.273e-7, 5.282e-7
0.159, -1.357e-6, -8.286e-7, 5.285e-7
0.158, -1.356e-6, -8.261e-7, 5.303e-7
0.157, -1.359e-6, -8.276e-7, 5.312e-7
0.156, -1.359e-6, -8.273e-7, 5.315e-7
0.155, -1.358e-6, -8.258e-7, 5.321e-7
0.154, -1.359e-6, -8.270e-7, 5.315e-7
0.153, -1.357e-6, -8.255e-7, 5.315e-7
0.152, -1.358e-6, -8.255e-7, 5.328e-7
0.151, -1.360e-6, -8.258e-7, 5.340e-7
0.150, -1.359e-6, -8.246e-7, 5.349e-7
0.149, -1.360e-6, -8.261e-7, 5.340e-7
0.148, -1.360e-6, -8.252e-7, 5.349e-7
0.147, -1.360e-6, -8.249e-7, 5.355e-7
0.146, -1.358e-6, -8.249e-7, 5.331e-7
0.145, -1.362e-6, -8.240e-7, 5.379e-7
0.144, -1.362e-6, -8.243e-7, 5.376e-7
0.143, -1.363e-6, -8.246e-7, 5.379e-7
0.142, -1.362e-6, -8.249e-7, 5.373e-7
0.141, -1.360e-6, -8.231e-7, 5.370e-7
0.140, -1.361e-6, -8.234e-7, 5.379e-7
0.139, -1.360e-6, -8.215e-7, 5.386e-7
0.138, -1.361e-6, -8.200e-7, 5.410e-7
0.137, -1.360e-6, -8.212e-7, 5.392e-7
0.136, -1.361e-6, -8.200e-7, 5.410e-7
0.135, -1.360e-6, -8.188e-7, 5.410e-7
0.134, -1.360e-6, -8.185e-7, 5.413e-7
0.133, -1.362e-6, -8.194e-7, 5.422e-7
0.132, -1.360e-6, -8.185e-7, 5.413e-7
0.131, -1.359e-6, -8.173e-7, 5.419e-7
0.130, -1.359e-6, -8.160e-7, 5.428e-7
0.129, -1.359e-6, -8.170e-7, 5.416e-7
0.128, -1.358e-6, -8.164e-7, 5.419e-7
0.127, -1.358e-6, -8.151e-7, 5.425e-7
0.126, -1.358e-6, -8.151e-7, 5.431e-7
0.125, -1.358e-6, -8.151e-7, 5.431e-7
0.124, -1.356e-6, -8.130e-7, 5.425e-7
0.123, -1.355e-6, -8.118e-7, 5.434e-7
0.122, -1.356e-6, -8.124e-7, 5.437e-7
0.121, -1.356e-6, -8.106e-7, 5.450e-7
0.120, -1.354e-6, -8.096e-7, 5.440e-7
0.119, -1.352e-6, -8.096e-7, 5.428e-7
0.118, -1.352e-6, -8.078e-7, 5.447e-7
0.117, -1.352e-6, -8.081e-7, 5.443e-7
0.116, -1.353e-6, -8.081e-7, 5.453e-7
0.115, -1.351e-6, -8.057e-7, 5.456e-7
0.114, -1.350e-6, -8.057e-7, 5.447e-7
0.113, -1.353e-6, -8.069e-7, 5.459e-7
0.112, -1.348e-6, -8.038e-7, 5.447e-7
0.111, -1.351e-6, -8.051e-7, 5.456e-7
0.110, -1.347e-6, -8.020e-7, 5.453e-7
0.109, -1.349e-6, -8.017e-7, 5.471e-7
0.108, -1.347e-6, -8.014e-7, 5.459e-7
0.107, -1.347e-6, -8.008e-7, 5.459e-7
0.106, -1.347e-6, -8.002e-7, 5.471e-7
0.105, -1.345e-6, -7.987e-7, 5.462e-7
0.104, -1.346e-6, -7.974e-7, 5.489e-7
0.103, -1.342e-6, -7.974e-7, 5.447e-7
0.102, -1.341e-6, -7.965e-7, 5.447e-7
0.101, -1.341e-6, -7.950e-7, 5.459e-7
0.100, -1.340e-6, -7.944e-7, 5.453e-7
0.099, -1.340e-6, -7.916e-7, 5.480e-7
0.098, -1.338e-6, -7.919e-7, 5.456e-7
0.097, -1.338e-6, -7.910e-7, 5.471e-7
0.096, -1.332e-6, -7.889e-7, 5.431e-7
0.095, -1.335e-6, -7.892e-7, 5.462e-7
0.094, -1.332e-6, -7.871e-7, 5.453e-7
0.093, -1.330e-6, -7.855e-7, 5.447e-7
0.092, -1.331e-6, -7.855e-7, 5.456e-7
0.091, -1.329e-6, -7.843e-7, 5.447e-7
0.090, -1.326e-6, -7.831e-7, 5.431e-7
0.089, -1.327e-6, -7.825e-7, 5.440e-7
0.088, -1.327e-6, -7.813e-7, 5.459e-7
0.087, -1.324e-6, -7.803e-7, 5.434e-7
0.086, -1.325e-6, -7.794e-7, 5.456e-7
0.085, -1.322e-6, -7.779e-7, 5.437e-7
0.084, -1.319e-6, -7.779e-7, 5.410e-7
0.083, -1.318e-6, -7.752e-7, 5.425e-7
0.082, -1.316e-6, -7.730e-7, 5.428e-7
0.081, -1.316e-6, -7.736e-7, 5.419e-7
0.080, -1.313e-6, -7.730e-7, 5.401e-7
0.079, -1.314e-6, -7.706e-7, 5.434e-7
0.078, -1.312e-6, -7.703e-7, 5.413e-7
0.077, -1.312e-6, -7.697e-7, 5.428e-7
0.076, -1.309e-6, -7.684e-7, 5.404e-7
0.075, -1.308e-6, -7.681e-7, 5.401e-7
0.074, -1.308e-6, -7.672e-7, 5.410e-7
0.073, -1.302e-6, -7.629e-7, 5.392e-7
0.072, -1.304e-6, -7.639e-7, 5.404e-7
0.071, -1.302e-6, -7.617e-7, 5.407e-7
0.070, -1.299e-6, -7.605e-7, 5.385e-7
0.069, -1.297e-6, -7.602e-7, 5.367e-7
0.068, -1.299e-6, -7.590e-7, 5.401e-7
0.067, -1.296e-6, -7.593e-7, 5.370e-7
0.066, -1.294e-6, -7.581e-7, 5.361e-7
0.065, -1.294e-6, -7.565e-7, 5.370e-7
0.064, -1.290e-6, -7.547e-7, 5.355e-7
0.063, -1.290e-6, -7.541e-7, 5.358e-7
0.062, -1.287e-6, -7.520e-7, 5.352e-7
0.061, -1.287e-6, -7.507e-7, 5.361e-7
0.060, -1.284e-6, -7.507e-7, 5.334e-7
0.059, -1.285e-6, -7.498e-7, 5.352e-7
0.058, -1.280e-6, -7.480e-7, 5.324e-7
0.057, -1.279e-6, -7.477e-7, 5.315e-7
0.056, -1.280e-6, -7.459e-7, 5.337e-7
0.055, -1.276e-6, -7.431e-7, 5.334e-7
0.054, -1.276e-6, -7.446e-7, 5.312e-7
0.053, -1.273e-6, -7.428e-7, 5.306e-7
0.052, -1.269e-6, -7.404e-7, 5.288e-7
0.051, -1.269e-6, -7.404e-7, 5.282e-7
0.050, -1.268e-6, -7.391e-7, 5.288e-7
0.049, -1.265e-6, -7.376e-7, 5.273e-7
0.048, -1.264e-6, -7.364e-7, 5.279e-7
0.047, -1.262e-6, -7.358e-7, 5.266e-7
0.046, -1.262e-6, -7.355e-7, 5.266e-7
0.045, -1.259e-6, -7.340e-7, 5.254e-7
0.044, -1.258e-6, -7.321e-7, 5.254e-7
0.043, -1.257e-6, -7.321e-7, 5.248e-7
0.042, -1.256e-6, -7.312e-7, 5.248e-7
0.041, -1.254e-6, -7.300e-7, 5.242e-7
0.040, -1.250e-6, -7.266e-7, 5.230e-7
0.039, -1.249e-6, -7.279e-7, 5.212e-7
0.038, -1.249e-6, -7.269e-7, 5.221e-7
0.037, -1.247e-6, -7.254e-7, 5.218e-7
0.036, -1.244e-6, -7.239e-7, 5.205e-7
0.035, -1.242e-6, -7.221e-7, 5.199e-7
0.034, -1.239e-6, -7.208e-7, 5.181e-7
0.033, -1.240e-6, -7.214e-7, 5.184e-7
0.032, -1.240e-6, -7.211e-7, 5.184e-7
0.031, -1.236e-6, -7.181e-7, 5.181e-7
0.030, -1.235e-6, -7.175e-7, 5.172e-7
0.029, -1.234e-6, -7.187e-7, 5.157e-7
0.028, -1.230e-6, -7.150e-7, 5.151e-7
0.027, -1.229e-6, -7.160e-7, 5.132e-7
0.026, -1.231e-6, -7.156e-7, 5.154e-7
0.025, -1.226e-6, -7.138e-7, 5.126e-7
0.024, -1.225e-6, -7.129e-7, 5.117e-7
0.023, -1.224e-6, -7.114e-7, 5.123e-7
0.022, -1.221e-6, -7.105e-7, 5.108e-7
0.021, -1.220e-6, -7.108e-7, 5.096e-7
0.020, -1.219e-6, -7.095e-7, 5.093e-7
0.019, -1.215e-6, -7.068e-7, 5.086e-7
0.018, -1.215e-6, -7.074e-7, 5.074e-7
0.017, -1.215e-6, -7.068e-7, 5.080e-7
0.016, -1.213e-6, -7.065e-7, 5.062e-7
0.015, -1.210e-6, -7.053e-7, 5.050e-7
0.014, -1.210e-6, -7.044e-7, 5.056e-7
0.013, -1.208e-6, -7.031e-7, 5.044e-7
0.012, -1.205e-6, -7.025e-7, 5.025e-7
0.011, -1.203e-6, -7.013e-7, 5.019e-7
0.010, -1.202e-6, -7.004e-7, 5.013e-7
0.009, -1.201e-6, -7.007e-7, 5.007e-7
0.008, -1.201e-6, -6.995e-7, 5.016e-7
0.007, -1.200e-6, -6.983e-7, 5.013e-7
0.006, -1.199e-6, -6.992e-7, 4.995e-7
0.005, -1.195e-6, -6.958e-7, 4.989e-7
0.004, -1.194e-6, -6.970e-7, 4.974e-7
0.003, -1.193e-6, -6.958e-7, 4.967e-7
0.002, -1.191e-6, -6.955e-7, 4.958e-7
0.001, -1.190e-6, -6.937e-7, 4.958e-7
-0.000, -1.189e-6, -6.931e-7, 4.955e-7
-0.001, -1.187e-6, -6.922e-7, 4.952e-7
-0.002, -1.186e-6, -6.928e-7, 4.934e-7
-0.003, -1.184e-6, -6.909e-7, 4.931e-7
-0.004, -1.184e-6, -6.900e-7, 4.943e-7
-0.005, -1.182e-6, -6.909e-7, 4.916e-7
-0.006, -1.181e-6, -6.882e-7, 4.925e-7
-0.007, -1.180e-6, -6.891e-7, 4.906e-7
-0.008, -1.177e-6, -6.879e-7, 4.894e-7
-0.009, -1.175e-6, -6.879e-7, 4.867e-7
-0.010, -1.178e-6, -6.870e-7, 4.909e-7
-0.011, -1.173e-6, -6.864e-7, 4.867e-7
-0.012, -1.173e-6, -6.857e-7, 4.870e-7
-0.013, -1.172e-6, -6.851e-7, 4.864e-7
-0.014, -1.171e-6, -6.851e-7, 4.861e-7
-0.015, -1.169e-6, -6.842e-7, 4.851e-7
-0.016, -1.170e-6, -6.842e-7, 4.855e-7
-0.017, -1.167e-6, -6.833e-7, 4.833e-7
-0.018, -1.167e-6, -6.839e-7, 4.833e-7
-0.019, -1.164e-6, -6.812e-7, 4.827e-7
-0.020, -1.164e-6, -6.818e-7, 4.824e-7
-0.021, -1.163e-6, -6.818e-7, 4.812e-7
-0.022, -1.160e-6, -6.799e-7, 4.800e-7
-0.023, -1.161e-6, -6.806e-7, 4.800e-7
-0.024, -1.158e-6, -6.809e-7, 4.772e-7
-0.025, -1.158e-6, -6.781e-7, 4.800e-7
-0.026, -1.155e-6, -6.775e-7, 4.778e-7
-0.027, -1.157e-6, -6.790e-7, 4.775e-7
-0.028, -1.157e-6, -6.784e-7, 4.781e-7
-0.029, -1.156e-6, -6.790e-7, 4.769e-7
-0.030, -1.154e-6, -6.778e-7, 4.763e-7
-0.031, -1.151e-6, -6.766e-7, 4.745e-7
-0.032, -1.152e-6, -6.772e-7, 4.745e-7
-0.033, -1.151e-6, -6.772e-7, 4.742e-7
-0.034, -1.150e-6, -6.757e-7, 4.745e-7
-0.035, -1.150e-6, -6.760e-7, 4.742e-7
-0.036, -1.150e-6, -6.760e-7, 4.742e-7
-0.037, -1.148e-6, -6.748e-7, 4.732e-7
-0.038, -1.148e-6, -6.760e-7, 4.723e-7
-0.039, -1.145e-6, -6.738e-7, 4.711e-7
-0.040, -1.143e-6, -6.732e-7, 4.702e-7
-0.041, -1.144e-6, -6.738e-7, 4.699e-7
-0.042, -1.143e-6, -6.738e-7, 4.690e-7
-0.043, -1.144e-6, -6.738e-7, 4.705e-7
-0.044, -1.141e-6, -6.726e-7, 4.681e-7
-0.045, -1.141e-6, -6.732e-7, 4.678e-7
-0.046, -1.140e-6, -6.720e-7, 4.684e-7
-0.047, -1.140e-6, -6.720e-7, 4.684e-7
-0.048, -1.139e-6, -6.720e-7, 4.665e-7
-0.049, -1.141e-6, -6.729e-7, 4.681e-7
-0.050, -1.136e-6, -6.702e-7, 4.659e-7
