Feb. 28, 2018   11:42:21
Square Wave Voltammetry
File: c:\users\electrochemist\desktop\2018\28022018_unbuffered_9,2\20_e6_9,2_0118_ph6,05_5.txt
Data Source:  Experiment
Instrument Model:  CHI1040A
Header: 
Note: 

Init E (V) = 0.5
Final E (V) = -0.05
Incr E (V) = 0.001
Amplitude (V) = 0.1
Frequency (Hz) = 150
Quiet Time (sec) = 0
Sensitivity (A/V) = 1e-6

Difference:

Forward:

Reverse:

Potential/V, Diff(i/A), For(i/A), Rev(i/A)

0.499, -7.672e-7, -1.990e-7, 5.682e-7
0.498, -9.481e-7, -4.611e-7, 4.870e-7
0.497, -9.390e-7, -4.776e-7, 4.613e-7
0.496, -9.332e-7, -4.862e-7, 4.470e-7
0.495, -9.262e-7, -4.877e-7, 4.385e-7
0.494, -9.204e-7, -4.910e-7, 4.293e-7
0.493, -9.173e-7, -4.929e-7, 4.244e-7
0.492, -9.133e-7, -4.935e-7, 4.198e-7
0.491, -9.091e-7, -4.950e-7, 4.140e-7
0.490, -9.078e-7, -4.956e-7, 4.122e-7
0.489, -9.063e-7, -4.975e-7, 4.089e-7
0.488, -9.057e-7, -4.984e-7, 4.073e-7
0.487, -9.030e-7, -4.978e-7, 4.052e-7
0.486, -9.011e-7, -4.978e-7, 4.034e-7
0.485, -9.008e-7, -4.999e-7, 4.009e-7
0.484, -8.996e-7, -4.999e-7, 3.997e-7
0.483, -8.996e-7, -5.014e-7, 3.982e-7
0.482, -8.975e-7, -5.008e-7, 3.967e-7
0.481, -8.990e-7, -5.036e-7, 3.954e-7
0.480, -8.966e-7, -5.014e-7, 3.951e-7
0.479, -8.947e-7, -5.030e-7, 3.918e-7
0.478, -8.941e-7, -5.030e-7, 3.912e-7
0.477, -8.941e-7, -5.039e-7, 3.902e-7
0.476, -8.966e-7, -5.057e-7, 3.909e-7
0.475, -8.956e-7, -5.069e-7, 3.887e-7
0.474, -8.953e-7, -5.060e-7, 3.893e-7
0.473, -8.953e-7, -5.075e-7, 3.878e-7
0.472, -8.950e-7, -5.069e-7, 3.881e-7
0.471, -8.947e-7, -5.075e-7, 3.872e-7
0.470, -8.950e-7, -5.097e-7, 3.854e-7
0.469, -8.959e-7, -5.100e-7, 3.860e-7
0.468, -8.959e-7, -5.103e-7, 3.857e-7
0.467, -8.932e-7, -5.091e-7, 3.841e-7
0.466, -8.962e-7, -5.103e-7, 3.860e-7
0.465, -8.959e-7, -5.121e-7, 3.838e-7
0.464, -8.944e-7, -5.124e-7, 3.820e-7
0.463, -8.972e-7, -5.130e-7, 3.841e-7
0.462, -8.972e-7, -5.145e-7, 3.826e-7
0.461, -8.956e-7, -5.133e-7, 3.823e-7
0.460, -8.966e-7, -5.167e-7, 3.799e-7
0.459, -8.969e-7, -5.152e-7, 3.817e-7
0.458, -8.969e-7, -5.164e-7, 3.805e-7
0.457, -8.972e-7, -5.167e-7, 3.805e-7
0.456, -8.987e-7, -5.170e-7, 3.817e-7
0.455, -8.978e-7, -5.182e-7, 3.796e-7
0.454, -8.990e-7, -5.185e-7, 3.805e-7
0.453, -9.030e-7, -5.200e-7, 3.829e-7
0.452, -9.011e-7, -5.213e-7, 3.799e-7
0.451, -9.014e-7, -5.216e-7, 3.799e-7
0.450, -9.014e-7, -5.219e-7, 3.796e-7
0.449, -9.036e-7, -5.237e-7, 3.799e-7
0.448, -9.039e-7, -5.234e-7, 3.805e-7
0.447, -9.048e-7, -5.243e-7, 3.805e-7
0.446, -9.027e-7, -5.258e-7, 3.768e-7
0.445, -9.027e-7, -5.246e-7, 3.780e-7
0.444, -9.066e-7, -5.264e-7, 3.802e-7
0.443, -9.078e-7, -5.283e-7, 3.796e-7
0.442, -9.082e-7, -5.304e-7, 3.777e-7
0.441, -9.066e-7, -5.274e-7, 3.793e-7
0.440, -9.066e-7, -5.295e-7, 3.771e-7
0.439, -9.091e-7, -5.310e-7, 3.780e-7
0.438, -9.100e-7, -5.304e-7, 3.796e-7
0.437, -9.103e-7, -5.329e-7, 3.774e-7
0.436, -9.127e-7, -5.335e-7, 3.793e-7
0.435, -9.118e-7, -5.335e-7, 3.783e-7
0.434, -9.136e-7, -5.359e-7, 3.777e-7
0.433, -9.146e-7, -5.362e-7, 3.783e-7
0.432, -9.146e-7, -5.353e-7, 3.793e-7
0.431, -9.158e-7, -5.374e-7, 3.783e-7
0.430, -9.167e-7, -5.387e-7, 3.780e-7
0.429, -9.188e-7, -5.396e-7, 3.793e-7
0.428, -9.188e-7, -5.408e-7, 3.780e-7
0.427, -9.197e-7, -5.411e-7, 3.787e-7
0.426, -9.210e-7, -5.402e-7, 3.808e-7
0.425, -9.216e-7, -5.414e-7, 3.802e-7
0.424, -9.243e-7, -5.448e-7, 3.796e-7
0.423, -9.228e-7, -5.435e-7, 3.793e-7
0.422, -9.249e-7, -5.454e-7, 3.796e-7
0.421, -9.252e-7, -5.457e-7, 3.796e-7
0.420, -9.271e-7, -5.460e-7, 3.811e-7
0.419, -9.280e-7, -5.478e-7, 3.802e-7
0.418, -9.277e-7, -5.475e-7, 3.802e-7
0.417, -9.301e-7, -5.496e-7, 3.805e-7
0.416, -9.298e-7, -5.506e-7, 3.793e-7
0.415, -9.307e-7, -5.515e-7, 3.793e-7
0.414, -9.335e-7, -5.524e-7, 3.811e-7
0.413, -9.344e-7, -5.542e-7, 3.802e-7
0.412, -9.356e-7, -5.548e-7, 3.808e-7
0.411, -9.374e-7, -5.560e-7, 3.814e-7
0.410, -9.378e-7, -5.573e-7, 3.805e-7
0.409, -9.402e-7, -5.579e-7, 3.823e-7
0.408, -9.399e-7, -5.570e-7, 3.829e-7
0.407, -9.399e-7, -5.594e-7, 3.805e-7
0.406, -9.423e-7, -5.609e-7, 3.814e-7
0.405, -9.432e-7, -5.603e-7, 3.829e-7
0.404, -9.439e-7, -5.625e-7, 3.814e-7
0.403, -9.478e-7, -5.646e-7, 3.832e-7
0.402, -9.463e-7, -5.637e-7, 3.826e-7
0.401, -9.472e-7, -5.643e-7, 3.829e-7
0.400, -9.493e-7, -5.670e-7, 3.823e-7
0.399, -9.533e-7, -5.683e-7, 3.851e-7
0.398, -9.527e-7, -5.701e-7, 3.826e-7
0.397, -9.551e-7, -5.701e-7, 3.851e-7
0.396, -9.570e-7, -5.719e-7, 3.851e-7
0.395, -9.545e-7, -5.716e-7, 3.829e-7
0.394, -9.579e-7, -5.728e-7, 3.851e-7
0.393, -9.576e-7, -5.728e-7, 3.848e-7
0.392, -9.594e-7, -5.747e-7, 3.848e-7
0.391, -9.619e-7, -5.765e-7, 3.854e-7
0.390, -9.640e-7, -5.765e-7, 3.875e-7
0.389, -9.658e-7, -5.802e-7, 3.857e-7
0.388, -9.655e-7, -5.799e-7, 3.857e-7
0.387, -9.667e-7, -5.805e-7, 3.863e-7
0.386, -9.670e-7, -5.805e-7, 3.866e-7
0.385, -9.719e-7, -5.835e-7, 3.884e-7
0.384, -9.698e-7, -5.829e-7, 3.869e-7
0.383, -9.722e-7, -5.853e-7, 3.869e-7
0.382, -9.728e-7, -5.847e-7, 3.881e-7
0.381, -9.747e-7, -5.866e-7, 3.881e-7
0.380, -9.771e-7, -5.887e-7, 3.884e-7
0.379, -9.789e-7, -5.884e-7, 3.906e-7
0.378, -9.802e-7, -5.908e-7, 3.893e-7
0.377, -9.796e-7, -5.918e-7, 3.878e-7
0.376, -9.841e-7, -5.942e-7, 3.899e-7
0.375, -9.872e-7, -5.951e-7, 3.921e-7
0.374, -9.847e-7, -5.954e-7, 3.893e-7
0.373, -9.857e-7, -5.963e-7, 3.893e-7
0.372, -9.899e-7, -5.972e-7, 3.927e-7
0.371, -9.915e-7, -5.997e-7, 3.918e-7
0.370, -9.942e-7, -6.015e-7, 3.927e-7
0.369, -9.921e-7, -5.988e-7, 3.933e-7
0.368, -9.939e-7, -6.018e-7, 3.921e-7
0.367, -9.976e-7, -6.030e-7, 3.945e-7
0.366, -1.002e-6, -6.058e-7, 3.967e-7
0.365, -9.991e-7, -6.064e-7, 3.927e-7
0.364, -1.004e-6, -6.085e-7, 3.957e-7
0.363, -1.002e-6, -6.079e-7, 3.939e-7
0.362, -1.006e-6, -6.107e-7, 3.957e-7
0.361, -1.007e-6, -6.110e-7, 3.960e-7
0.360, -1.007e-6, -6.104e-7, 3.967e-7
0.359, -1.011e-6, -6.146e-7, 3.960e-7
0.358, -1.011e-6, -6.137e-7, 3.973e-7
0.357, -1.012e-6, -6.146e-7, 3.973e-7
0.356, -1.016e-6, -6.189e-7, 3.973e-7
0.355, -1.020e-6, -6.198e-7, 4.006e-7
0.354, -1.019e-6, -6.210e-7, 3.979e-7
0.353, -1.022e-6, -6.217e-7, 4.006e-7
0.352, -1.024e-6, -6.229e-7, 4.009e-7
0.351, -1.023e-6, -6.238e-7, 3.994e-7
0.350, -1.027e-6, -6.265e-7, 4.000e-7
0.349, -1.027e-6, -6.275e-7, 3.997e-7
0.348, -1.031e-6, -6.275e-7, 4.031e-7
0.347, -1.033e-6, -6.311e-7, 4.021e-7
0.346, -1.034e-6, -6.311e-7, 4.034e-7
0.345, -1.037e-6, -6.323e-7, 4.049e-7
0.344, -1.039e-6, -6.348e-7, 4.043e-7
0.343, -1.039e-6, -6.345e-7, 4.049e-7
0.342, -1.038e-6, -6.348e-7, 4.037e-7
0.341, -1.045e-6, -6.397e-7, 4.058e-7
0.340, -1.045e-6, -6.406e-7, 4.049e-7
0.339, -1.048e-6, -6.415e-7, 4.061e-7
0.338, -1.048e-6, -6.427e-7, 4.049e-7
0.337, -1.050e-6, -6.421e-7, 4.076e-7
0.336, -1.053e-6, -6.455e-7, 4.073e-7
0.335, -1.052e-6, -6.449e-7, 4.076e-7
0.334, -1.054e-6, -6.470e-7, 4.070e-7
0.333, -1.057e-6, -6.482e-7, 4.089e-7
0.332, -1.057e-6, -6.485e-7, 4.086e-7
0.331, -1.062e-6, -6.519e-7, 4.104e-7
0.330, -1.063e-6, -6.519e-7, 4.116e-7
0.329, -1.063e-6, -6.537e-7, 4.092e-7
0.328, -1.068e-6, -6.564e-7, 4.113e-7
0.327, -1.072e-6, -6.601e-7, 4.116e-7
0.326, -1.072e-6, -6.595e-7, 4.128e-7
0.325, -1.072e-6, -6.595e-7, 4.128e-7
0.324, -1.075e-6, -6.616e-7, 4.134e-7
0.323, -1.075e-6, -6.632e-7, 4.122e-7
0.322, -1.080e-6, -6.647e-7, 4.153e-7
0.321, -1.082e-6, -6.665e-7, 4.156e-7
0.320, -1.081e-6, -6.668e-7, 4.137e-7
0.319, -1.086e-6, -6.702e-7, 4.162e-7
0.318, -1.086e-6, -6.690e-7, 4.168e-7
0.317, -1.089e-6, -6.723e-7, 4.165e-7
0.316, -1.092e-6, -6.738e-7, 4.183e-7
0.315, -1.094e-6, -6.741e-7, 4.195e-7
0.314, -1.093e-6, -6.748e-7, 4.186e-7
0.313, -1.101e-6, -6.790e-7, 4.217e-7
0.312, -1.097e-6, -6.778e-7, 4.192e-7
0.311, -1.101e-6, -6.806e-7, 4.208e-7
0.310, -1.103e-6, -6.806e-7, 4.223e-7
0.309, -1.104e-6, -6.830e-7, 4.214e-7
0.308, -1.107e-6, -6.848e-7, 4.220e-7
0.307, -1.109e-6, -6.867e-7, 4.226e-7
0.306, -1.111e-6, -6.870e-7, 4.241e-7
0.305, -1.113e-6, -6.891e-7, 4.235e-7
0.304, -1.118e-6, -6.909e-7, 4.269e-7
0.303, -1.117e-6, -6.909e-7, 4.263e-7
0.302, -1.118e-6, -6.928e-7, 4.250e-7
0.301, -1.125e-6, -6.964e-7, 4.284e-7
0.300, -1.125e-6, -6.964e-7, 4.281e-7
0.299, -1.125e-6, -6.973e-7, 4.281e-7
0.298, -1.128e-6, -6.986e-7, 4.290e-7
0.297, -1.129e-6, -7.004e-7, 4.284e-7
0.296, -1.133e-6, -7.028e-7, 4.302e-7
0.295, -1.134e-6, -7.031e-7, 4.305e-7
0.294, -1.137e-6, -7.034e-7, 4.339e-7
0.293, -1.138e-6, -7.077e-7, 4.299e-7
0.292, -1.141e-6, -7.089e-7, 4.324e-7
0.291, -1.142e-6, -7.095e-7, 4.327e-7
0.290, -1.145e-6, -7.117e-7, 4.330e-7
0.289, -1.146e-6, -7.114e-7, 4.351e-7
0.288, -1.150e-6, -7.135e-7, 4.363e-7
0.287, -1.152e-6, -7.163e-7, 4.354e-7
0.286, -1.153e-6, -7.169e-7, 4.363e-7
0.285, -1.154e-6, -7.175e-7, 4.366e-7
0.284, -1.156e-6, -7.181e-7, 4.375e-7
0.283, -1.161e-6, -7.218e-7, 4.391e-7
0.282, -1.161e-6, -7.211e-7, 4.400e-7
0.281, -1.164e-6, -7.245e-7, 4.391e-7
0.280, -1.166e-6, -7.245e-7, 4.418e-7
0.279, -1.169e-6, -7.257e-7, 4.430e-7
0.278, -1.171e-6, -7.288e-7, 4.424e-7
0.277, -1.172e-6, -7.285e-7, 4.436e-7
0.276, -1.173e-6, -7.294e-7, 4.433e-7
0.275, -1.175e-6, -7.315e-7, 4.430e-7
0.274, -1.177e-6, -7.327e-7, 4.446e-7
0.273, -1.180e-6, -7.355e-7, 4.449e-7
0.272, -1.184e-6, -7.364e-7, 4.473e-7
0.271, -1.184e-6, -7.367e-7, 4.476e-7
0.270, -1.185e-6, -7.382e-7, 4.464e-7
0.269, -1.188e-6, -7.394e-7, 4.482e-7
0.268, -1.190e-6, -7.419e-7, 4.482e-7
0.267, -1.194e-6, -7.434e-7, 4.507e-7
0.266, -1.196e-6, -7.452e-7, 4.507e-7
0.265, -1.196e-6, -7.452e-7, 4.510e-7
0.264, -1.199e-6, -7.474e-7, 4.516e-7
0.263, -1.200e-6, -7.480e-7, 4.522e-7
0.262, -1.204e-6, -7.492e-7, 4.549e-7
0.261, -1.202e-6, -7.495e-7, 4.525e-7
0.260, -1.209e-6, -7.538e-7, 4.549e-7
0.259, -1.211e-6, -7.529e-7, 4.580e-7
0.258, -1.210e-6, -7.535e-7, 4.562e-7
0.257, -1.215e-6, -7.581e-7, 4.568e-7
0.256, -1.217e-6, -7.568e-7, 4.598e-7
0.255, -1.216e-6, -7.587e-7, 4.571e-7
0.254, -1.219e-6, -7.605e-7, 4.589e-7
0.253, -1.223e-6, -7.614e-7, 4.617e-7
0.252, -1.224e-6, -7.629e-7, 4.607e-7
0.251, -1.227e-6, -7.645e-7, 4.623e-7
0.250, -1.225e-6, -7.620e-7, 4.626e-7
0.249, -1.230e-6, -7.663e-7, 4.641e-7
0.248, -1.232e-6, -7.684e-7, 4.632e-7
0.247, -1.233e-6, -7.672e-7, 4.659e-7
0.246, -1.238e-6, -7.709e-7, 4.668e-7
0.245, -1.239e-6, -7.727e-7, 4.659e-7
0.244, -1.241e-6, -7.724e-7, 4.687e-7
0.243, -1.241e-6, -7.733e-7, 4.678e-7
0.242, -1.245e-6, -7.748e-7, 4.702e-7
0.241, -1.248e-6, -7.764e-7, 4.717e-7
0.240, -1.248e-6, -7.773e-7, 4.705e-7
0.239, -1.253e-6, -7.803e-7, 4.729e-7
0.238, -1.254e-6, -7.797e-7, 4.739e-7
0.237, -1.253e-6, -7.797e-7, 4.736e-7
0.236, -1.256e-6, -7.831e-7, 4.729e-7
0.235, -1.259e-6, -7.840e-7, 4.754e-7
0.234, -1.259e-6, -7.852e-7, 4.736e-7
0.233, -1.263e-6, -7.867e-7, 4.760e-7
0.232, -1.265e-6, -7.877e-7, 4.775e-7
0.231, -1.264e-6, -7.880e-7, 4.760e-7
0.230, -1.267e-6, -7.901e-7, 4.772e-7
0.229, -1.268e-6, -7.898e-7, 4.781e-7
0.228, -1.268e-6, -7.898e-7, 4.784e-7
0.227, -1.272e-6, -7.925e-7, 4.794e-7
0.226, -1.275e-6, -7.938e-7, 4.809e-7
0.225, -1.278e-6, -7.968e-7, 4.812e-7
0.224, -1.277e-6, -7.950e-7, 4.824e-7
0.223, -1.281e-6, -7.965e-7, 4.842e-7
0.222, -1.281e-6, -7.971e-7, 4.842e-7
0.221, -1.284e-6, -7.990e-7, 4.848e-7
0.220, -1.285e-6, -7.980e-7, 4.867e-7
0.219, -1.284e-6, -7.996e-7, 4.845e-7
0.218, -1.287e-6, -8.002e-7, 4.867e-7
0.217, -1.291e-6, -8.005e-7, 4.906e-7
0.216, -1.291e-6, -8.026e-7, 4.885e-7
0.215, -1.296e-6, -8.060e-7, 4.897e-7
0.214, -1.294e-6, -8.035e-7, 4.909e-7
0.213, -1.296e-6, -8.060e-7, 4.900e-7
0.212, -1.300e-6, -8.072e-7, 4.928e-7
0.211, -1.300e-6, -8.066e-7, 4.937e-7
0.210, -1.300e-6, -8.081e-7, 4.922e-7
0.209, -1.304e-6, -8.093e-7, 4.946e-7
0.208, -1.305e-6, -8.084e-7, 4.964e-7
0.207, -1.305e-6, -8.102e-7, 4.943e-7
0.206, -1.307e-6, -8.115e-7, 4.958e-7
0.205, -1.310e-6, -8.121e-7, 4.980e-7
0.204, -1.309e-6, -8.118e-7, 4.977e-7
0.203, -1.312e-6, -8.136e-7, 4.989e-7
0.202, -1.312e-6, -8.130e-7, 4.989e-7
0.201, -1.313e-6, -8.133e-7, 4.998e-7
0.200, -1.319e-6, -8.185e-7, 5.007e-7
0.199, -1.320e-6, -8.154e-7, 5.044e-7
0.198, -1.320e-6, -8.170e-7, 5.028e-7
0.197, -1.323e-6, -8.191e-7, 5.035e-7
0.196, -1.323e-6, -8.185e-7, 5.047e-7
0.195, -1.320e-6, -8.179e-7, 5.022e-7
0.194, -1.324e-6, -8.197e-7, 5.041e-7
0.193, -1.326e-6, -8.194e-7, 5.068e-7
0.192, -1.327e-6, -8.203e-7, 5.062e-7
0.191, -1.329e-6, -8.209e-7, 5.083e-7
0.190, -1.331e-6, -8.206e-7, 5.105e-7
0.189, -1.330e-6, -8.212e-7, 5.083e-7
0.188, -1.332e-6, -8.234e-7, 5.086e-7
0.187, -1.334e-6, -8.218e-7, 5.120e-7
0.186, -1.333e-6, -8.225e-7, 5.108e-7
0.185, -1.336e-6, -8.243e-7, 5.120e-7
0.184, -1.336e-6, -8.231e-7, 5.132e-7
0.183, -1.336e-6, -8.246e-7, 5.111e-7
0.182, -1.340e-6, -8.255e-7, 5.144e-7
0.181, -1.341e-6, -8.246e-7, 5.163e-7
0.180, -1.340e-6, -8.243e-7, 5.154e-7
0.179, -1.342e-6, -8.264e-7, 5.160e-7
0.178, -1.344e-6, -8.252e-7, 5.184e-7
0.177, -1.342e-6, -8.267e-7, 5.154e-7
0.176, -1.347e-6, -8.286e-7, 5.181e-7
0.175, -1.347e-6, -8.264e-7, 5.209e-7
0.174, -1.345e-6, -8.267e-7, 5.181e-7
0.173, -1.347e-6, -8.273e-7, 5.196e-7
0.172, -1.348e-6, -8.261e-7, 5.224e-7
0.171, -1.348e-6, -8.273e-7, 5.205e-7
0.170, -1.352e-6, -8.298e-7, 5.221e-7
0.169, -1.350e-6, -8.270e-7, 5.227e-7
0.168, -1.351e-6, -8.279e-7, 5.230e-7
0.167, -1.355e-6, -8.304e-7, 5.245e-7
0.166, -1.356e-6, -8.292e-7, 5.270e-7
0.165, -1.353e-6, -8.279e-7, 5.248e-7
0.164, -1.355e-6, -8.292e-7, 5.257e-7
0.163, -1.356e-6, -8.286e-7, 5.276e-7
0.162, -1.355e-6, -8.286e-7, 5.263e-7
0.161, -1.355e-6, -8.289e-7, 5.263e-7
0.160, -1.357e-6, -8.273e-7, 5.294e-7
0.159, -1.357e-6, -8.289e-7, 5.285e-7
0.158, -1.359e-6, -8.295e-7, 5.294e-7
0.157, -1.361e-6, -8.286e-7, 5.321e-7
0.156, -1.359e-6, -8.289e-7, 5.303e-7
0.155, -1.361e-6, -8.292e-7, 5.321e-7
0.154, -1.361e-6, -8.273e-7, 5.337e-7
0.153, -1.359e-6, -8.276e-7, 5.312e-7
0.152, -1.362e-6, -8.292e-7, 5.328e-7
0.151, -1.363e-6, -8.279e-7, 5.352e-7
0.150, -1.362e-6, -8.267e-7, 5.349e-7
0.149, -1.363e-6, -8.292e-7, 5.337e-7
0.148, -1.361e-6, -8.255e-7, 5.355e-7
0.147, -1.363e-6, -8.283e-7, 5.352e-7
0.146, -1.363e-6, -8.264e-7, 5.361e-7
0.145, -1.365e-6, -8.255e-7, 5.395e-7
0.144, -1.361e-6, -8.252e-7, 5.358e-7
0.143, -1.364e-6, -8.276e-7, 5.367e-7
0.142, -1.364e-6, -8.249e-7, 5.389e-7
0.141, -1.363e-6, -8.249e-7, 5.376e-7
0.140, -1.363e-6, -8.255e-7, 5.379e-7
0.139, -1.363e-6, -8.237e-7, 5.398e-7
0.138, -1.362e-6, -8.234e-7, 5.389e-7
0.137, -1.365e-6, -8.252e-7, 5.395e-7
0.136, -1.365e-6, -8.237e-7, 5.416e-7
0.135, -1.363e-6, -8.228e-7, 5.401e-7
0.134, -1.365e-6, -8.246e-7, 5.407e-7
0.133, -1.363e-6, -8.200e-7, 5.434e-7
0.132, -1.362e-6, -8.215e-7, 5.407e-7
0.131, -1.363e-6, -8.212e-7, 5.416e-7
0.130, -1.362e-6, -8.191e-7, 5.431e-7
0.129, -1.361e-6, -8.197e-7, 5.413e-7
0.128, -1.363e-6, -8.194e-7, 5.431e-7
0.127, -1.362e-6, -8.182e-7, 5.434e-7
0.126, -1.360e-6, -8.176e-7, 5.425e-7
0.125, -1.362e-6, -8.173e-7, 5.450e-7
0.124, -1.360e-6, -8.151e-7, 5.450e-7
0.123, -1.359e-6, -8.160e-7, 5.431e-7
0.122, -1.359e-6, -8.151e-7, 5.443e-7
0.121, -1.359e-6, -8.136e-7, 5.450e-7
0.120, -1.357e-6, -8.139e-7, 5.434e-7
0.119, -1.359e-6, -8.142e-7, 5.450e-7
0.118, -1.356e-6, -8.109e-7, 5.456e-7
0.117, -1.356e-6, -8.118e-7, 5.447e-7
0.116, -1.359e-6, -8.121e-7, 5.465e-7
0.115, -1.356e-6, -8.081e-7, 5.474e-7
0.114, -1.356e-6, -8.115e-7, 5.443e-7
0.113, -1.357e-6, -8.096e-7, 5.477e-7
0.112, -1.353e-6, -8.063e-7, 5.471e-7
0.111, -1.353e-6, -8.063e-7, 5.468e-7
0.110, -1.354e-6, -8.072e-7, 5.471e-7
0.109, -1.353e-6, -8.051e-7, 5.480e-7
0.108, -1.352e-6, -8.048e-7, 5.468e-7
0.107, -1.350e-6, -8.032e-7, 5.471e-7
0.106, -1.350e-6, -8.008e-7, 5.492e-7
0.105, -1.349e-6, -8.020e-7, 5.468e-7
0.104, -1.348e-6, -8.023e-7, 5.462e-7
0.103, -1.349e-6, -7.987e-7, 5.501e-7
0.102, -1.347e-6, -7.999e-7, 5.471e-7
0.101, -1.346e-6, -7.990e-7, 5.474e-7
0.100, -1.345e-6, -7.968e-7, 5.480e-7
0.099, -1.343e-6, -7.965e-7, 5.462e-7
0.098, -1.341e-6, -7.956e-7, 5.456e-7
0.097, -1.343e-6, -7.944e-7, 5.483e-7
0.096, -1.340e-6, -7.938e-7, 5.462e-7
0.095, -1.341e-6, -7.944e-7, 5.462e-7
0.094, -1.338e-6, -7.901e-7, 5.474e-7
0.093, -1.338e-6, -7.907e-7, 5.468e-7
0.092, -1.338e-6, -7.913e-7, 5.465e-7
0.091, -1.334e-6, -7.871e-7, 5.471e-7
0.090, -1.332e-6, -7.868e-7, 5.453e-7
0.089, -1.334e-6, -7.880e-7, 5.462e-7
0.088, -1.331e-6, -7.849e-7, 5.462e-7
0.087, -1.331e-6, -7.855e-7, 5.456e-7
0.086, -1.332e-6, -7.849e-7, 5.474e-7
0.085, -1.326e-6, -7.803e-7, 5.459e-7
0.084, -1.328e-6, -7.822e-7, 5.459e-7
0.083, -1.327e-6, -7.819e-7, 5.447e-7
0.082, -1.324e-6, -7.779e-7, 5.462e-7
0.081, -1.323e-6, -7.785e-7, 5.443e-7
0.080, -1.323e-6, -7.782e-7, 5.450e-7
0.079, -1.321e-6, -7.767e-7, 5.447e-7
0.078, -1.319e-6, -7.761e-7, 5.425e-7
0.077, -1.318e-6, -7.748e-7, 5.431e-7
0.076, -1.315e-6, -7.709e-7, 5.440e-7
0.075, -1.312e-6, -7.715e-7, 5.410e-7
0.074, -1.315e-6, -7.718e-7, 5.428e-7
0.073, -1.312e-6, -7.684e-7, 5.431e-7
0.072, -1.310e-6, -7.684e-7, 5.416e-7
0.071, -1.311e-6, -7.678e-7, 5.431e-7
0.070, -1.308e-6, -7.651e-7, 5.428e-7
0.069, -1.307e-6, -7.654e-7, 5.419e-7
0.068, -1.305e-6, -7.645e-7, 5.407e-7
0.067, -1.304e-6, -7.623e-7, 5.413e-7
0.066, -1.300e-6, -7.617e-7, 5.382e-7
0.065, -1.303e-6, -7.617e-7, 5.413e-7
0.064, -1.297e-6, -7.581e-7, 5.392e-7
0.063, -1.297e-6, -7.584e-7, 5.389e-7
0.062, -1.296e-6, -7.575e-7, 5.385e-7
0.061, -1.294e-6, -7.559e-7, 5.385e-7
0.060, -1.289e-6, -7.538e-7, 5.352e-7
0.059, -1.289e-6, -7.532e-7, 5.361e-7
0.058, -1.290e-6, -7.526e-7, 5.376e-7
0.057, -1.285e-6, -7.501e-7, 5.352e-7
0.056, -1.287e-6, -7.510e-7, 5.355e-7
0.055, -1.285e-6, -7.483e-7, 5.370e-7
0.054, -1.281e-6, -7.477e-7, 5.334e-7
0.053, -1.281e-6, -7.471e-7, 5.340e-7
0.052, -1.278e-6, -7.440e-7, 5.340e-7
0.051, -1.277e-6, -7.440e-7, 5.328e-7
0.050, -1.275e-6, -7.434e-7, 5.318e-7
0.049, -1.272e-6, -7.407e-7, 5.315e-7
0.048, -1.271e-6, -7.416e-7, 5.294e-7
0.047, -1.272e-6, -7.404e-7, 5.318e-7
0.046, -1.269e-6, -7.391e-7, 5.294e-7
0.045, -1.266e-6, -7.382e-7, 5.282e-7
0.044, -1.267e-6, -7.379e-7, 5.294e-7
0.043, -1.263e-6, -7.349e-7, 5.282e-7
0.042, -1.263e-6, -7.346e-7, 5.282e-7
0.041, -1.263e-6, -7.343e-7, 5.285e-7
0.040, -1.257e-6, -7.327e-7, 5.245e-7
0.039, -1.255e-6, -7.306e-7, 5.248e-7
0.038, -1.256e-6, -7.306e-7, 5.251e-7
0.037, -1.256e-6, -7.294e-7, 5.263e-7
0.036, -1.252e-6, -7.288e-7, 5.236e-7
0.035, -1.250e-6, -7.276e-7, 5.224e-7
0.034, -1.249e-6, -7.251e-7, 5.239e-7
0.033, -1.245e-6, -7.251e-7, 5.202e-7
0.032, -1.247e-6, -7.245e-7, 5.221e-7
0.031, -1.242e-6, -7.227e-7, 5.193e-7
0.030, -1.240e-6, -7.214e-7, 5.184e-7
0.029, -1.242e-6, -7.224e-7, 5.196e-7
0.028, -1.237e-6, -7.184e-7, 5.190e-7
0.027, -1.237e-6, -7.193e-7, 5.181e-7
0.026, -1.236e-6, -7.184e-7, 5.175e-7
0.025, -1.232e-6, -7.153e-7, 5.169e-7
0.024, -1.231e-6, -7.172e-7, 5.135e-7
0.023, -1.232e-6, -7.166e-7, 5.157e-7
0.022, -1.227e-6, -7.129e-7, 5.138e-7
0.021, -1.226e-6, -7.138e-7, 5.117e-7
0.020, -1.227e-6, -7.132e-7, 5.135e-7
0.019, -1.224e-6, -7.111e-7, 5.129e-7
0.018, -1.222e-6, -7.114e-7, 5.102e-7
0.017, -1.222e-6, -7.117e-7, 5.102e-7
0.016, -1.219e-6, -7.092e-7, 5.102e-7
0.015, -1.217e-6, -7.077e-7, 5.093e-7
0.014, -1.216e-6, -7.074e-7, 5.089e-7
0.013, -1.216e-6, -7.062e-7, 5.096e-7
0.012, -1.211e-6, -7.056e-7, 5.056e-7
0.011, -1.213e-6, -7.053e-7, 5.074e-7
0.010, -1.208e-6, -7.028e-7, 5.056e-7
0.009, -1.206e-6, -7.031e-7, 5.025e-7
0.008, -1.208e-6, -7.037e-7, 5.047e-7
0.007, -1.204e-6, -7.004e-7, 5.038e-7
0.006, -1.202e-6, -7.001e-7, 5.019e-7
0.005, -1.201e-6, -7.001e-7, 5.013e-7
0.004, -1.200e-6, -6.980e-7, 5.016e-7
0.003, -1.197e-6, -6.976e-7, 4.998e-7
0.002, -1.198e-6, -6.967e-7, 5.013e-7
0.001, -1.197e-6, -6.964e-7, 5.001e-7
-0.000, -1.194e-6, -6.964e-7, 4.980e-7
-0.001, -1.192e-6, -6.964e-7, 4.958e-7
-0.002, -1.191e-6, -6.943e-7, 4.967e-7
-0.003, -1.192e-6, -6.952e-7, 4.964e-7
-0.004, -1.190e-6, -6.937e-7, 4.961e-7
-0.005, -1.188e-6, -6.912e-7, 4.964e-7
-0.006, -1.186e-6, -6.918e-7, 4.937e-7
-0.007, -1.185e-6, -6.912e-7, 4.934e-7
-0.008, -1.184e-6, -6.903e-7, 4.940e-7
-0.009, -1.179e-6, -6.891e-7, 4.894e-7
-0.010, -1.181e-6, -6.900e-7, 4.912e-7
-0.011, -1.179e-6, -6.885e-7, 4.909e-7
-0.012, -1.177e-6, -6.879e-7, 4.894e-7
-0.013, -1.179e-6, -6.891e-7, 4.900e-7
-0.014, -1.174e-6, -6.861e-7, 4.882e-7
-0.015, -1.175e-6, -6.867e-7, 4.882e-7
-0.016, -1.174e-6, -6.861e-7, 4.876e-7
-0.017, -1.171e-6, -6.845e-7, 4.864e-7
-0.018, -1.170e-6, -6.851e-7, 4.851e-7
-0.019, -1.172e-6, -6.854e-7, 4.864e-7
-0.020, -1.168e-6, -6.833e-7, 4.848e-7
-0.021, -1.166e-6, -6.830e-7, 4.833e-7
-0.022, -1.167e-6, -6.821e-7, 4.845e-7
-0.023, -1.165e-6, -6.818e-7, 4.830e-7
-0.024, -1.162e-6, -6.818e-7, 4.803e-7
-0.025, -1.164e-6, -6.815e-7, 4.827e-7
-0.026, -1.161e-6, -6.806e-7, 4.809e-7
-0.027, -1.161e-6, -6.815e-7, 4.797e-7
-0.028, -1.160e-6, -6.803e-7, 4.800e-7
-0.029, -1.157e-6, -6.775e-7, 4.797e-7
-0.030, -1.157e-6, -6.778e-7, 4.790e-7
-0.031, -1.157e-6, -6.784e-7, 4.781e-7
-0.032, -1.156e-6, -6.781e-7, 4.775e-7
-0.033, -1.155e-6, -6.784e-7, 4.769e-7
-0.034, -1.153e-6, -6.766e-7, 4.769e-7
-0.035, -1.152e-6, -6.757e-7, 4.766e-7
-0.036, -1.152e-6, -6.772e-7, 4.748e-7
-0.037, -1.152e-6, -6.766e-7, 4.751e-7
-0.038, -1.148e-6, -6.748e-7, 4.729e-7
-0.039, -1.151e-6, -6.763e-7, 4.748e-7
-0.040, -1.147e-6, -6.745e-7, 4.729e-7
-0.041, -1.148e-6, -6.745e-7, 4.732e-7
-0.042, -1.146e-6, -6.738e-7, 4.723e-7
-0.043, -1.148e-6, -6.754e-7, 4.726e-7
-0.044, -1.146e-6, -6.726e-7, 4.729e-7
-0.045, -1.146e-6, -6.738e-7, 4.717e-7
-0.046, -1.144e-6, -6.735e-7, 4.705e-7
-0.047, -1.143e-6, -6.729e-7, 4.705e-7
-0.048, -1.141e-6, -6.720e-7, 4.693e-7
-0.049, -1.141e-6, -6.726e-7, 4.681e-7
-0.050, -1.140e-6, -6.717e-7, 4.687e-7
