Mar. 20, 2018   14:01:31
Square Wave Voltammetry
File: c:\users\electrochemist\desktop\2018\20032018_unbufarray_unpap\20_g4_ph6,01_4.txt
Data Source:  Experiment
Instrument Model:  CHI1040A
Header: 
Note: 

Init E (V) = 0.7
Final E (V) = -0.4
Incr E (V) = 0.001
Amplitude (V) = 0.1
Frequency (Hz) = 152
Quiet Time (sec) = 2
Sensitivity (A/V) = 1e-5

Difference:

Forward:

Reverse:

Potential/V, Diff(i/A), For(i/A), Rev(i/A)

0.699, -6.073e-7, -1.898e-7, 4.174e-7
0.698, -7.263e-7, -3.394e-7, 3.869e-7
0.697, -7.232e-7, -3.455e-7, 3.778e-7
0.696, -7.232e-7, -3.516e-7, 3.717e-7
0.695, -7.263e-7, -3.516e-7, 3.747e-7
0.694, -7.202e-7, -3.516e-7, 3.686e-7
0.693, -7.232e-7, -3.546e-7, 3.686e-7
0.692, -7.202e-7, -3.516e-7, 3.686e-7
0.691, -7.171e-7, -3.516e-7, 3.656e-7
0.690, -7.171e-7, -3.516e-7, 3.656e-7
0.689, -7.141e-7, -3.516e-7, 3.625e-7
0.688, -7.141e-7, -3.516e-7, 3.625e-7
0.687, -7.171e-7, -3.546e-7, 3.625e-7
0.686, -7.110e-7, -3.516e-7, 3.594e-7
0.685, -7.141e-7, -3.516e-7, 3.625e-7
0.684, -7.110e-7, -3.516e-7, 3.594e-7
0.683, -7.110e-7, -3.546e-7, 3.564e-7
0.682, -7.110e-7, -3.546e-7, 3.564e-7
0.681, -7.110e-7, -3.516e-7, 3.594e-7
0.680, -7.080e-7, -3.546e-7, 3.533e-7
0.679, -7.110e-7, -3.546e-7, 3.564e-7
0.678, -7.080e-7, -3.516e-7, 3.564e-7
0.677, -7.110e-7, -3.546e-7, 3.564e-7
0.676, -7.049e-7, -3.516e-7, 3.533e-7
0.675, -7.080e-7, -3.516e-7, 3.564e-7
0.674, -7.019e-7, -3.516e-7, 3.503e-7
0.673, -7.049e-7, -3.546e-7, 3.503e-7
0.672, -7.019e-7, -3.516e-7, 3.503e-7
0.671, -7.019e-7, -3.516e-7, 3.503e-7
0.670, -7.049e-7, -3.546e-7, 3.503e-7
0.669, -7.019e-7, -3.516e-7, 3.503e-7
0.668, -7.019e-7, -3.546e-7, 3.472e-7
0.667, -7.049e-7, -3.546e-7, 3.503e-7
0.666, -6.988e-7, -3.516e-7, 3.472e-7
0.665, -7.019e-7, -3.546e-7, 3.472e-7
0.664, -7.019e-7, -3.546e-7, 3.472e-7
0.663, -6.958e-7, -3.516e-7, 3.442e-7
0.662, -6.988e-7, -3.546e-7, 3.442e-7
0.661, -7.019e-7, -3.546e-7, 3.472e-7
0.660, -6.958e-7, -3.516e-7, 3.442e-7
0.659, -6.958e-7, -3.546e-7, 3.411e-7
0.658, -6.958e-7, -3.516e-7, 3.442e-7
0.657, -6.958e-7, -3.516e-7, 3.442e-7
0.656, -6.958e-7, -3.516e-7, 3.442e-7
0.655, -6.958e-7, -3.546e-7, 3.411e-7
0.654, -6.958e-7, -3.546e-7, 3.411e-7
0.653, -6.958e-7, -3.546e-7, 3.411e-7
0.652, -6.927e-7, -3.516e-7, 3.411e-7
0.651, -6.958e-7, -3.546e-7, 3.411e-7
0.650, -6.927e-7, -3.516e-7, 3.411e-7
0.649, -6.927e-7, -3.516e-7, 3.411e-7
0.648, -6.927e-7, -3.546e-7, 3.381e-7
0.647, -6.927e-7, -3.516e-7, 3.411e-7
0.646, -6.897e-7, -3.516e-7, 3.381e-7
0.645, -6.927e-7, -3.546e-7, 3.381e-7
0.644, -6.897e-7, -3.516e-7, 3.381e-7
0.643, -6.866e-7, -3.516e-7, 3.350e-7
0.642, -6.927e-7, -3.546e-7, 3.381e-7
0.641, -6.866e-7, -3.516e-7, 3.350e-7
0.640, -6.897e-7, -3.546e-7, 3.350e-7
0.639, -6.897e-7, -3.516e-7, 3.381e-7
0.638, -6.866e-7, -3.516e-7, 3.350e-7
0.637, -6.897e-7, -3.546e-7, 3.350e-7
0.636, -6.927e-7, -3.546e-7, 3.381e-7
0.635, -6.866e-7, -3.516e-7, 3.350e-7
0.634, -6.897e-7, -3.546e-7, 3.350e-7
0.633, -6.866e-7, -3.516e-7, 3.350e-7
0.632, -6.866e-7, -3.546e-7, 3.320e-7
0.631, -6.866e-7, -3.546e-7, 3.320e-7
0.630, -6.866e-7, -3.516e-7, 3.350e-7
0.629, -6.836e-7, -3.516e-7, 3.320e-7
0.628, -6.866e-7, -3.546e-7, 3.320e-7
0.627, -6.866e-7, -3.516e-7, 3.350e-7
0.626, -6.836e-7, -3.516e-7, 3.320e-7
0.625, -6.866e-7, -3.546e-7, 3.320e-7
0.624, -6.866e-7, -3.516e-7, 3.350e-7
0.623, -6.836e-7, -3.516e-7, 3.320e-7
0.622, -6.866e-7, -3.546e-7, 3.320e-7
0.621, -6.866e-7, -3.546e-7, 3.320e-7
0.620, -6.866e-7, -3.546e-7, 3.320e-7
0.619, -6.897e-7, -3.577e-7, 3.320e-7
0.618, -6.836e-7, -3.516e-7, 3.320e-7
0.617, -6.866e-7, -3.546e-7, 3.320e-7
0.616, -6.866e-7, -3.546e-7, 3.320e-7
0.615, -6.866e-7, -3.546e-7, 3.320e-7
0.614, -6.897e-7, -3.577e-7, 3.320e-7
0.613, -6.836e-7, -3.546e-7, 3.289e-7
0.612, -6.866e-7, -3.546e-7, 3.320e-7
0.611, -6.866e-7, -3.577e-7, 3.289e-7
0.610, -6.866e-7, -3.546e-7, 3.320e-7
0.609, -6.866e-7, -3.546e-7, 3.320e-7
0.608, -6.866e-7, -3.577e-7, 3.289e-7
0.607, -6.866e-7, -3.546e-7, 3.320e-7
0.606, -6.866e-7, -3.577e-7, 3.289e-7
0.605, -6.897e-7, -3.577e-7, 3.320e-7
0.604, -6.897e-7, -3.577e-7, 3.320e-7
0.603, -6.866e-7, -3.546e-7, 3.320e-7
0.602, -6.897e-7, -3.577e-7, 3.320e-7
0.601, -6.897e-7, -3.577e-7, 3.320e-7
0.600, -6.866e-7, -3.577e-7, 3.289e-7
0.599, -6.897e-7, -3.577e-7, 3.320e-7
0.598, -6.897e-7, -3.577e-7, 3.320e-7
0.597, -6.866e-7, -3.577e-7, 3.289e-7
0.596, -6.866e-7, -3.577e-7, 3.289e-7
0.595, -6.866e-7, -3.577e-7, 3.289e-7
0.594, -6.897e-7, -3.607e-7, 3.289e-7
0.593, -6.866e-7, -3.577e-7, 3.289e-7
0.592, -6.866e-7, -3.577e-7, 3.289e-7
0.591, -6.897e-7, -3.607e-7, 3.289e-7
0.590, -6.836e-7, -3.546e-7, 3.289e-7
0.589, -6.866e-7, -3.577e-7, 3.289e-7
0.588, -6.897e-7, -3.607e-7, 3.289e-7
0.587, -6.866e-7, -3.577e-7, 3.289e-7
0.586, -6.897e-7, -3.607e-7, 3.289e-7
0.585, -6.897e-7, -3.607e-7, 3.289e-7
0.584, -6.866e-7, -3.577e-7, 3.289e-7
0.583, -6.866e-7, -3.607e-7, 3.259e-7
0.582, -6.897e-7, -3.607e-7, 3.289e-7
0.581, -6.927e-7, -3.607e-7, 3.320e-7
0.580, -6.927e-7, -3.638e-7, 3.289e-7
0.579, -6.897e-7, -3.607e-7, 3.289e-7
0.578, -6.927e-7, -3.607e-7, 3.320e-7
0.577, -6.866e-7, -3.607e-7, 3.259e-7
0.576, -6.927e-7, -3.638e-7, 3.289e-7
0.575, -6.866e-7, -3.577e-7, 3.289e-7
0.574, -6.866e-7, -3.607e-7, 3.259e-7
0.573, -6.897e-7, -3.607e-7, 3.289e-7
0.572, -6.897e-7, -3.607e-7, 3.289e-7
0.571, -6.866e-7, -3.607e-7, 3.259e-7
0.570, -6.897e-7, -3.607e-7, 3.289e-7
0.569, -6.897e-7, -3.607e-7, 3.289e-7
0.568, -6.927e-7, -3.638e-7, 3.289e-7
0.567, -6.897e-7, -3.607e-7, 3.289e-7
0.566, -6.897e-7, -3.607e-7, 3.289e-7
0.565, -6.927e-7, -3.638e-7, 3.289e-7
0.564, -6.897e-7, -3.638e-7, 3.259e-7
0.563, -6.897e-7, -3.638e-7, 3.259e-7
0.562, -6.897e-7, -3.638e-7, 3.259e-7
0.561, -6.897e-7, -3.638e-7, 3.259e-7
0.560, -6.897e-7, -3.638e-7, 3.259e-7
0.559, -6.927e-7, -3.638e-7, 3.289e-7
0.558, -6.897e-7, -3.638e-7, 3.259e-7
0.557, -6.897e-7, -3.638e-7, 3.259e-7
0.556, -6.897e-7, -3.638e-7, 3.259e-7
0.555, -6.897e-7, -3.607e-7, 3.289e-7
0.554, -6.897e-7, -3.638e-7, 3.259e-7
0.553, -6.927e-7, -3.638e-7, 3.289e-7
0.552, -6.897e-7, -3.638e-7, 3.259e-7
0.551, -6.897e-7, -3.638e-7, 3.259e-7
0.550, -6.897e-7, -3.638e-7, 3.259e-7
0.549, -6.897e-7, -3.638e-7, 3.259e-7
0.548, -6.927e-7, -3.668e-7, 3.259e-7
0.547, -6.897e-7, -3.638e-7, 3.259e-7
0.546, -6.897e-7, -3.638e-7, 3.259e-7
0.545, -6.897e-7, -3.638e-7, 3.259e-7
0.544, -6.897e-7, -3.638e-7, 3.259e-7
0.543, -6.866e-7, -3.638e-7, 3.228e-7
0.542, -6.927e-7, -3.638e-7, 3.289e-7
0.541, -6.897e-7, -3.638e-7, 3.259e-7
0.540, -6.897e-7, -3.668e-7, 3.228e-7
0.539, -6.927e-7, -3.668e-7, 3.259e-7
0.538, -6.927e-7, -3.668e-7, 3.259e-7
0.537, -6.927e-7, -3.668e-7, 3.259e-7
0.536, -6.927e-7, -3.668e-7, 3.259e-7
0.535, -6.927e-7, -3.668e-7, 3.259e-7
0.534, -6.897e-7, -3.668e-7, 3.228e-7
0.533, -6.958e-7, -3.668e-7, 3.289e-7
0.532, -6.897e-7, -3.668e-7, 3.228e-7
0.531, -6.958e-7, -3.699e-7, 3.259e-7
0.530, -6.927e-7, -3.668e-7, 3.259e-7
0.529, -6.927e-7, -3.668e-7, 3.259e-7
0.528, -6.927e-7, -3.668e-7, 3.259e-7
0.527, -6.927e-7, -3.668e-7, 3.259e-7
0.526, -6.958e-7, -3.699e-7, 3.259e-7
0.525, -6.927e-7, -3.699e-7, 3.228e-7
0.524, -6.927e-7, -3.668e-7, 3.259e-7
0.523, -6.958e-7, -3.699e-7, 3.259e-7
0.522, -6.958e-7, -3.699e-7, 3.259e-7
0.521, -6.927e-7, -3.668e-7, 3.259e-7
0.520, -6.958e-7, -3.729e-7, 3.228e-7
0.519, -6.958e-7, -3.699e-7, 3.259e-7
0.518, -6.958e-7, -3.699e-7, 3.259e-7
0.517, -6.988e-7, -3.729e-7, 3.259e-7
0.516, -6.958e-7, -3.699e-7, 3.259e-7
0.515, -6.958e-7, -3.699e-7, 3.259e-7
0.514, -6.988e-7, -3.729e-7, 3.259e-7
0.513, -6.958e-7, -3.699e-7, 3.259e-7
0.512, -6.927e-7, -3.699e-7, 3.228e-7
0.511, -6.988e-7, -3.729e-7, 3.259e-7
0.510, -6.988e-7, -3.729e-7, 3.259e-7
0.509, -6.988e-7, -3.729e-7, 3.259e-7
0.508, -7.019e-7, -3.760e-7, 3.259e-7
0.507, -6.988e-7, -3.729e-7, 3.259e-7
0.506, -6.988e-7, -3.729e-7, 3.259e-7
0.505, -7.019e-7, -3.760e-7, 3.259e-7
0.504, -6.988e-7, -3.729e-7, 3.259e-7
0.503, -6.988e-7, -3.729e-7, 3.259e-7
0.502, -7.019e-7, -3.760e-7, 3.259e-7
0.501, -7.019e-7, -3.760e-7, 3.259e-7
0.500, -7.019e-7, -3.760e-7, 3.259e-7
0.499, -7.049e-7, -3.760e-7, 3.289e-7
0.498, -7.019e-7, -3.760e-7, 3.259e-7
0.497, -7.049e-7, -3.790e-7, 3.259e-7
0.496, -7.019e-7, -3.760e-7, 3.259e-7
0.495, -7.019e-7, -3.760e-7, 3.259e-7
0.494, -7.019e-7, -3.760e-7, 3.259e-7
0.493, -7.019e-7, -3.760e-7, 3.259e-7
0.492, -7.019e-7, -3.790e-7, 3.228e-7
0.491, -7.080e-7, -3.790e-7, 3.289e-7
0.490, -7.049e-7, -3.760e-7, 3.289e-7
0.489, -7.019e-7, -3.790e-7, 3.228e-7
0.488, -7.049e-7, -3.790e-7, 3.259e-7
0.487, -7.080e-7, -3.790e-7, 3.289e-7
0.486, -7.049e-7, -3.790e-7, 3.259e-7
0.485, -7.110e-7, -3.821e-7, 3.289e-7
0.484, -7.080e-7, -3.790e-7, 3.289e-7
0.483, -7.080e-7, -3.821e-7, 3.259e-7
0.482, -7.110e-7, -3.821e-7, 3.289e-7
0.481, -7.110e-7, -3.821e-7, 3.289e-7
0.480, -7.080e-7, -3.821e-7, 3.259e-7
0.479, -7.049e-7, -3.790e-7, 3.259e-7
0.478, -7.049e-7, -3.790e-7, 3.259e-7
0.477, -7.080e-7, -3.821e-7, 3.259e-7
0.476, -7.080e-7, -3.821e-7, 3.259e-7
0.475, -7.080e-7, -3.821e-7, 3.259e-7
0.474, -7.110e-7, -3.851e-7, 3.259e-7
0.473, -7.080e-7, -3.821e-7, 3.259e-7
0.472, -7.080e-7, -3.821e-7, 3.259e-7
0.471, -7.080e-7, -3.821e-7, 3.259e-7
0.470, -7.110e-7, -3.821e-7, 3.289e-7
0.469, -7.080e-7, -3.821e-7, 3.259e-7
0.468, -7.141e-7, -3.851e-7, 3.289e-7
0.467, -7.110e-7, -3.851e-7, 3.259e-7
0.466, -7.110e-7, -3.851e-7, 3.259e-7
0.465, -7.110e-7, -3.851e-7, 3.259e-7
0.464, -7.110e-7, -3.851e-7, 3.259e-7
0.463, -7.110e-7, -3.851e-7, 3.259e-7
0.462, -7.110e-7, -3.851e-7, 3.259e-7
0.461, -7.080e-7, -3.821e-7, 3.259e-7
0.460, -7.110e-7, -3.851e-7, 3.259e-7
0.459, -7.141e-7, -3.851e-7, 3.289e-7
0.458, -7.110e-7, -3.851e-7, 3.259e-7
0.457, -7.171e-7, -3.882e-7, 3.289e-7
0.456, -7.141e-7, -3.882e-7, 3.259e-7
0.455, -7.141e-7, -3.882e-7, 3.259e-7
0.454, -7.141e-7, -3.851e-7, 3.289e-7
0.453, -7.141e-7, -3.882e-7, 3.259e-7
0.452, -7.141e-7, -3.882e-7, 3.259e-7
0.451, -7.141e-7, -3.882e-7, 3.259e-7
0.450, -7.141e-7, -3.882e-7, 3.259e-7
0.449, -7.171e-7, -3.912e-7, 3.259e-7
0.448, -7.141e-7, -3.882e-7, 3.259e-7
0.447, -7.141e-7, -3.882e-7, 3.259e-7
0.446, -7.141e-7, -3.912e-7, 3.228e-7
0.445, -7.202e-7, -3.912e-7, 3.289e-7
0.444, -7.171e-7, -3.912e-7, 3.259e-7
0.443, -7.171e-7, -3.912e-7, 3.259e-7
0.442, -7.202e-7, -3.912e-7, 3.289e-7
0.441, -7.171e-7, -3.912e-7, 3.259e-7
0.440, -7.202e-7, -3.943e-7, 3.259e-7
0.439, -7.202e-7, -3.912e-7, 3.289e-7
0.438, -7.202e-7, -3.943e-7, 3.259e-7
0.437, -7.202e-7, -3.943e-7, 3.259e-7
0.436, -7.202e-7, -3.912e-7, 3.289e-7
0.435, -7.202e-7, -3.943e-7, 3.259e-7
0.434, -7.232e-7, -3.973e-7, 3.259e-7
0.433, -7.232e-7, -3.943e-7, 3.289e-7
0.432, -7.202e-7, -3.943e-7, 3.259e-7
0.431, -7.232e-7, -3.973e-7, 3.259e-7
0.430, -7.232e-7, -3.943e-7, 3.289e-7
0.429, -7.232e-7, -3.973e-7, 3.259e-7
0.428, -7.263e-7, -3.973e-7, 3.289e-7
0.427, -7.263e-7, -3.973e-7, 3.289e-7
0.426, -7.263e-7, -3.973e-7, 3.289e-7
0.425, -7.263e-7, -3.973e-7, 3.289e-7
0.424, -7.293e-7, -4.004e-7, 3.289e-7
0.423, -7.263e-7, -4.004e-7, 3.259e-7
0.422, -7.293e-7, -4.004e-7, 3.289e-7
0.421, -7.293e-7, -4.004e-7, 3.289e-7
0.420, -7.324e-7, -4.035e-7, 3.289e-7
0.419, -7.324e-7, -4.035e-7, 3.289e-7
0.418, -7.293e-7, -4.004e-7, 3.289e-7
0.417, -7.324e-7, -4.035e-7, 3.289e-7
0.416, -7.324e-7, -4.035e-7, 3.289e-7
0.415, -7.324e-7, -4.035e-7, 3.289e-7
0.414, -7.354e-7, -4.065e-7, 3.289e-7
0.413, -7.354e-7, -4.035e-7, 3.320e-7
0.412, -7.385e-7, -4.065e-7, 3.320e-7
0.411, -7.385e-7, -4.065e-7, 3.320e-7
0.410, -7.354e-7, -4.065e-7, 3.289e-7
0.409, -7.385e-7, -4.065e-7, 3.320e-7
0.408, -7.385e-7, -4.065e-7, 3.320e-7
0.407, -7.385e-7, -4.096e-7, 3.289e-7
0.406, -7.415e-7, -4.096e-7, 3.320e-7
0.405, -7.415e-7, -4.096e-7, 3.320e-7
0.404, -7.385e-7, -4.096e-7, 3.289e-7
0.403, -7.446e-7, -4.126e-7, 3.320e-7
0.402, -7.446e-7, -4.096e-7, 3.350e-7
0.401, -7.446e-7, -4.126e-7, 3.320e-7
0.400, -7.446e-7, -4.126e-7, 3.320e-7
0.399, -7.446e-7, -4.096e-7, 3.350e-7
0.398, -7.446e-7, -4.157e-7, 3.289e-7
0.397, -7.476e-7, -4.157e-7, 3.320e-7
0.396, -7.476e-7, -4.126e-7, 3.350e-7
0.395, -7.476e-7, -4.157e-7, 3.320e-7
0.394, -7.476e-7, -4.157e-7, 3.320e-7
0.393, -7.507e-7, -4.157e-7, 3.350e-7
0.392, -7.507e-7, -4.187e-7, 3.320e-7
0.391, -7.537e-7, -4.187e-7, 3.350e-7
0.390, -7.476e-7, -4.157e-7, 3.320e-7
0.389, -7.507e-7, -4.187e-7, 3.320e-7
0.388, -7.537e-7, -4.187e-7, 3.350e-7
0.387, -7.507e-7, -4.187e-7, 3.320e-7
0.386, -7.537e-7, -4.218e-7, 3.320e-7
0.385, -7.568e-7, -4.218e-7, 3.350e-7
0.384, -7.568e-7, -4.218e-7, 3.350e-7
0.383, -7.568e-7, -4.248e-7, 3.320e-7
0.382, -7.568e-7, -4.218e-7, 3.350e-7
0.381, -7.598e-7, -4.248e-7, 3.350e-7
0.380, -7.568e-7, -4.248e-7, 3.320e-7
0.379, -7.598e-7, -4.248e-7, 3.350e-7
0.378, -7.537e-7, -4.218e-7, 3.320e-7
0.377, -7.598e-7, -4.248e-7, 3.350e-7
0.376, -7.598e-7, -4.248e-7, 3.350e-7
0.375, -7.629e-7, -4.279e-7, 3.350e-7
0.374, -7.629e-7, -4.279e-7, 3.350e-7
0.373, -7.598e-7, -4.248e-7, 3.350e-7
0.372, -7.629e-7, -4.279e-7, 3.350e-7
0.371, -7.629e-7, -4.279e-7, 3.350e-7
0.370, -7.629e-7, -4.279e-7, 3.350e-7
0.369, -7.659e-7, -4.309e-7, 3.350e-7
0.368, -7.659e-7, -4.309e-7, 3.350e-7
0.367, -7.629e-7, -4.279e-7, 3.350e-7
0.366, -7.659e-7, -4.309e-7, 3.350e-7
0.365, -7.690e-7, -4.340e-7, 3.350e-7
0.364, -7.690e-7, -4.340e-7, 3.350e-7
0.363, -7.690e-7, -4.340e-7, 3.350e-7
0.362, -7.721e-7, -4.340e-7, 3.381e-7
0.361, -7.721e-7, -4.370e-7, 3.350e-7
0.360, -7.751e-7, -4.370e-7, 3.381e-7
0.359, -7.751e-7, -4.370e-7, 3.381e-7
0.358, -7.721e-7, -4.370e-7, 3.350e-7
0.357, -7.751e-7, -4.370e-7, 3.381e-7
0.356, -7.721e-7, -4.370e-7, 3.350e-7
0.355, -7.782e-7, -4.431e-7, 3.350e-7
0.354, -7.812e-7, -4.431e-7, 3.381e-7
0.353, -7.751e-7, -4.401e-7, 3.350e-7
0.352, -7.782e-7, -4.431e-7, 3.350e-7
0.351, -7.812e-7, -4.431e-7, 3.381e-7
0.350, -7.751e-7, -4.401e-7, 3.350e-7
0.349, -7.782e-7, -4.431e-7, 3.350e-7
0.348, -7.812e-7, -4.431e-7, 3.381e-7
0.347, -7.812e-7, -4.431e-7, 3.381e-7
0.346, -7.812e-7, -4.462e-7, 3.350e-7
0.345, -7.843e-7, -4.462e-7, 3.381e-7
0.344, -7.843e-7, -4.492e-7, 3.350e-7
0.343, -7.873e-7, -4.492e-7, 3.381e-7
0.342, -7.904e-7, -4.492e-7, 3.411e-7
0.341, -7.873e-7, -4.492e-7, 3.381e-7
0.340, -7.904e-7, -4.523e-7, 3.381e-7
0.339, -7.965e-7, -4.523e-7, 3.442e-7
0.338, -7.904e-7, -4.523e-7, 3.381e-7
0.337, -7.934e-7, -4.553e-7, 3.381e-7
0.336, -7.934e-7, -4.523e-7, 3.411e-7
0.335, -7.965e-7, -4.553e-7, 3.411e-7
0.334, -7.965e-7, -4.553e-7, 3.411e-7
0.333, -7.965e-7, -4.553e-7, 3.411e-7
0.332, -7.995e-7, -4.584e-7, 3.411e-7
0.331, -7.995e-7, -4.584e-7, 3.411e-7
0.330, -8.056e-7, -4.614e-7, 3.442e-7
0.329, -8.026e-7, -4.614e-7, 3.411e-7
0.328, -8.056e-7, -4.614e-7, 3.442e-7
0.327, -8.087e-7, -4.645e-7, 3.442e-7
0.326, -8.087e-7, -4.645e-7, 3.442e-7
0.325, -8.087e-7, -4.645e-7, 3.442e-7
0.324, -8.087e-7, -4.645e-7, 3.442e-7
0.323, -8.117e-7, -4.675e-7, 3.442e-7
0.322, -8.117e-7, -4.675e-7, 3.442e-7
0.321, -8.117e-7, -4.675e-7, 3.442e-7
0.320, -8.148e-7, -4.706e-7, 3.442e-7
0.319, -8.117e-7, -4.675e-7, 3.442e-7
0.318, -8.148e-7, -4.706e-7, 3.442e-7
0.317, -8.178e-7, -4.706e-7, 3.472e-7
0.316, -8.178e-7, -4.736e-7, 3.442e-7
0.315, -8.209e-7, -4.736e-7, 3.472e-7
0.314, -8.209e-7, -4.736e-7, 3.472e-7
0.313, -8.209e-7, -4.767e-7, 3.442e-7
0.312, -8.239e-7, -4.767e-7, 3.472e-7
0.311, -8.270e-7, -4.767e-7, 3.503e-7
0.310, -8.239e-7, -4.767e-7, 3.472e-7
0.309, -8.270e-7, -4.797e-7, 3.472e-7
0.308, -8.270e-7, -4.767e-7, 3.503e-7
0.307, -8.270e-7, -4.797e-7, 3.472e-7
0.306, -8.331e-7, -4.828e-7, 3.503e-7
0.305, -8.331e-7, -4.828e-7, 3.503e-7
0.304, -8.331e-7, -4.858e-7, 3.472e-7
0.303, -8.361e-7, -4.858e-7, 3.503e-7
0.302, -8.361e-7, -4.828e-7, 3.533e-7
0.301, -8.361e-7, -4.889e-7, 3.472e-7
0.300, -8.361e-7, -4.858e-7, 3.503e-7
0.299, -8.392e-7, -4.858e-7, 3.533e-7
0.298, -8.392e-7, -4.889e-7, 3.503e-7
0.297, -8.453e-7, -4.919e-7, 3.533e-7
0.296, -8.392e-7, -4.889e-7, 3.503e-7
0.295, -8.453e-7, -4.950e-7, 3.503e-7
0.294, -8.453e-7, -4.919e-7, 3.533e-7
0.293, -8.453e-7, -4.919e-7, 3.533e-7
0.292, -8.453e-7, -4.950e-7, 3.503e-7
0.291, -8.514e-7, -4.981e-7, 3.533e-7
0.290, -8.544e-7, -4.981e-7, 3.564e-7
0.289, -8.514e-7, -4.981e-7, 3.533e-7
0.288, -8.544e-7, -4.981e-7, 3.564e-7
0.287, -8.514e-7, -4.981e-7, 3.533e-7
0.286, -8.544e-7, -5.011e-7, 3.533e-7
0.285, -8.544e-7, -5.011e-7, 3.533e-7
0.284, -8.544e-7, -5.011e-7, 3.533e-7
0.283, -8.575e-7, -5.042e-7, 3.533e-7
0.282, -8.605e-7, -5.042e-7, 3.564e-7
0.281, -8.605e-7, -5.042e-7, 3.564e-7
0.280, -8.636e-7, -5.072e-7, 3.564e-7
0.279, -8.636e-7, -5.072e-7, 3.564e-7
0.278, -8.636e-7, -5.072e-7, 3.564e-7
0.277, -8.666e-7, -5.103e-7, 3.564e-7
0.276, -8.636e-7, -5.072e-7, 3.564e-7
0.275, -8.666e-7, -5.103e-7, 3.564e-7
0.274, -8.666e-7, -5.103e-7, 3.564e-7
0.273, -8.728e-7, -5.133e-7, 3.594e-7
0.272, -8.728e-7, -5.133e-7, 3.594e-7
0.271, -8.728e-7, -5.133e-7, 3.594e-7
0.270, -8.728e-7, -5.164e-7, 3.564e-7
0.269, -8.789e-7, -5.194e-7, 3.594e-7
0.268, -8.758e-7, -5.164e-7, 3.594e-7
0.267, -8.789e-7, -5.194e-7, 3.594e-7
0.266, -8.819e-7, -5.225e-7, 3.594e-7
0.265, -8.819e-7, -5.194e-7, 3.625e-7
0.264, -8.819e-7, -5.225e-7, 3.594e-7
0.263, -8.850e-7, -5.225e-7, 3.625e-7
0.262, -8.850e-7, -5.225e-7, 3.625e-7
0.261, -8.850e-7, -5.255e-7, 3.594e-7
0.260, -8.911e-7, -5.255e-7, 3.655e-7
0.259, -8.880e-7, -5.255e-7, 3.625e-7
0.258, -8.911e-7, -5.286e-7, 3.625e-7
0.257, -8.941e-7, -5.286e-7, 3.655e-7
0.256, -8.911e-7, -5.255e-7, 3.655e-7
0.255, -8.941e-7, -5.316e-7, 3.625e-7
0.254, -8.972e-7, -5.316e-7, 3.655e-7
0.253, -8.972e-7, -5.316e-7, 3.655e-7
0.252, -9.002e-7, -5.347e-7, 3.655e-7
0.251, -8.972e-7, -5.316e-7, 3.655e-7
0.250, -8.972e-7, -5.347e-7, 3.625e-7
0.249, -9.002e-7, -5.347e-7, 3.655e-7
0.248, -9.063e-7, -5.377e-7, 3.686e-7
0.247, -9.063e-7, -5.377e-7, 3.686e-7
0.246, -9.094e-7, -5.408e-7, 3.686e-7
0.245, -9.094e-7, -5.408e-7, 3.686e-7
0.244, -9.094e-7, -5.408e-7, 3.686e-7
0.243, -9.124e-7, -5.438e-7, 3.686e-7
0.242, -9.124e-7, -5.438e-7, 3.686e-7
0.241, -9.124e-7, -5.438e-7, 3.686e-7
0.240, -9.155e-7, -5.438e-7, 3.717e-7
0.239, -9.155e-7, -5.438e-7, 3.717e-7
0.238, -9.155e-7, -5.438e-7, 3.717e-7
0.237, -9.216e-7, -5.469e-7, 3.747e-7
0.236, -9.185e-7, -5.469e-7, 3.716e-7
0.235, -9.216e-7, -5.499e-7, 3.716e-7
0.234, -9.246e-7, -5.499e-7, 3.747e-7
0.233, -9.246e-7, -5.499e-7, 3.747e-7
0.232, -9.216e-7, -5.499e-7, 3.716e-7
0.231, -9.277e-7, -5.530e-7, 3.747e-7
0.230, -9.277e-7, -5.530e-7, 3.747e-7
0.229, -9.338e-7, -5.560e-7, 3.778e-7
0.228, -9.338e-7, -5.560e-7, 3.778e-7
0.227, -9.338e-7, -5.560e-7, 3.778e-7
0.226, -9.338e-7, -5.560e-7, 3.778e-7
0.225, -9.338e-7, -5.560e-7, 3.778e-7
0.224, -9.368e-7, -5.591e-7, 3.778e-7
0.223, -9.399e-7, -5.591e-7, 3.808e-7
0.222, -9.368e-7, -5.591e-7, 3.778e-7
0.221, -9.368e-7, -5.591e-7, 3.778e-7
0.220, -9.399e-7, -5.591e-7, 3.808e-7
0.219, -9.399e-7, -5.621e-7, 3.778e-7
0.218, -9.429e-7, -5.621e-7, 3.808e-7
0.217, -9.460e-7, -5.621e-7, 3.839e-7
0.216, -9.460e-7, -5.652e-7, 3.808e-7
0.215, -9.521e-7, -5.682e-7, 3.839e-7
0.214, -9.490e-7, -5.652e-7, 3.839e-7
0.213, -9.490e-7, -5.682e-7, 3.808e-7
0.212, -9.521e-7, -5.682e-7, 3.839e-7
0.211, -9.490e-7, -5.652e-7, 3.839e-7
0.210, -9.521e-7, -5.682e-7, 3.839e-7
0.209, -9.551e-7, -5.682e-7, 3.869e-7
0.208, -9.551e-7, -5.682e-7, 3.869e-7
0.207, -9.551e-7, -5.713e-7, 3.839e-7
0.206, -9.582e-7, -5.713e-7, 3.869e-7
0.205, -9.582e-7, -5.713e-7, 3.869e-7
0.204, -9.612e-7, -5.743e-7, 3.869e-7
0.203, -9.612e-7, -5.713e-7, 3.900e-7
0.202, -9.582e-7, -5.713e-7, 3.869e-7
0.201, -9.612e-7, -5.743e-7, 3.869e-7
0.200, -9.643e-7, -5.743e-7, 3.900e-7
0.199, -9.612e-7, -5.713e-7, 3.900e-7
0.198, -9.643e-7, -5.743e-7, 3.900e-7
0.197, -9.643e-7, -5.743e-7, 3.900e-7
0.196, -9.674e-7, -5.774e-7, 3.900e-7
0.195, -9.674e-7, -5.774e-7, 3.900e-7
0.194, -9.643e-7, -5.743e-7, 3.900e-7
0.193, -9.674e-7, -5.774e-7, 3.900e-7
0.192, -9.674e-7, -5.774e-7, 3.900e-7
0.191, -9.704e-7, -5.774e-7, 3.930e-7
0.190, -9.704e-7, -5.804e-7, 3.900e-7
0.189, -9.704e-7, -5.774e-7, 3.930e-7
0.188, -9.735e-7, -5.774e-7, 3.961e-7
0.187, -9.735e-7, -5.804e-7, 3.930e-7
0.186, -9.735e-7, -5.804e-7, 3.930e-7
0.185, -9.765e-7, -5.804e-7, 3.961e-7
0.184, -9.735e-7, -5.804e-7, 3.930e-7
0.183, -9.765e-7, -5.804e-7, 3.961e-7
0.182, -9.765e-7, -5.804e-7, 3.961e-7
0.181, -9.765e-7, -5.804e-7, 3.961e-7
0.180, -9.735e-7, -5.804e-7, 3.930e-7
0.179, -9.796e-7, -5.804e-7, 3.991e-7
0.178, -9.796e-7, -5.835e-7, 3.961e-7
0.177, -9.765e-7, -5.804e-7, 3.961e-7
0.176, -9.796e-7, -5.835e-7, 3.961e-7
0.175, -9.826e-7, -5.835e-7, 3.991e-7
0.174, -9.826e-7, -5.835e-7, 3.991e-7
0.173, -9.826e-7, -5.835e-7, 3.991e-7
0.172, -9.857e-7, -5.835e-7, 4.022e-7
0.171, -9.826e-7, -5.804e-7, 4.022e-7
0.170, -9.826e-7, -5.835e-7, 3.991e-7
0.169, -9.857e-7, -5.835e-7, 4.022e-7
0.168, -9.857e-7, -5.835e-7, 4.022e-7
0.167, -9.857e-7, -5.865e-7, 3.991e-7
0.166, -9.857e-7, -5.835e-7, 4.022e-7
0.165, -9.857e-7, -5.835e-7, 4.022e-7
0.164, -9.887e-7, -5.865e-7, 4.022e-7
0.163, -9.857e-7, -5.804e-7, 4.052e-7
0.162, -9.857e-7, -5.835e-7, 4.022e-7
0.161, -9.887e-7, -5.865e-7, 4.022e-7
0.160, -9.887e-7, -5.835e-7, 4.052e-7
0.159, -9.887e-7, -5.835e-7, 4.052e-7
0.158, -9.918e-7, -5.865e-7, 4.052e-7
0.157, -9.918e-7, -5.835e-7, 4.083e-7
0.156, -9.887e-7, -5.835e-7, 4.052e-7
0.155, -9.887e-7, -5.835e-7, 4.052e-7
0.154, -9.918e-7, -5.835e-7, 4.083e-7
0.153, -9.918e-7, -5.835e-7, 4.083e-7
0.152, -9.948e-7, -5.865e-7, 4.083e-7
0.151, -9.887e-7, -5.804e-7, 4.083e-7
0.150, -9.918e-7, -5.835e-7, 4.083e-7
0.149, -9.918e-7, -5.835e-7, 4.083e-7
0.148, -9.948e-7, -5.835e-7, 4.113e-7
0.147, -9.918e-7, -5.835e-7, 4.083e-7
0.146, -9.918e-7, -5.835e-7, 4.083e-7
0.145, -9.948e-7, -5.835e-7, 4.113e-7
0.144, -9.948e-7, -5.865e-7, 4.083e-7
0.143, -9.979e-7, -5.865e-7, 4.113e-7
0.142, -9.948e-7, -5.835e-7, 4.113e-7
0.141, -9.948e-7, -5.835e-7, 4.113e-7
0.140, -9.948e-7, -5.835e-7, 4.113e-7
0.139, -9.979e-7, -5.835e-7, 4.144e-7
0.138, -9.979e-7, -5.835e-7, 4.144e-7
0.137, -9.948e-7, -5.804e-7, 4.144e-7
0.136, -9.979e-7, -5.835e-7, 4.144e-7
0.135, -9.979e-7, -5.835e-7, 4.144e-7
0.134, -9.948e-7, -5.804e-7, 4.144e-7
0.133, -9.979e-7, -5.835e-7, 4.144e-7
0.132, -9.948e-7, -5.804e-7, 4.144e-7
0.131, -9.948e-7, -5.804e-7, 4.144e-7
0.130, -9.979e-7, -5.804e-7, 4.174e-7
0.129, -9.979e-7, -5.804e-7, 4.174e-7
0.128, -9.948e-7, -5.804e-7, 4.144e-7
0.127, -9.979e-7, -5.804e-7, 4.174e-7
0.126, -9.948e-7, -5.774e-7, 4.174e-7
0.125, -9.948e-7, -5.804e-7, 4.144e-7
0.124, -9.979e-7, -5.804e-7, 4.174e-7
0.123, -9.948e-7, -5.774e-7, 4.174e-7
0.122, -9.948e-7, -5.774e-7, 4.174e-7
0.121, -1.001e-6, -5.804e-7, 4.205e-7
0.120, -9.948e-7, -5.774e-7, 4.174e-7
0.119, -9.948e-7, -5.774e-7, 4.174e-7
0.118, -9.948e-7, -5.774e-7, 4.174e-7
0.117, -9.948e-7, -5.743e-7, 4.205e-7
0.116, -9.948e-7, -5.774e-7, 4.174e-7
0.115, -9.979e-7, -5.774e-7, 4.205e-7
0.114, -9.918e-7, -5.713e-7, 4.205e-7
0.113, -9.948e-7, -5.743e-7, 4.205e-7
0.112, -9.918e-7, -5.713e-7, 4.205e-7
0.111, -9.918e-7, -5.713e-7, 4.205e-7
0.110, -9.887e-7, -5.713e-7, 4.174e-7
0.109, -9.918e-7, -5.713e-7, 4.205e-7
0.108, -9.887e-7, -5.682e-7, 4.205e-7
0.107, -9.918e-7, -5.713e-7, 4.205e-7
0.106, -9.948e-7, -5.713e-7, 4.235e-7
0.105, -9.887e-7, -5.682e-7, 4.205e-7
0.104, -9.857e-7, -5.682e-7, 4.174e-7
0.103, -9.857e-7, -5.652e-7, 4.205e-7
0.102, -9.857e-7, -5.652e-7, 4.205e-7
0.101, -9.857e-7, -5.652e-7, 4.205e-7
0.100, -9.857e-7, -5.652e-7, 4.205e-7
0.099, -9.857e-7, -5.652e-7, 4.205e-7
0.098, -9.826e-7, -5.621e-7, 4.205e-7
0.097, -9.826e-7, -5.621e-7, 4.205e-7
0.096, -9.826e-7, -5.621e-7, 4.205e-7
0.095, -9.826e-7, -5.621e-7, 4.205e-7
0.094, -9.796e-7, -5.591e-7, 4.205e-7
0.093, -9.765e-7, -5.591e-7, 4.174e-7
0.092, -9.796e-7, -5.591e-7, 4.205e-7
0.091, -9.796e-7, -5.591e-7, 4.205e-7
0.090, -9.765e-7, -5.560e-7, 4.205e-7
0.089, -9.765e-7, -5.560e-7, 4.205e-7
0.088, -9.765e-7, -5.560e-7, 4.205e-7
0.087, -9.765e-7, -5.560e-7, 4.205e-7
0.086, -9.704e-7, -5.530e-7, 4.174e-7
0.085, -9.704e-7, -5.530e-7, 4.174e-7
0.084, -9.735e-7, -5.530e-7, 4.205e-7
0.083, -9.704e-7, -5.499e-7, 4.205e-7
0.082, -9.704e-7, -5.530e-7, 4.174e-7
0.081, -9.674e-7, -5.499e-7, 4.174e-7
0.080, -9.674e-7, -5.499e-7, 4.174e-7
0.079, -9.674e-7, -5.499e-7, 4.174e-7
0.078, -9.704e-7, -5.499e-7, 4.205e-7
0.077, -9.643e-7, -5.469e-7, 4.174e-7
0.076, -9.643e-7, -5.469e-7, 4.174e-7
0.075, -9.674e-7, -5.469e-7, 4.205e-7
0.074, -9.612e-7, -5.438e-7, 4.174e-7
0.073, -9.643e-7, -5.469e-7, 4.174e-7
0.072, -9.612e-7, -5.438e-7, 4.174e-7
0.071, -9.582e-7, -5.408e-7, 4.174e-7
0.070, -9.612e-7, -5.438e-7, 4.174e-7
0.069, -9.582e-7, -5.408e-7, 4.174e-7
0.068, -9.551e-7, -5.377e-7, 4.174e-7
0.067, -9.551e-7, -5.408e-7, 4.144e-7
0.066, -9.551e-7, -5.377e-7, 4.174e-7
0.065, -9.521e-7, -5.377e-7, 4.144e-7
0.064, -9.521e-7, -5.377e-7, 4.144e-7
0.063, -9.521e-7, -5.347e-7, 4.174e-7
0.062, -9.490e-7, -5.347e-7, 4.144e-7
0.061, -9.490e-7, -5.347e-7, 4.144e-7
0.060, -9.490e-7, -5.347e-7, 4.144e-7
0.059, -9.490e-7, -5.347e-7, 4.144e-7
0.058, -9.460e-7, -5.316e-7, 4.144e-7
0.057, -9.460e-7, -5.316e-7, 4.144e-7
0.056, -9.429e-7, -5.316e-7, 4.113e-7
0.055, -9.429e-7, -5.286e-7, 4.144e-7
0.054, -9.429e-7, -5.286e-7, 4.144e-7
0.053, -9.399e-7, -5.286e-7, 4.113e-7
0.052, -9.429e-7, -5.286e-7, 4.144e-7
0.051, -9.368e-7, -5.255e-7, 4.113e-7
0.050, -9.368e-7, -5.255e-7, 4.113e-7
0.049, -9.399e-7, -5.255e-7, 4.144e-7
0.048, -9.368e-7, -5.255e-7, 4.113e-7
0.047, -9.368e-7, -5.255e-7, 4.113e-7
0.046, -9.368e-7, -5.255e-7, 4.113e-7
0.045, -9.338e-7, -5.225e-7, 4.113e-7
0.044, -9.338e-7, -5.225e-7, 4.113e-7
0.043, -9.338e-7, -5.225e-7, 4.113e-7
0.042, -9.307e-7, -5.225e-7, 4.083e-7
0.041, -9.307e-7, -5.225e-7, 4.083e-7
0.040, -9.277e-7, -5.194e-7, 4.083e-7
0.039, -9.277e-7, -5.194e-7, 4.083e-7
0.038, -9.277e-7, -5.194e-7, 4.083e-7
0.037, -9.246e-7, -5.164e-7, 4.083e-7
0.036, -9.216e-7, -5.164e-7, 4.052e-7
0.035, -9.246e-7, -5.164e-7, 4.083e-7
0.034, -9.216e-7, -5.164e-7, 4.052e-7
0.033, -9.216e-7, -5.164e-7, 4.052e-7
0.032, -9.185e-7, -5.133e-7, 4.052e-7
0.031, -9.185e-7, -5.133e-7, 4.052e-7
0.030, -9.185e-7, -5.133e-7, 4.052e-7
0.029, -9.155e-7, -5.103e-7, 4.052e-7
0.028, -9.155e-7, -5.133e-7, 4.022e-7
0.027, -9.155e-7, -5.133e-7, 4.022e-7
0.026, -9.155e-7, -5.103e-7, 4.052e-7
0.025, -9.124e-7, -5.103e-7, 4.022e-7
0.024, -9.124e-7, -5.103e-7, 4.022e-7
0.023, -9.124e-7, -5.103e-7, 4.022e-7
0.022, -9.063e-7, -5.072e-7, 3.991e-7
0.021, -9.124e-7, -5.103e-7, 4.022e-7
0.020, -9.094e-7, -5.072e-7, 4.022e-7
0.019, -9.063e-7, -5.072e-7, 3.991e-7
0.018, -9.063e-7, -5.072e-7, 3.991e-7
0.017, -9.063e-7, -5.042e-7, 4.022e-7
0.016, -9.002e-7, -5.042e-7, 3.961e-7
0.015, -9.094e-7, -5.072e-7, 4.022e-7
0.014, -9.033e-7, -5.042e-7, 3.991e-7
0.013, -8.972e-7, -5.042e-7, 3.930e-7
0.012, -8.972e-7, -5.011e-7, 3.961e-7
0.011, -9.002e-7, -5.042e-7, 3.961e-7
0.010, -8.972e-7, -5.011e-7, 3.961e-7
0.009, -8.972e-7, -5.011e-7, 3.961e-7
0.008, -8.911e-7, -4.981e-7, 3.930e-7
0.007, -8.911e-7, -4.981e-7, 3.930e-7
0.006, -8.911e-7, -4.981e-7, 3.930e-7
0.005, -8.911e-7, -4.981e-7, 3.930e-7
0.004, -8.911e-7, -4.981e-7, 3.930e-7
0.003, -8.911e-7, -4.981e-7, 3.930e-7
0.002, -8.850e-7, -4.950e-7, 3.900e-7
0.001, -8.911e-7, -4.981e-7, 3.930e-7
0.000, -8.850e-7, -4.950e-7, 3.900e-7
-0.001, -8.850e-7, -4.950e-7, 3.900e-7
-0.002, -8.850e-7, -4.950e-7, 3.900e-7
-0.003, -8.819e-7, -4.920e-7, 3.900e-7
-0.004, -8.819e-7, -4.950e-7, 3.869e-7
-0.005, -8.819e-7, -4.950e-7, 3.869e-7
-0.006, -8.789e-7, -4.920e-7, 3.869e-7
-0.007, -8.789e-7, -4.920e-7, 3.869e-7
-0.008, -8.789e-7, -4.920e-7, 3.869e-7
-0.009, -8.789e-7, -4.920e-7, 3.869e-7
-0.010, -8.789e-7, -4.920e-7, 3.869e-7
-0.011, -8.728e-7, -4.889e-7, 3.839e-7
-0.012, -8.728e-7, -4.889e-7, 3.839e-7
-0.013, -8.728e-7, -4.889e-7, 3.839e-7
-0.014, -8.697e-7, -4.889e-7, 3.808e-7
-0.015, -8.697e-7, -4.889e-7, 3.808e-7
-0.016, -8.728e-7, -4.889e-7, 3.839e-7
-0.017, -8.666e-7, -4.858e-7, 3.808e-7
-0.018, -8.697e-7, -4.889e-7, 3.808e-7
-0.019, -8.697e-7, -4.858e-7, 3.839e-7
-0.020, -8.636e-7, -4.858e-7, 3.778e-7
-0.021, -8.666e-7, -4.889e-7, 3.778e-7
-0.022, -8.697e-7, -4.889e-7, 3.808e-7
-0.023, -8.636e-7, -4.858e-7, 3.778e-7
-0.024, -8.636e-7, -4.858e-7, 3.778e-7
-0.025, -8.636e-7, -4.858e-7, 3.778e-7
-0.026, -8.605e-7, -4.828e-7, 3.778e-7
-0.027, -8.605e-7, -4.858e-7, 3.747e-7
-0.028, -8.605e-7, -4.828e-7, 3.778e-7
-0.029, -8.575e-7, -4.828e-7, 3.747e-7
-0.030, -8.575e-7, -4.828e-7, 3.747e-7
-0.031, -8.575e-7, -4.828e-7, 3.747e-7
-0.032, -8.575e-7, -4.828e-7, 3.747e-7
-0.033, -8.575e-7, -4.828e-7, 3.747e-7
-0.034, -8.575e-7, -4.828e-7, 3.747e-7
-0.035, -8.544e-7, -4.797e-7, 3.747e-7
-0.036, -8.575e-7, -4.828e-7, 3.747e-7
-0.037, -8.544e-7, -4.797e-7, 3.747e-7
-0.038, -8.544e-7, -4.797e-7, 3.747e-7
-0.039, -8.544e-7, -4.797e-7, 3.747e-7
-0.040, -8.544e-7, -4.797e-7, 3.747e-7
-0.041, -8.514e-7, -4.797e-7, 3.716e-7
-0.042, -8.514e-7, -4.797e-7, 3.716e-7
-0.043, -8.544e-7, -4.797e-7, 3.747e-7
-0.044, -8.514e-7, -4.797e-7, 3.716e-7
-0.045, -8.483e-7, -4.797e-7, 3.686e-7
-0.046, -8.514e-7, -4.797e-7, 3.716e-7
-0.047, -8.514e-7, -4.797e-7, 3.716e-7
-0.048, -8.514e-7, -4.797e-7, 3.716e-7
-0.049, -8.453e-7, -4.767e-7, 3.686e-7
-0.050, -8.514e-7, -4.797e-7, 3.716e-7
-0.051, -8.483e-7, -4.767e-7, 3.716e-7
-0.052, -8.483e-7, -4.797e-7, 3.686e-7
-0.053, -8.483e-7, -4.767e-7, 3.716e-7
-0.054, -8.453e-7, -4.767e-7, 3.686e-7
-0.055, -8.453e-7, -4.767e-7, 3.686e-7
-0.056, -8.483e-7, -4.767e-7, 3.716e-7
-0.057, -8.453e-7, -4.767e-7, 3.686e-7
-0.058, -8.453e-7, -4.767e-7, 3.686e-7
-0.059, -8.422e-7, -4.736e-7, 3.686e-7
-0.060, -8.422e-7, -4.767e-7, 3.655e-7
-0.061, -8.453e-7, -4.767e-7, 3.686e-7
-0.062, -8.422e-7, -4.736e-7, 3.686e-7
-0.063, -8.422e-7, -4.767e-7, 3.655e-7
-0.064, -8.453e-7, -4.767e-7, 3.686e-7
-0.065, -8.422e-7, -4.736e-7, 3.686e-7
-0.066, -8.392e-7, -4.736e-7, 3.655e-7
-0.067, -8.392e-7, -4.736e-7, 3.655e-7
-0.068, -8.392e-7, -4.736e-7, 3.655e-7
-0.069, -8.361e-7, -4.736e-7, 3.625e-7
-0.070, -8.392e-7, -4.736e-7, 3.655e-7
-0.071, -8.361e-7, -4.706e-7, 3.655e-7
-0.072, -8.392e-7, -4.736e-7, 3.655e-7
-0.073, -8.392e-7, -4.736e-7, 3.655e-7
-0.074, -8.361e-7, -4.706e-7, 3.655e-7
-0.075, -8.361e-7, -4.736e-7, 3.625e-7
-0.076, -8.361e-7, -4.706e-7, 3.655e-7
-0.077, -8.361e-7, -4.706e-7, 3.655e-7
-0.078, -8.361e-7, -4.706e-7, 3.655e-7
-0.079, -8.361e-7, -4.706e-7, 3.655e-7
-0.080, -8.331e-7, -4.706e-7, 3.625e-7
-0.081, -8.361e-7, -4.736e-7, 3.625e-7
-0.082, -8.361e-7, -4.706e-7, 3.655e-7
-0.083, -8.300e-7, -4.675e-7, 3.625e-7
-0.084, -8.331e-7, -4.706e-7, 3.625e-7
-0.085, -8.331e-7, -4.675e-7, 3.655e-7
-0.086, -8.300e-7, -4.675e-7, 3.625e-7
-0.087, -8.300e-7, -4.675e-7, 3.625e-7
-0.088, -8.300e-7, -4.675e-7, 3.625e-7
-0.089, -8.300e-7, -4.675e-7, 3.625e-7
-0.090, -8.300e-7, -4.675e-7, 3.625e-7
-0.091, -8.270e-7, -4.645e-7, 3.625e-7
-0.092, -8.270e-7, -4.645e-7, 3.625e-7
-0.093, -8.270e-7, -4.645e-7, 3.625e-7
-0.094, -8.270e-7, -4.645e-7, 3.625e-7
-0.095, -8.239e-7, -4.645e-7, 3.594e-7
-0.096, -8.270e-7, -4.645e-7, 3.625e-7
-0.097, -8.239e-7, -4.645e-7, 3.594e-7
-0.098, -8.209e-7, -4.614e-7, 3.594e-7
-0.099, -8.239e-7, -4.645e-7, 3.594e-7
-0.100, -8.239e-7, -4.645e-7, 3.594e-7
-0.101, -8.209e-7, -4.614e-7, 3.594e-7
-0.102, -8.209e-7, -4.614e-7, 3.594e-7
-0.103, -8.209e-7, -4.645e-7, 3.564e-7
-0.104, -8.209e-7, -4.614e-7, 3.594e-7
-0.105, -8.209e-7, -4.614e-7, 3.594e-7
-0.106, -8.178e-7, -4.614e-7, 3.564e-7
-0.107, -8.239e-7, -4.614e-7, 3.625e-7
-0.108, -8.178e-7, -4.584e-7, 3.594e-7
-0.109, -8.178e-7, -4.584e-7, 3.594e-7
-0.110, -8.178e-7, -4.584e-7, 3.594e-7
-0.111, -8.178e-7, -4.584e-7, 3.594e-7
-0.112, -8.178e-7, -4.614e-7, 3.564e-7
-0.113, -8.209e-7, -4.584e-7, 3.625e-7
-0.114, -8.178e-7, -4.584e-7, 3.594e-7
-0.115, -8.148e-7, -4.584e-7, 3.564e-7
-0.116, -8.148e-7, -4.553e-7, 3.594e-7
-0.117, -8.117e-7, -4.553e-7, 3.564e-7
-0.118, -8.148e-7, -4.584e-7, 3.564e-7
-0.119, -8.148e-7, -4.553e-7, 3.594e-7
-0.120, -8.117e-7, -4.553e-7, 3.564e-7
-0.121, -8.117e-7, -4.553e-7, 3.564e-7
-0.122, -8.148e-7, -4.553e-7, 3.594e-7
-0.123, -8.087e-7, -4.523e-7, 3.564e-7
-0.124, -8.117e-7, -4.553e-7, 3.564e-7
-0.125, -8.087e-7, -4.523e-7, 3.564e-7
-0.126, -8.087e-7, -4.523e-7, 3.564e-7
-0.127, -8.117e-7, -4.523e-7, 3.594e-7
-0.128, -8.087e-7, -4.523e-7, 3.564e-7
-0.129, -8.117e-7, -4.553e-7, 3.564e-7
-0.130, -8.087e-7, -4.523e-7, 3.564e-7
-0.131, -8.087e-7, -4.523e-7, 3.564e-7
-0.132, -8.056e-7, -4.492e-7, 3.564e-7
-0.133, -8.117e-7, -4.523e-7, 3.594e-7
-0.134, -8.056e-7, -4.492e-7, 3.564e-7
-0.135, -8.056e-7, -4.523e-7, 3.533e-7
-0.136, -8.056e-7, -4.492e-7, 3.564e-7
-0.137, -8.056e-7, -4.492e-7, 3.564e-7
-0.138, -8.056e-7, -4.492e-7, 3.564e-7
-0.139, -8.056e-7, -4.492e-7, 3.564e-7
-0.140, -8.056e-7, -4.492e-7, 3.564e-7
-0.141, -8.087e-7, -4.523e-7, 3.564e-7
-0.142, -8.056e-7, -4.492e-7, 3.564e-7
-0.143, -8.056e-7, -4.492e-7, 3.564e-7
-0.144, -8.056e-7, -4.492e-7, 3.564e-7
-0.145, -8.026e-7, -4.462e-7, 3.564e-7
-0.146, -8.056e-7, -4.492e-7, 3.564e-7
-0.147, -7.995e-7, -4.462e-7, 3.533e-7
-0.148, -8.026e-7, -4.462e-7, 3.564e-7
-0.149, -7.965e-7, -4.431e-7, 3.533e-7
-0.150, -7.965e-7, -4.431e-7, 3.533e-7
-0.151, -7.995e-7, -4.462e-7, 3.533e-7
-0.152, -8.026e-7, -4.462e-7, 3.564e-7
-0.153, -7.995e-7, -4.431e-7, 3.564e-7
-0.154, -7.965e-7, -4.431e-7, 3.533e-7
-0.155, -7.995e-7, -4.431e-7, 3.564e-7
-0.156, -7.995e-7, -4.431e-7, 3.564e-7
-0.157, -7.965e-7, -4.431e-7, 3.533e-7
-0.158, -7.995e-7, -4.431e-7, 3.564e-7
-0.159, -7.965e-7, -4.401e-7, 3.564e-7
-0.160, -7.965e-7, -4.431e-7, 3.533e-7
-0.161, -7.965e-7, -4.401e-7, 3.564e-7
-0.162, -7.934e-7, -4.401e-7, 3.533e-7
-0.163, -7.934e-7, -4.401e-7, 3.533e-7
-0.164, -7.965e-7, -4.401e-7, 3.564e-7
-0.165, -7.904e-7, -4.370e-7, 3.533e-7
-0.166, -7.904e-7, -4.401e-7, 3.503e-7
-0.167, -7.904e-7, -4.370e-7, 3.533e-7
-0.168, -7.934e-7, -4.370e-7, 3.564e-7
-0.169, -7.873e-7, -4.370e-7, 3.503e-7
-0.170, -7.934e-7, -4.401e-7, 3.533e-7
-0.171, -7.873e-7, -4.340e-7, 3.533e-7
-0.172, -7.873e-7, -4.370e-7, 3.503e-7
-0.173, -7.873e-7, -4.340e-7, 3.533e-7
-0.174, -7.843e-7, -4.340e-7, 3.503e-7
-0.175, -7.873e-7, -4.370e-7, 3.503e-7
-0.176, -7.843e-7, -4.340e-7, 3.503e-7
-0.177, -7.843e-7, -4.340e-7, 3.503e-7
-0.178, -7.843e-7, -4.340e-7, 3.503e-7
-0.179, -7.843e-7, -4.340e-7, 3.503e-7
-0.180, -7.812e-7, -4.309e-7, 3.503e-7
-0.181, -7.843e-7, -4.340e-7, 3.503e-7
-0.182, -7.812e-7, -4.309e-7, 3.503e-7
-0.183, -7.812e-7, -4.309e-7, 3.503e-7
-0.184, -7.751e-7, -4.279e-7, 3.472e-7
-0.185, -7.812e-7, -4.309e-7, 3.503e-7
-0.186, -7.751e-7, -4.279e-7, 3.472e-7
-0.187, -7.782e-7, -4.309e-7, 3.472e-7
-0.188, -7.751e-7, -4.279e-7, 3.472e-7
-0.189, -7.751e-7, -4.279e-7, 3.472e-7
-0.190, -7.751e-7, -4.279e-7, 3.472e-7
-0.191, -7.751e-7, -4.279e-7, 3.472e-7
-0.192, -7.721e-7, -4.248e-7, 3.472e-7
-0.193, -7.690e-7, -4.248e-7, 3.442e-7
-0.194, -7.690e-7, -4.248e-7, 3.442e-7
-0.195, -7.690e-7, -4.248e-7, 3.442e-7
-0.196, -7.690e-7, -4.248e-7, 3.442e-7
-0.197, -7.690e-7, -4.248e-7, 3.442e-7
-0.198, -7.721e-7, -4.248e-7, 3.472e-7
-0.199, -7.659e-7, -4.218e-7, 3.442e-7
-0.200, -7.690e-7, -4.248e-7, 3.442e-7
-0.201, -7.659e-7, -4.218e-7, 3.442e-7
-0.202, -7.690e-7, -4.248e-7, 3.442e-7
-0.203, -7.629e-7, -4.218e-7, 3.411e-7
-0.204, -7.659e-7, -4.218e-7, 3.442e-7
-0.205, -7.598e-7, -4.187e-7, 3.411e-7
-0.206, -7.629e-7, -4.218e-7, 3.411e-7
-0.207, -7.629e-7, -4.187e-7, 3.442e-7
-0.208, -7.598e-7, -4.187e-7, 3.411e-7
-0.209, -7.598e-7, -4.218e-7, 3.381e-7
-0.210, -7.598e-7, -4.187e-7, 3.411e-7
-0.211, -7.568e-7, -4.157e-7, 3.411e-7
-0.212, -7.598e-7, -4.187e-7, 3.411e-7
-0.213, -7.568e-7, -4.157e-7, 3.411e-7
-0.214, -7.568e-7, -4.157e-7, 3.411e-7
-0.215, -7.568e-7, -4.157e-7, 3.411e-7
-0.216, -7.568e-7, -4.157e-7, 3.411e-7
-0.217, -7.537e-7, -4.126e-7, 3.411e-7
-0.218, -7.537e-7, -4.157e-7, 3.381e-7
-0.219, -7.537e-7, -4.157e-7, 3.381e-7
-0.220, -7.507e-7, -4.126e-7, 3.381e-7
-0.221, -7.568e-7, -4.157e-7, 3.411e-7
-0.222, -7.537e-7, -4.126e-7, 3.411e-7
-0.223, -7.537e-7, -4.157e-7, 3.381e-7
-0.224, -7.568e-7, -4.157e-7, 3.411e-7
-0.225, -7.507e-7, -4.126e-7, 3.381e-7
-0.226, -7.507e-7, -4.126e-7, 3.381e-7
-0.227, -7.507e-7, -4.126e-7, 3.381e-7
-0.228, -7.507e-7, -4.126e-7, 3.381e-7
-0.229, -7.476e-7, -4.126e-7, 3.350e-7
-0.230, -7.507e-7, -4.157e-7, 3.350e-7
-0.231, -7.446e-7, -4.096e-7, 3.350e-7
-0.232, -7.446e-7, -4.096e-7, 3.350e-7
-0.233, -7.476e-7, -4.126e-7, 3.350e-7
-0.234, -7.446e-7, -4.096e-7, 3.350e-7
-0.235, -7.446e-7, -4.096e-7, 3.350e-7
-0.236, -7.446e-7, -4.096e-7, 3.350e-7
-0.237, -7.446e-7, -4.096e-7, 3.350e-7
-0.238, -7.446e-7, -4.096e-7, 3.350e-7
-0.239, -7.507e-7, -4.157e-7, 3.350e-7
-0.240, -7.446e-7, -4.096e-7, 3.350e-7
-0.241, -7.446e-7, -4.096e-7, 3.350e-7
-0.242, -7.415e-7, -4.096e-7, 3.320e-7
-0.243, -7.415e-7, -4.096e-7, 3.320e-7
-0.244, -7.415e-7, -4.065e-7, 3.350e-7
-0.245, -7.385e-7, -4.065e-7, 3.320e-7
-0.246, -7.385e-7, -4.065e-7, 3.320e-7
-0.247, -7.415e-7, -4.065e-7, 3.350e-7
-0.248, -7.385e-7, -4.065e-7, 3.320e-7
-0.249, -7.385e-7, -4.065e-7, 3.320e-7
-0.250, -7.385e-7, -4.065e-7, 3.320e-7
-0.251, -7.354e-7, -4.065e-7, 3.289e-7
-0.252, -7.354e-7, -4.035e-7, 3.320e-7
-0.253, -7.354e-7, -4.035e-7, 3.320e-7
-0.254, -7.354e-7, -4.065e-7, 3.289e-7
-0.255, -7.385e-7, -4.065e-7, 3.320e-7
-0.256, -7.385e-7, -4.065e-7, 3.320e-7
-0.257, -7.324e-7, -4.035e-7, 3.289e-7
-0.258, -7.324e-7, -4.035e-7, 3.289e-7
-0.259, -7.324e-7, -4.035e-7, 3.289e-7
-0.260, -7.324e-7, -4.065e-7, 3.259e-7
-0.261, -7.324e-7, -4.035e-7, 3.289e-7
-0.262, -7.324e-7, -4.035e-7, 3.289e-7
-0.263, -7.293e-7, -4.035e-7, 3.259e-7
-0.264, -7.263e-7, -4.004e-7, 3.259e-7
-0.265, -7.263e-7, -4.004e-7, 3.259e-7
-0.266, -7.263e-7, -4.004e-7, 3.259e-7
-0.267, -7.232e-7, -3.974e-7, 3.259e-7
-0.268, -7.232e-7, -3.974e-7, 3.259e-7
-0.269, -7.232e-7, -4.004e-7, 3.228e-7
-0.270, -7.263e-7, -4.004e-7, 3.259e-7
-0.271, -7.293e-7, -4.035e-7, 3.259e-7
-0.272, -7.263e-7, -4.004e-7, 3.259e-7
-0.273, -7.202e-7, -3.974e-7, 3.228e-7
-0.274, -7.232e-7, -3.974e-7, 3.259e-7
-0.275, -7.202e-7, -3.974e-7, 3.228e-7
-0.276, -7.202e-7, -3.974e-7, 3.228e-7
-0.277, -7.202e-7, -3.974e-7, 3.228e-7
-0.278, -7.202e-7, -3.974e-7, 3.228e-7
-0.279, -7.171e-7, -3.974e-7, 3.198e-7
-0.280, -7.141e-7, -3.943e-7, 3.198e-7
-0.281, -7.171e-7, -3.974e-7, 3.198e-7
-0.282, -7.141e-7, -3.943e-7, 3.198e-7
-0.283, -7.141e-7, -3.943e-7, 3.198e-7
-0.284, -7.202e-7, -4.004e-7, 3.198e-7
-0.285, -7.141e-7, -3.943e-7, 3.198e-7
-0.286, -7.141e-7, -3.943e-7, 3.198e-7
-0.287, -7.141e-7, -3.943e-7, 3.198e-7
-0.288, -7.141e-7, -3.943e-7, 3.198e-7
-0.289, -7.171e-7, -3.974e-7, 3.198e-7
-0.290, -7.110e-7, -3.943e-7, 3.167e-7
-0.291, -7.110e-7, -3.943e-7, 3.167e-7
-0.292, -7.110e-7, -3.913e-7, 3.198e-7
-0.293, -7.080e-7, -3.913e-7, 3.167e-7
-0.294, -7.080e-7, -3.913e-7, 3.167e-7
-0.295, -7.080e-7, -3.913e-7, 3.167e-7
-0.296, -7.049e-7, -3.882e-7, 3.167e-7
-0.297, -7.110e-7, -3.943e-7, 3.167e-7
-0.298, -7.080e-7, -3.913e-7, 3.167e-7
-0.299, -7.049e-7, -3.913e-7, 3.137e-7
-0.300, -7.049e-7, -3.913e-7, 3.137e-7
-0.301, -7.110e-7, -3.943e-7, 3.167e-7
-0.302, -7.019e-7, -3.882e-7, 3.137e-7
-0.303, -7.080e-7, -3.943e-7, 3.137e-7
-0.304, -7.080e-7, -3.913e-7, 3.167e-7
-0.305, -7.019e-7, -3.882e-7, 3.137e-7
-0.306, -7.019e-7, -3.882e-7, 3.137e-7
-0.307, -7.049e-7, -3.882e-7, 3.167e-7
-0.308, -6.988e-7, -3.882e-7, 3.106e-7
-0.309, -7.049e-7, -3.913e-7, 3.137e-7
-0.310, -7.019e-7, -3.882e-7, 3.137e-7
-0.311, -6.988e-7, -3.882e-7, 3.106e-7
-0.312, -7.049e-7, -3.913e-7, 3.137e-7
-0.313, -6.988e-7, -3.882e-7, 3.106e-7
-0.314, -6.988e-7, -3.882e-7, 3.106e-7
-0.315, -6.988e-7, -3.882e-7, 3.106e-7
-0.316, -6.958e-7, -3.851e-7, 3.106e-7
-0.317, -7.019e-7, -3.913e-7, 3.106e-7
-0.318, -6.988e-7, -3.882e-7, 3.106e-7
-0.319, -6.958e-7, -3.851e-7, 3.106e-7
-0.320, -6.988e-7, -3.882e-7, 3.106e-7
-0.321, -7.019e-7, -3.913e-7, 3.106e-7
-0.322, -6.988e-7, -3.882e-7, 3.106e-7
-0.323, -6.958e-7, -3.882e-7, 3.076e-7
-0.324, -6.988e-7, -3.882e-7, 3.106e-7
-0.325, -6.958e-7, -3.851e-7, 3.106e-7
-0.326, -6.927e-7, -3.851e-7, 3.076e-7
-0.327, -6.988e-7, -3.882e-7, 3.106e-7
-0.328, -6.958e-7, -3.851e-7, 3.106e-7
-0.329, -6.958e-7, -3.882e-7, 3.076e-7
-0.330, -6.927e-7, -3.851e-7, 3.076e-7
-0.331, -6.927e-7, -3.851e-7, 3.076e-7
-0.332, -6.927e-7, -3.851e-7, 3.076e-7
-0.333, -6.927e-7, -3.851e-7, 3.076e-7
-0.334, -6.927e-7, -3.851e-7, 3.076e-7
-0.335, -6.927e-7, -3.851e-7, 3.076e-7
-0.336, -6.897e-7, -3.851e-7, 3.045e-7
-0.337, -6.927e-7, -3.851e-7, 3.076e-7
-0.338, -6.897e-7, -3.821e-7, 3.076e-7
-0.339, -6.897e-7, -3.851e-7, 3.045e-7
-0.340, -6.927e-7, -3.851e-7, 3.076e-7
-0.341, -6.927e-7, -3.851e-7, 3.076e-7
-0.342, -6.897e-7, -3.851e-7, 3.045e-7
-0.343, -6.958e-7, -3.882e-7, 3.076e-7
-0.344, -6.897e-7, -3.821e-7, 3.076e-7
-0.345, -6.866e-7, -3.851e-7, 3.015e-7
-0.346, -6.927e-7, -3.882e-7, 3.045e-7
-0.347, -6.866e-7, -3.821e-7, 3.045e-7
-0.348, -6.866e-7, -3.851e-7, 3.015e-7
-0.349, -6.897e-7, -3.851e-7, 3.045e-7
-0.350, -6.866e-7, -3.821e-7, 3.045e-7
-0.351, -7.080e-7, -4.096e-7, 2.984e-7
-0.352, -6.988e-7, -3.943e-7, 3.045e-7
-0.353, -6.866e-7, -3.821e-7, 3.045e-7
-0.354, -6.866e-7, -3.851e-7, 3.015e-7
-0.355, -6.897e-7, -3.882e-7, 3.015e-7
-0.356, -6.836e-7, -3.821e-7, 3.015e-7
-0.357, -6.897e-7, -3.882e-7, 3.015e-7
-0.358, -6.866e-7, -3.851e-7, 3.015e-7
-0.359, -6.897e-7, -3.882e-7, 3.015e-7
-0.360, -6.836e-7, -3.851e-7, 2.984e-7
-0.361, -6.836e-7, -3.821e-7, 3.015e-7
-0.362, -6.805e-7, -3.821e-7, 2.984e-7
-0.363, -6.836e-7, -3.851e-7, 2.984e-7
-0.364, -6.836e-7, -3.821e-7, 3.015e-7
-0.365, -6.836e-7, -3.851e-7, 2.984e-7
-0.366, -6.836e-7, -3.851e-7, 2.984e-7
-0.367, -6.836e-7, -3.851e-7, 2.984e-7
-0.368, -6.805e-7, -3.821e-7, 2.984e-7
-0.369, -6.866e-7, -3.882e-7, 2.984e-7
-0.370, -6.866e-7, -3.882e-7, 2.984e-7
-0.371, -6.805e-7, -3.821e-7, 2.984e-7
-0.372, -6.805e-7, -3.851e-7, 2.954e-7
-0.373, -6.744e-7, -3.790e-7, 2.954e-7
-0.374, -6.775e-7, -3.821e-7, 2.954e-7
-0.375, -6.775e-7, -3.821e-7, 2.954e-7
-0.376, -6.775e-7, -3.821e-7, 2.954e-7
-0.377, -6.805e-7, -3.851e-7, 2.954e-7
-0.378, -6.775e-7, -3.821e-7, 2.954e-7
-0.379, -6.775e-7, -3.851e-7, 2.923e-7
-0.380, -6.775e-7, -3.821e-7, 2.954e-7
-0.381, -6.775e-7, -3.821e-7, 2.954e-7
-0.382, -6.775e-7, -3.851e-7, 2.923e-7
-0.383, -6.744e-7, -3.821e-7, 2.923e-7
-0.384, -6.805e-7, -3.882e-7, 2.923e-7
-0.385, -6.866e-7, -3.943e-7, 2.923e-7
-0.386, -6.744e-7, -3.821e-7, 2.923e-7
-0.387, -6.775e-7, -3.851e-7, 2.923e-7
-0.388, -6.744e-7, -3.851e-7, 2.893e-7
-0.389, -6.775e-7, -3.851e-7, 2.923e-7
-0.390, -6.775e-7, -3.851e-7, 2.923e-7
-0.391, -6.775e-7, -3.882e-7, 2.893e-7
-0.392, -6.805e-7, -3.882e-7, 2.923e-7
-0.393, -6.713e-7, -3.821e-7, 2.893e-7
-0.394, -6.744e-7, -3.851e-7, 2.893e-7
-0.395, -6.744e-7, -3.821e-7, 2.923e-7
-0.396, -6.775e-7, -3.882e-7, 2.893e-7
-0.397, -6.744e-7, -3.851e-7, 2.893e-7
-0.398, -6.744e-7, -3.851e-7, 2.893e-7
-0.399, -6.775e-7, -3.882e-7, 2.893e-7
-0.400, -6.744e-7, -3.851e-7, 2.893e-7
