Feb. 28, 2018   11:47:11
Square Wave Voltammetry
File: c:\users\electrochemist\desktop\2018\28022018_unbuffered_9,2\21_e1_9,2_0118_ph6,29_5.txt
Data Source:  Experiment
Instrument Model:  CHI1040A
Header: 
Note: 

Init E (V) = 0.5
Final E (V) = -0.05
Incr E (V) = 0.001
Amplitude (V) = 0.1
Frequency (Hz) = 150
Quiet Time (sec) = 0
Sensitivity (A/V) = 1e-6

Difference:

Forward:

Reverse:

Potential/V, Diff(i/A), For(i/A), Rev(i/A)

0.499, -5.764e-7, -1.346e-7, 4.418e-7
0.498, -6.958e-7, -3.101e-7, 3.857e-7
0.497, -6.894e-7, -3.205e-7, 3.689e-7
0.496, -6.799e-7, -3.247e-7, 3.552e-7
0.495, -6.765e-7, -3.296e-7, 3.469e-7
0.494, -6.720e-7, -3.284e-7, 3.436e-7
0.493, -6.662e-7, -3.302e-7, 3.359e-7
0.492, -6.634e-7, -3.321e-7, 3.314e-7
0.491, -6.616e-7, -3.315e-7, 3.301e-7
0.490, -6.585e-7, -3.324e-7, 3.262e-7
0.489, -6.561e-7, -3.342e-7, 3.219e-7
0.488, -6.546e-7, -3.330e-7, 3.216e-7
0.487, -6.518e-7, -3.333e-7, 3.185e-7
0.486, -6.521e-7, -3.354e-7, 3.167e-7
0.485, -6.509e-7, -3.345e-7, 3.164e-7
0.484, -6.488e-7, -3.348e-7, 3.140e-7
0.483, -6.475e-7, -3.360e-7, 3.115e-7
0.482, -6.466e-7, -3.351e-7, 3.115e-7
0.481, -6.433e-7, -3.360e-7, 3.072e-7
0.480, -6.421e-7, -3.357e-7, 3.063e-7
0.479, -6.427e-7, -3.354e-7, 3.072e-7
0.478, -6.421e-7, -3.366e-7, 3.054e-7
0.477, -6.430e-7, -3.388e-7, 3.042e-7
0.476, -6.393e-7, -3.369e-7, 3.024e-7
0.475, -6.381e-7, -3.376e-7, 3.005e-7
0.474, -6.396e-7, -3.385e-7, 3.011e-7
0.473, -6.390e-7, -3.369e-7, 3.021e-7
0.472, -6.369e-7, -3.376e-7, 2.993e-7
0.471, -6.381e-7, -3.388e-7, 2.993e-7
0.470, -6.366e-7, -3.394e-7, 2.972e-7
0.469, -6.329e-7, -3.373e-7, 2.956e-7
0.468, -6.338e-7, -3.391e-7, 2.947e-7
0.467, -6.350e-7, -3.388e-7, 2.963e-7
0.466, -6.329e-7, -3.385e-7, 2.944e-7
0.465, -6.338e-7, -3.400e-7, 2.938e-7
0.464, -6.338e-7, -3.397e-7, 2.941e-7
0.463, -6.332e-7, -3.397e-7, 2.935e-7
0.462, -6.326e-7, -3.409e-7, 2.917e-7
0.461, -6.329e-7, -3.412e-7, 2.917e-7
0.460, -6.311e-7, -3.412e-7, 2.899e-7
0.459, -6.314e-7, -3.418e-7, 2.895e-7
0.458, -6.302e-7, -3.409e-7, 2.892e-7
0.457, -6.286e-7, -3.400e-7, 2.886e-7
0.456, -6.295e-7, -3.418e-7, 2.877e-7
0.455, -6.308e-7, -3.421e-7, 2.886e-7
0.454, -6.292e-7, -3.415e-7, 2.877e-7
0.453, -6.308e-7, -3.434e-7, 2.874e-7
0.452, -6.295e-7, -3.421e-7, 2.874e-7
0.451, -6.295e-7, -3.443e-7, 2.853e-7
0.450, -6.308e-7, -3.449e-7, 2.859e-7
0.449, -6.292e-7, -3.434e-7, 2.859e-7
0.448, -6.274e-7, -3.434e-7, 2.841e-7
0.447, -6.298e-7, -3.461e-7, 2.837e-7
0.446, -6.302e-7, -3.443e-7, 2.859e-7
0.445, -6.289e-7, -3.449e-7, 2.841e-7
0.444, -6.311e-7, -3.473e-7, 2.837e-7
0.443, -6.308e-7, -3.461e-7, 2.847e-7
0.442, -6.292e-7, -3.464e-7, 2.828e-7
0.441, -6.305e-7, -3.479e-7, 2.825e-7
0.440, -6.295e-7, -3.464e-7, 2.831e-7
0.439, -6.286e-7, -3.479e-7, 2.807e-7
0.438, -6.308e-7, -3.495e-7, 2.813e-7
0.437, -6.295e-7, -3.479e-7, 2.816e-7
0.436, -6.283e-7, -3.482e-7, 2.801e-7
0.435, -6.311e-7, -3.501e-7, 2.810e-7
0.434, -6.311e-7, -3.501e-7, 2.810e-7
0.433, -6.295e-7, -3.501e-7, 2.795e-7
0.432, -6.311e-7, -3.513e-7, 2.798e-7
0.431, -6.308e-7, -3.519e-7, 2.789e-7
0.430, -6.302e-7, -3.510e-7, 2.792e-7
0.429, -6.305e-7, -3.516e-7, 2.789e-7
0.428, -6.314e-7, -3.522e-7, 2.792e-7
0.427, -6.314e-7, -3.528e-7, 2.786e-7
0.426, -6.311e-7, -3.531e-7, 2.779e-7
0.425, -6.311e-7, -3.525e-7, 2.786e-7
0.424, -6.314e-7, -3.537e-7, 2.776e-7
0.423, -6.311e-7, -3.546e-7, 2.764e-7
0.422, -6.332e-7, -3.546e-7, 2.786e-7
0.421, -6.332e-7, -3.556e-7, 2.776e-7
0.420, -6.341e-7, -3.565e-7, 2.776e-7
0.419, -6.329e-7, -3.559e-7, 2.770e-7
0.418, -6.338e-7, -3.571e-7, 2.767e-7
0.417, -6.341e-7, -3.580e-7, 2.761e-7
0.416, -6.344e-7, -3.574e-7, 2.770e-7
0.415, -6.341e-7, -3.574e-7, 2.767e-7
0.414, -6.363e-7, -3.595e-7, 2.767e-7
0.413, -6.350e-7, -3.589e-7, 2.761e-7
0.412, -6.356e-7, -3.598e-7, 2.758e-7
0.411, -6.363e-7, -3.601e-7, 2.761e-7
0.410, -6.372e-7, -3.614e-7, 2.758e-7
0.409, -6.369e-7, -3.614e-7, 2.755e-7
0.408, -6.384e-7, -3.623e-7, 2.761e-7
0.407, -6.378e-7, -3.620e-7, 2.758e-7
0.406, -6.393e-7, -3.626e-7, 2.767e-7
0.405, -6.384e-7, -3.632e-7, 2.752e-7
0.404, -6.402e-7, -3.650e-7, 2.752e-7
0.403, -6.378e-7, -3.644e-7, 2.734e-7
0.402, -6.405e-7, -3.653e-7, 2.752e-7
0.401, -6.399e-7, -3.647e-7, 2.752e-7
0.400, -6.424e-7, -3.669e-7, 2.755e-7
0.399, -6.414e-7, -3.662e-7, 2.752e-7
0.398, -6.430e-7, -3.669e-7, 2.761e-7
0.397, -6.442e-7, -3.684e-7, 2.758e-7
0.396, -6.436e-7, -3.684e-7, 2.752e-7
0.395, -6.427e-7, -3.690e-7, 2.737e-7
0.394, -6.442e-7, -3.699e-7, 2.743e-7
0.393, -6.469e-7, -3.708e-7, 2.761e-7
0.392, -6.457e-7, -3.711e-7, 2.746e-7
0.391, -6.457e-7, -3.714e-7, 2.743e-7
0.390, -6.475e-7, -3.726e-7, 2.749e-7
0.389, -6.475e-7, -3.726e-7, 2.749e-7
0.388, -6.488e-7, -3.736e-7, 2.752e-7
0.387, -6.506e-7, -3.751e-7, 2.755e-7
0.386, -6.485e-7, -3.739e-7, 2.746e-7
0.385, -6.500e-7, -3.751e-7, 2.749e-7
0.384, -6.515e-7, -3.760e-7, 2.755e-7
0.383, -6.515e-7, -3.760e-7, 2.755e-7
0.382, -6.543e-7, -3.778e-7, 2.764e-7
0.381, -6.552e-7, -3.784e-7, 2.767e-7
0.380, -6.549e-7, -3.784e-7, 2.764e-7
0.379, -6.543e-7, -3.794e-7, 2.749e-7
0.378, -6.552e-7, -3.794e-7, 2.758e-7
0.377, -6.564e-7, -3.809e-7, 2.755e-7
0.376, -6.570e-7, -3.821e-7, 2.749e-7
0.375, -6.570e-7, -3.812e-7, 2.758e-7
0.374, -6.588e-7, -3.830e-7, 2.758e-7
0.373, -6.585e-7, -3.830e-7, 2.755e-7
0.372, -6.598e-7, -3.836e-7, 2.761e-7
0.371, -6.601e-7, -3.846e-7, 2.755e-7
0.370, -6.613e-7, -3.861e-7, 2.752e-7
0.369, -6.646e-7, -3.870e-7, 2.776e-7
0.368, -6.631e-7, -3.858e-7, 2.773e-7
0.367, -6.649e-7, -3.879e-7, 2.770e-7
0.366, -6.656e-7, -3.882e-7, 2.773e-7
0.365, -6.646e-7, -3.882e-7, 2.764e-7
0.364, -6.674e-7, -3.903e-7, 2.770e-7
0.363, -6.671e-7, -3.910e-7, 2.761e-7
0.362, -6.671e-7, -3.894e-7, 2.776e-7
0.361, -6.683e-7, -3.919e-7, 2.764e-7
0.360, -6.723e-7, -3.931e-7, 2.792e-7
0.359, -6.713e-7, -3.931e-7, 2.783e-7
0.358, -6.723e-7, -3.940e-7, 2.783e-7
0.357, -6.735e-7, -3.949e-7, 2.786e-7
0.356, -6.720e-7, -3.955e-7, 2.764e-7
0.355, -6.759e-7, -3.974e-7, 2.786e-7
0.354, -6.762e-7, -3.968e-7, 2.795e-7
0.353, -6.747e-7, -3.961e-7, 2.786e-7
0.352, -6.768e-7, -3.980e-7, 2.789e-7
0.351, -6.784e-7, -3.986e-7, 2.798e-7
0.350, -6.796e-7, -4.001e-7, 2.795e-7
0.349, -6.808e-7, -4.007e-7, 2.801e-7
0.348, -6.823e-7, -4.022e-7, 2.801e-7
0.347, -6.829e-7, -4.023e-7, 2.807e-7
0.346, -6.839e-7, -4.032e-7, 2.807e-7
0.345, -6.863e-7, -4.044e-7, 2.819e-7
0.344, -6.845e-7, -4.044e-7, 2.801e-7
0.343, -6.869e-7, -4.059e-7, 2.810e-7
0.342, -6.887e-7, -4.068e-7, 2.819e-7
0.341, -6.887e-7, -4.077e-7, 2.810e-7
0.340, -6.884e-7, -4.080e-7, 2.804e-7
0.339, -6.903e-7, -4.090e-7, 2.813e-7
0.338, -6.909e-7, -4.093e-7, 2.816e-7
0.337, -6.930e-7, -4.108e-7, 2.822e-7
0.336, -6.939e-7, -4.111e-7, 2.828e-7
0.335, -6.952e-7, -4.117e-7, 2.834e-7
0.334, -6.942e-7, -4.114e-7, 2.828e-7
0.333, -6.952e-7, -4.129e-7, 2.822e-7
0.332, -6.961e-7, -4.135e-7, 2.825e-7
0.331, -7.006e-7, -4.166e-7, 2.841e-7
0.330, -6.994e-7, -4.148e-7, 2.847e-7
0.329, -7.016e-7, -4.178e-7, 2.837e-7
0.328, -7.009e-7, -4.160e-7, 2.850e-7
0.327, -7.040e-7, -4.181e-7, 2.859e-7
0.326, -7.049e-7, -4.196e-7, 2.853e-7
0.325, -7.049e-7, -4.206e-7, 2.844e-7
0.324, -7.061e-7, -4.206e-7, 2.856e-7
0.323, -7.061e-7, -4.212e-7, 2.850e-7
0.322, -7.071e-7, -4.221e-7, 2.850e-7
0.321, -7.086e-7, -4.227e-7, 2.859e-7
0.320, -7.104e-7, -4.248e-7, 2.856e-7
0.319, -7.110e-7, -4.251e-7, 2.859e-7
0.318, -7.128e-7, -4.254e-7, 2.874e-7
0.317, -7.150e-7, -4.270e-7, 2.880e-7
0.316, -7.165e-7, -4.282e-7, 2.883e-7
0.315, -7.159e-7, -4.276e-7, 2.883e-7
0.314, -7.177e-7, -4.294e-7, 2.883e-7
0.313, -7.186e-7, -4.303e-7, 2.883e-7
0.312, -7.190e-7, -4.291e-7, 2.898e-7
0.311, -7.205e-7, -4.331e-7, 2.874e-7
0.310, -7.226e-7, -4.337e-7, 2.889e-7
0.309, -7.238e-7, -4.340e-7, 2.898e-7
0.308, -7.229e-7, -4.340e-7, 2.889e-7
0.307, -7.260e-7, -4.355e-7, 2.905e-7
0.306, -7.263e-7, -4.346e-7, 2.917e-7
0.305, -7.266e-7, -4.367e-7, 2.898e-7
0.304, -7.281e-7, -4.376e-7, 2.905e-7
0.303, -7.290e-7, -4.380e-7, 2.911e-7
0.302, -7.315e-7, -4.398e-7, 2.917e-7
0.301, -7.327e-7, -4.410e-7, 2.917e-7
0.300, -7.321e-7, -4.401e-7, 2.920e-7
0.299, -7.345e-7, -4.425e-7, 2.920e-7
0.298, -7.363e-7, -4.434e-7, 2.929e-7
0.297, -7.363e-7, -4.434e-7, 2.929e-7
0.296, -7.385e-7, -4.450e-7, 2.935e-7
0.295, -7.397e-7, -4.453e-7, 2.944e-7
0.294, -7.403e-7, -4.462e-7, 2.941e-7
0.293, -7.412e-7, -4.468e-7, 2.944e-7
0.292, -7.431e-7, -4.486e-7, 2.944e-7
0.291, -7.425e-7, -4.480e-7, 2.944e-7
0.290, -7.449e-7, -4.508e-7, 2.941e-7
0.289, -7.479e-7, -4.517e-7, 2.963e-7
0.288, -7.492e-7, -4.520e-7, 2.972e-7
0.287, -7.501e-7, -4.532e-7, 2.969e-7
0.286, -7.504e-7, -4.538e-7, 2.966e-7
0.285, -7.525e-7, -4.544e-7, 2.981e-7
0.284, -7.525e-7, -4.547e-7, 2.978e-7
0.283, -7.544e-7, -4.572e-7, 2.972e-7
0.282, -7.550e-7, -4.566e-7, 2.984e-7
0.281, -7.565e-7, -4.575e-7, 2.990e-7
0.280, -7.580e-7, -4.593e-7, 2.987e-7
0.279, -7.589e-7, -4.590e-7, 2.999e-7
0.278, -7.614e-7, -4.608e-7, 3.005e-7
0.277, -7.623e-7, -4.621e-7, 3.002e-7
0.276, -7.623e-7, -4.621e-7, 3.002e-7
0.275, -7.641e-7, -4.639e-7, 3.002e-7
0.274, -7.635e-7, -4.630e-7, 3.005e-7
0.273, -7.656e-7, -4.648e-7, 3.008e-7
0.272, -7.659e-7, -4.648e-7, 3.011e-7
0.271, -7.690e-7, -4.669e-7, 3.021e-7
0.270, -7.705e-7, -4.669e-7, 3.036e-7
0.269, -7.714e-7, -4.691e-7, 3.024e-7
0.268, -7.721e-7, -4.691e-7, 3.030e-7
0.267, -7.742e-7, -4.694e-7, 3.048e-7
0.266, -7.754e-7, -4.712e-7, 3.042e-7
0.265, -7.769e-7, -4.721e-7, 3.048e-7
0.264, -7.766e-7, -4.727e-7, 3.039e-7
0.263, -7.785e-7, -4.740e-7, 3.045e-7
0.262, -7.803e-7, -4.752e-7, 3.051e-7
0.261, -7.809e-7, -4.749e-7, 3.060e-7
0.260, -7.818e-7, -4.764e-7, 3.054e-7
0.259, -7.827e-7, -4.767e-7, 3.060e-7
0.258, -7.827e-7, -4.770e-7, 3.057e-7
0.257, -7.830e-7, -4.770e-7, 3.060e-7
0.256, -7.888e-7, -4.798e-7, 3.091e-7
0.255, -7.882e-7, -4.810e-7, 3.072e-7
0.254, -7.891e-7, -4.810e-7, 3.082e-7
0.253, -7.913e-7, -4.813e-7, 3.100e-7
0.252, -7.913e-7, -4.831e-7, 3.082e-7
0.251, -7.931e-7, -4.840e-7, 3.091e-7
0.250, -7.940e-7, -4.837e-7, 3.103e-7
0.249, -7.952e-7, -4.849e-7, 3.103e-7
0.248, -7.989e-7, -4.868e-7, 3.121e-7
0.247, -7.989e-7, -4.871e-7, 3.118e-7
0.246, -7.992e-7, -4.868e-7, 3.124e-7
0.245, -8.013e-7, -4.892e-7, 3.121e-7
0.244, -8.029e-7, -4.895e-7, 3.133e-7
0.243, -8.023e-7, -4.907e-7, 3.115e-7
0.242, -8.062e-7, -4.923e-7, 3.140e-7
0.241, -8.059e-7, -4.914e-7, 3.146e-7
0.240, -8.062e-7, -4.923e-7, 3.140e-7
0.239, -8.090e-7, -4.947e-7, 3.143e-7
0.238, -8.102e-7, -4.941e-7, 3.161e-7
0.237, -8.111e-7, -4.962e-7, 3.149e-7
0.236, -8.132e-7, -4.965e-7, 3.167e-7
0.235, -8.126e-7, -4.962e-7, 3.164e-7
0.234, -8.129e-7, -4.972e-7, 3.158e-7
0.233, -8.157e-7, -4.987e-7, 3.170e-7
0.232, -8.163e-7, -4.984e-7, 3.179e-7
0.231, -8.160e-7, -4.993e-7, 3.167e-7
0.230, -8.181e-7, -5.008e-7, 3.173e-7
0.229, -8.197e-7, -5.008e-7, 3.188e-7
0.228, -8.209e-7, -5.026e-7, 3.182e-7
0.227, -8.227e-7, -5.033e-7, 3.194e-7
0.226, -8.258e-7, -5.036e-7, 3.222e-7
0.225, -8.230e-7, -5.033e-7, 3.198e-7
0.224, -8.273e-7, -5.066e-7, 3.207e-7
0.223, -8.270e-7, -5.054e-7, 3.216e-7
0.222, -8.267e-7, -5.057e-7, 3.210e-7
0.221, -8.300e-7, -5.084e-7, 3.216e-7
0.220, -8.313e-7, -5.072e-7, 3.240e-7
0.219, -8.303e-7, -5.081e-7, 3.222e-7
0.218, -8.334e-7, -5.100e-7, 3.234e-7
0.217, -8.343e-7, -5.100e-7, 3.243e-7
0.216, -8.328e-7, -5.100e-7, 3.228e-7
0.215, -8.358e-7, -5.115e-7, 3.243e-7
0.214, -8.361e-7, -5.106e-7, 3.256e-7
0.213, -8.377e-7, -5.121e-7, 3.256e-7
0.212, -8.395e-7, -5.139e-7, 3.256e-7
0.211, -8.386e-7, -5.133e-7, 3.252e-7
0.210, -8.407e-7, -5.145e-7, 3.262e-7
0.209, -8.413e-7, -5.145e-7, 3.268e-7
0.208, -8.438e-7, -5.152e-7, 3.286e-7
0.207, -8.428e-7, -5.164e-7, 3.265e-7
0.206, -8.450e-7, -5.167e-7, 3.283e-7
0.205, -8.450e-7, -5.155e-7, 3.295e-7
0.204, -8.456e-7, -5.173e-7, 3.283e-7
0.203, -8.490e-7, -5.203e-7, 3.286e-7
0.202, -8.490e-7, -5.182e-7, 3.307e-7
0.201, -8.499e-7, -5.197e-7, 3.301e-7
0.200, -8.526e-7, -5.203e-7, 3.323e-7
0.199, -8.535e-7, -5.213e-7, 3.323e-7
0.198, -8.526e-7, -5.210e-7, 3.317e-7
0.197, -8.541e-7, -5.222e-7, 3.320e-7
0.196, -8.557e-7, -5.219e-7, 3.338e-7
0.195, -8.532e-7, -5.219e-7, 3.313e-7
0.194, -8.602e-7, -5.246e-7, 3.356e-7
0.193, -8.560e-7, -5.225e-7, 3.335e-7
0.192, -8.593e-7, -5.249e-7, 3.344e-7
0.191, -8.621e-7, -5.255e-7, 3.365e-7
0.190, -8.609e-7, -5.243e-7, 3.365e-7
0.189, -8.602e-7, -5.255e-7, 3.347e-7
0.188, -8.642e-7, -5.274e-7, 3.368e-7
0.187, -8.636e-7, -5.261e-7, 3.375e-7
0.186, -8.630e-7, -5.271e-7, 3.359e-7
0.185, -8.660e-7, -5.280e-7, 3.381e-7
0.184, -8.660e-7, -5.268e-7, 3.393e-7
0.183, -8.666e-7, -5.295e-7, 3.371e-7
0.182, -8.673e-7, -5.289e-7, 3.384e-7
0.181, -8.682e-7, -5.286e-7, 3.396e-7
0.180, -8.685e-7, -5.304e-7, 3.381e-7
0.179, -8.691e-7, -5.295e-7, 3.396e-7
0.178, -8.700e-7, -5.283e-7, 3.417e-7
0.177, -8.694e-7, -5.301e-7, 3.393e-7
0.176, -8.740e-7, -5.326e-7, 3.414e-7
0.175, -8.746e-7, -5.319e-7, 3.426e-7
0.174, -8.731e-7, -5.316e-7, 3.414e-7
0.173, -8.731e-7, -5.310e-7, 3.420e-7
0.172, -8.755e-7, -5.319e-7, 3.436e-7
0.171, -8.755e-7, -5.329e-7, 3.426e-7
0.170, -8.776e-7, -5.341e-7, 3.436e-7
0.169, -8.782e-7, -5.335e-7, 3.448e-7
0.168, -8.779e-7, -5.338e-7, 3.442e-7
0.167, -8.801e-7, -5.350e-7, 3.451e-7
0.166, -8.798e-7, -5.338e-7, 3.460e-7
0.165, -8.776e-7, -5.344e-7, 3.432e-7
0.164, -8.816e-7, -5.353e-7, 3.463e-7
0.163, -8.807e-7, -5.341e-7, 3.466e-7
0.162, -8.822e-7, -5.359e-7, 3.463e-7
0.161, -8.807e-7, -5.344e-7, 3.463e-7
0.160, -8.819e-7, -5.341e-7, 3.478e-7
0.159, -8.819e-7, -5.359e-7, 3.460e-7
0.158, -8.847e-7, -5.359e-7, 3.487e-7
0.157, -8.843e-7, -5.356e-7, 3.487e-7
0.156, -8.828e-7, -5.356e-7, 3.472e-7
0.155, -8.856e-7, -5.365e-7, 3.490e-7
0.154, -8.856e-7, -5.368e-7, 3.487e-7
0.153, -8.850e-7, -5.362e-7, 3.487e-7
0.152, -8.874e-7, -5.368e-7, 3.506e-7
0.151, -8.874e-7, -5.371e-7, 3.503e-7
0.150, -8.859e-7, -5.365e-7, 3.494e-7
0.149, -8.901e-7, -5.384e-7, 3.518e-7
0.148, -8.886e-7, -5.377e-7, 3.509e-7
0.147, -8.862e-7, -5.362e-7, 3.500e-7
0.146, -8.901e-7, -5.380e-7, 3.521e-7
0.145, -8.892e-7, -5.362e-7, 3.530e-7
0.144, -8.886e-7, -5.371e-7, 3.515e-7
0.143, -8.892e-7, -5.377e-7, 3.515e-7
0.142, -8.905e-7, -5.368e-7, 3.536e-7
0.141, -8.908e-7, -5.377e-7, 3.530e-7
0.140, -8.917e-7, -5.374e-7, 3.542e-7
0.139, -8.892e-7, -5.359e-7, 3.533e-7
0.138, -8.908e-7, -5.365e-7, 3.542e-7
0.137, -8.923e-7, -5.387e-7, 3.536e-7
0.136, -8.920e-7, -5.365e-7, 3.555e-7
0.135, -8.905e-7, -5.368e-7, 3.536e-7
0.134, -8.938e-7, -5.371e-7, 3.567e-7
0.133, -8.905e-7, -5.344e-7, 3.561e-7
0.132, -8.923e-7, -5.371e-7, 3.552e-7
0.131, -8.920e-7, -5.362e-7, 3.558e-7
0.130, -8.908e-7, -5.347e-7, 3.561e-7
0.129, -8.926e-7, -5.368e-7, 3.558e-7
0.128, -8.926e-7, -5.359e-7, 3.567e-7
0.127, -8.929e-7, -5.353e-7, 3.576e-7
0.126, -8.923e-7, -5.365e-7, 3.558e-7
0.125, -8.938e-7, -5.359e-7, 3.579e-7
0.124, -8.947e-7, -5.359e-7, 3.588e-7
0.123, -8.920e-7, -5.353e-7, 3.567e-7
0.122, -8.932e-7, -5.350e-7, 3.582e-7
0.121, -8.941e-7, -5.350e-7, 3.591e-7
0.120, -8.944e-7, -5.356e-7, 3.588e-7
0.119, -8.944e-7, -5.344e-7, 3.600e-7
0.118, -8.944e-7, -5.347e-7, 3.597e-7
0.117, -8.932e-7, -5.344e-7, 3.588e-7
0.116, -8.941e-7, -5.338e-7, 3.603e-7
0.115, -8.941e-7, -5.335e-7, 3.606e-7
0.114, -8.932e-7, -5.338e-7, 3.594e-7
0.113, -8.938e-7, -5.335e-7, 3.603e-7
0.112, -8.938e-7, -5.335e-7, 3.603e-7
0.111, -8.926e-7, -5.319e-7, 3.606e-7
0.110, -8.935e-7, -5.322e-7, 3.613e-7
0.109, -8.923e-7, -5.307e-7, 3.616e-7
0.108, -8.914e-7, -5.319e-7, 3.594e-7
0.107, -8.911e-7, -5.304e-7, 3.606e-7
0.106, -8.914e-7, -5.298e-7, 3.616e-7
0.105, -8.920e-7, -5.307e-7, 3.613e-7
0.104, -8.911e-7, -5.295e-7, 3.616e-7
0.103, -8.901e-7, -5.289e-7, 3.613e-7
0.102, -8.901e-7, -5.292e-7, 3.609e-7
0.101, -8.898e-7, -5.277e-7, 3.622e-7
0.100, -8.905e-7, -5.277e-7, 3.628e-7
0.099, -8.892e-7, -5.274e-7, 3.619e-7
0.098, -8.901e-7, -5.280e-7, 3.622e-7
0.097, -8.874e-7, -5.268e-7, 3.606e-7
0.096, -8.856e-7, -5.261e-7, 3.594e-7
0.095, -8.877e-7, -5.252e-7, 3.625e-7
0.094, -8.871e-7, -5.252e-7, 3.619e-7
0.093, -8.862e-7, -5.240e-7, 3.622e-7
0.092, -8.865e-7, -5.249e-7, 3.616e-7
0.091, -8.859e-7, -5.234e-7, 3.625e-7
0.090, -8.853e-7, -5.222e-7, 3.631e-7
0.089, -8.850e-7, -5.231e-7, 3.619e-7
0.088, -8.840e-7, -5.222e-7, 3.619e-7
0.087, -8.831e-7, -5.222e-7, 3.609e-7
0.086, -8.837e-7, -5.216e-7, 3.622e-7
0.085, -8.810e-7, -5.197e-7, 3.613e-7
0.084, -8.825e-7, -5.200e-7, 3.625e-7
0.083, -8.807e-7, -5.191e-7, 3.616e-7
0.082, -8.816e-7, -5.191e-7, 3.625e-7
0.081, -8.804e-7, -5.182e-7, 3.622e-7
0.080, -8.804e-7, -5.179e-7, 3.625e-7
0.079, -8.776e-7, -5.164e-7, 3.613e-7
0.078, -8.789e-7, -5.167e-7, 3.622e-7
0.077, -8.779e-7, -5.167e-7, 3.613e-7
0.076, -8.749e-7, -5.149e-7, 3.600e-7
0.075, -8.752e-7, -5.139e-7, 3.613e-7
0.074, -8.752e-7, -5.139e-7, 3.613e-7
0.073, -8.746e-7, -5.130e-7, 3.616e-7
0.072, -8.740e-7, -5.136e-7, 3.603e-7
0.071, -8.740e-7, -5.124e-7, 3.616e-7
0.070, -8.731e-7, -5.118e-7, 3.613e-7
0.069, -8.703e-7, -5.103e-7, 3.600e-7
0.068, -8.709e-7, -5.106e-7, 3.603e-7
0.067, -8.706e-7, -5.103e-7, 3.603e-7
0.066, -8.682e-7, -5.088e-7, 3.594e-7
0.065, -8.663e-7, -5.072e-7, 3.591e-7
0.064, -8.666e-7, -5.072e-7, 3.594e-7
0.063, -8.676e-7, -5.066e-7, 3.609e-7
0.062, -8.657e-7, -5.060e-7, 3.597e-7
0.061, -8.636e-7, -5.051e-7, 3.585e-7
0.060, -8.627e-7, -5.039e-7, 3.588e-7
0.059, -8.621e-7, -5.036e-7, 3.585e-7
0.058, -8.615e-7, -5.023e-7, 3.591e-7
0.057, -8.612e-7, -5.026e-7, 3.585e-7
0.056, -8.605e-7, -5.011e-7, 3.594e-7
0.055, -8.605e-7, -5.014e-7, 3.591e-7
0.054, -8.578e-7, -5.008e-7, 3.570e-7
0.053, -8.578e-7, -4.993e-7, 3.585e-7
0.052, -8.560e-7, -4.990e-7, 3.570e-7
0.051, -8.554e-7, -4.984e-7, 3.570e-7
0.050, -8.541e-7, -4.972e-7, 3.570e-7
0.049, -8.538e-7, -4.969e-7, 3.570e-7
0.048, -8.514e-7, -4.953e-7, 3.561e-7
0.047, -8.517e-7, -4.953e-7, 3.564e-7
0.046, -8.511e-7, -4.950e-7, 3.561e-7
0.045, -8.499e-7, -4.941e-7, 3.558e-7
0.044, -8.493e-7, -4.929e-7, 3.564e-7
0.043, -8.477e-7, -4.923e-7, 3.555e-7
0.042, -8.465e-7, -4.917e-7, 3.548e-7
0.041, -8.450e-7, -4.907e-7, 3.542e-7
0.040, -8.450e-7, -4.907e-7, 3.542e-7
0.039, -8.438e-7, -4.889e-7, 3.548e-7
0.038, -8.422e-7, -4.883e-7, 3.539e-7
0.037, -8.410e-7, -4.886e-7, 3.524e-7
0.036, -8.395e-7, -4.862e-7, 3.533e-7
0.035, -8.407e-7, -4.865e-7, 3.542e-7
0.034, -8.380e-7, -4.859e-7, 3.521e-7
0.033, -8.370e-7, -4.856e-7, 3.515e-7
0.032, -8.358e-7, -4.843e-7, 3.515e-7
0.031, -8.358e-7, -4.843e-7, 3.515e-7
0.030, -8.343e-7, -4.840e-7, 3.503e-7
0.029, -8.319e-7, -4.813e-7, 3.506e-7
0.028, -8.309e-7, -4.810e-7, 3.500e-7
0.027, -8.306e-7, -4.804e-7, 3.503e-7
0.026, -8.291e-7, -4.801e-7, 3.490e-7
0.025, -8.282e-7, -4.795e-7, 3.487e-7
0.024, -8.288e-7, -4.795e-7, 3.494e-7
0.023, -8.267e-7, -4.782e-7, 3.484e-7
0.022, -8.258e-7, -4.776e-7, 3.481e-7
0.021, -8.255e-7, -4.773e-7, 3.481e-7
0.020, -8.212e-7, -4.752e-7, 3.460e-7
0.019, -8.215e-7, -4.755e-7, 3.460e-7
0.018, -8.209e-7, -4.755e-7, 3.454e-7
0.017, -8.197e-7, -4.737e-7, 3.460e-7
0.016, -8.181e-7, -4.724e-7, 3.457e-7
0.015, -8.181e-7, -4.721e-7, 3.460e-7
0.014, -8.151e-7, -4.703e-7, 3.448e-7
0.013, -8.166e-7, -4.718e-7, 3.448e-7
0.012, -8.154e-7, -4.706e-7, 3.448e-7
0.011, -8.129e-7, -4.697e-7, 3.432e-7
0.010, -8.120e-7, -4.694e-7, 3.426e-7
0.009, -8.114e-7, -4.685e-7, 3.429e-7
0.008, -8.111e-7, -4.682e-7, 3.429e-7
0.007, -8.105e-7, -4.685e-7, 3.420e-7
0.006, -8.078e-7, -4.660e-7, 3.417e-7
0.005, -8.068e-7, -4.654e-7, 3.414e-7
0.004, -8.068e-7, -4.660e-7, 3.408e-7
0.003, -8.053e-7, -4.648e-7, 3.405e-7
0.002, -8.047e-7, -4.642e-7, 3.405e-7
0.001, -8.041e-7, -4.645e-7, 3.396e-7
-0.000, -8.035e-7, -4.642e-7, 3.393e-7
-0.001, -8.010e-7, -4.621e-7, 3.390e-7
-0.002, -7.995e-7, -4.627e-7, 3.368e-7
-0.003, -8.004e-7, -4.615e-7, 3.390e-7
-0.004, -7.971e-7, -4.599e-7, 3.371e-7
-0.005, -7.955e-7, -4.590e-7, 3.365e-7
-0.006, -7.962e-7, -4.593e-7, 3.368e-7
-0.007, -7.949e-7, -4.596e-7, 3.353e-7
-0.008, -7.943e-7, -4.581e-7, 3.362e-7
-0.009, -7.925e-7, -4.569e-7, 3.356e-7
-0.010, -7.925e-7, -4.578e-7, 3.347e-7
-0.011, -7.919e-7, -4.572e-7, 3.347e-7
-0.012, -7.907e-7, -4.563e-7, 3.344e-7
-0.013, -7.891e-7, -4.554e-7, 3.338e-7
-0.014, -7.891e-7, -4.566e-7, 3.326e-7
-0.015, -7.870e-7, -4.541e-7, 3.329e-7
-0.016, -7.855e-7, -4.535e-7, 3.320e-7
-0.017, -7.867e-7, -4.547e-7, 3.320e-7
-0.018, -7.846e-7, -4.532e-7, 3.313e-7
-0.019, -7.843e-7, -4.529e-7, 3.313e-7
-0.020, -7.849e-7, -4.532e-7, 3.317e-7
-0.021, -7.812e-7, -4.517e-7, 3.295e-7
-0.022, -7.815e-7, -4.514e-7, 3.301e-7
-0.023, -7.812e-7, -4.514e-7, 3.298e-7
-0.024, -7.809e-7, -4.511e-7, 3.298e-7
-0.025, -7.791e-7, -4.505e-7, 3.286e-7
-0.026, -7.794e-7, -4.514e-7, 3.280e-7
-0.027, -7.775e-7, -4.489e-7, 3.286e-7
-0.028, -7.763e-7, -4.492e-7, 3.271e-7
-0.029, -7.754e-7, -4.483e-7, 3.271e-7
-0.030, -7.751e-7, -4.483e-7, 3.268e-7
-0.031, -7.754e-7, -4.486e-7, 3.268e-7
-0.032, -7.736e-7, -4.477e-7, 3.259e-7
-0.033, -7.714e-7, -4.465e-7, 3.249e-7
-0.034, -7.708e-7, -4.462e-7, 3.246e-7
-0.035, -7.705e-7, -4.459e-7, 3.246e-7
-0.036, -7.693e-7, -4.453e-7, 3.240e-7
-0.037, -7.696e-7, -4.456e-7, 3.240e-7
-0.038, -7.696e-7, -4.462e-7, 3.234e-7
-0.039, -7.690e-7, -4.447e-7, 3.243e-7
-0.040, -7.675e-7, -4.441e-7, 3.234e-7
-0.041, -7.647e-7, -4.444e-7, 3.204e-7
-0.042, -7.650e-7, -4.438e-7, 3.213e-7
-0.043, -7.653e-7, -4.435e-7, 3.219e-7
-0.044, -7.632e-7, -4.431e-7, 3.201e-7
-0.045, -7.635e-7, -4.428e-7, 3.207e-7
-0.046, -7.626e-7, -4.425e-7, 3.201e-7
-0.047, -7.598e-7, -4.428e-7, 3.170e-7
-0.048, -7.623e-7, -4.425e-7, 3.198e-7
-0.049, -7.620e-7, -4.431e-7, 3.188e-7
-0.050, -7.598e-7, -4.422e-7, 3.176e-7
