Feb. 28, 2018   11:47:47
Square Wave Voltammetry
File: c:\users\electrochemist\desktop\2018\28022018_unbuffered_9,2\22_e2_9,2_0118_ph6,29_4.txt
Data Source:  Experiment
Instrument Model:  CHI1040A
Header: 
Note: 

Init E (V) = 0.5
Final E (V) = -0.05
Incr E (V) = 0.001
Amplitude (V) = 0.1
Frequency (Hz) = 150
Quiet Time (sec) = 0
Sensitivity (A/V) = 1e-6

Difference:

Forward:

Reverse:

Potential/V, Diff(i/A), For(i/A), Rev(i/A)

0.499, -5.017e-7, -1.276e-7, 3.741e-7
0.498, -6.100e-7, -2.890e-7, 3.210e-7
0.497, -6.033e-7, -2.988e-7, 3.045e-7
0.496, -5.984e-7, -3.046e-7, 2.938e-7
0.495, -5.920e-7, -3.061e-7, 2.859e-7
0.494, -5.877e-7, -3.080e-7, 2.798e-7
0.493, -5.847e-7, -3.101e-7, 2.746e-7
0.492, -5.841e-7, -3.110e-7, 2.731e-7
0.491, -5.819e-7, -3.131e-7, 2.688e-7
0.490, -5.798e-7, -3.141e-7, 2.657e-7
0.489, -5.789e-7, -3.147e-7, 2.642e-7
0.488, -5.761e-7, -3.138e-7, 2.624e-7
0.487, -5.764e-7, -3.168e-7, 2.596e-7
0.486, -5.771e-7, -3.180e-7, 2.590e-7
0.485, -5.752e-7, -3.180e-7, 2.572e-7
0.484, -5.752e-7, -3.192e-7, 2.560e-7
0.483, -5.749e-7, -3.196e-7, 2.554e-7
0.482, -5.743e-7, -3.192e-7, 2.551e-7
0.481, -5.746e-7, -3.217e-7, 2.529e-7
0.480, -5.740e-7, -3.208e-7, 2.532e-7
0.479, -5.719e-7, -3.208e-7, 2.511e-7
0.478, -5.740e-7, -3.226e-7, 2.514e-7
0.477, -5.743e-7, -3.226e-7, 2.517e-7
0.476, -5.725e-7, -3.235e-7, 2.490e-7
0.475, -5.737e-7, -3.247e-7, 2.490e-7
0.474, -5.716e-7, -3.238e-7, 2.477e-7
0.473, -5.734e-7, -3.260e-7, 2.474e-7
0.472, -5.740e-7, -3.272e-7, 2.468e-7
0.471, -5.734e-7, -3.266e-7, 2.468e-7
0.470, -5.722e-7, -3.260e-7, 2.462e-7
0.469, -5.752e-7, -3.287e-7, 2.465e-7
0.468, -5.725e-7, -3.269e-7, 2.456e-7
0.467, -5.728e-7, -3.287e-7, 2.441e-7
0.466, -5.731e-7, -3.293e-7, 2.438e-7
0.465, -5.746e-7, -3.296e-7, 2.450e-7
0.464, -5.728e-7, -3.302e-7, 2.426e-7
0.463, -5.743e-7, -3.308e-7, 2.435e-7
0.462, -5.740e-7, -3.302e-7, 2.438e-7
0.461, -5.728e-7, -3.305e-7, 2.422e-7
0.460, -5.758e-7, -3.327e-7, 2.432e-7
0.459, -5.758e-7, -3.321e-7, 2.438e-7
0.458, -5.755e-7, -3.333e-7, 2.422e-7
0.457, -5.761e-7, -3.351e-7, 2.410e-7
0.456, -5.804e-7, -3.366e-7, 2.438e-7
0.455, -5.764e-7, -3.351e-7, 2.413e-7
0.454, -5.774e-7, -3.360e-7, 2.413e-7
0.453, -5.758e-7, -3.351e-7, 2.407e-7
0.452, -5.767e-7, -3.369e-7, 2.398e-7
0.451, -5.786e-7, -3.369e-7, 2.416e-7
0.450, -5.804e-7, -3.385e-7, 2.419e-7
0.449, -5.810e-7, -3.406e-7, 2.404e-7
0.448, -5.816e-7, -3.400e-7, 2.416e-7
0.447, -5.813e-7, -3.397e-7, 2.416e-7
0.446, -5.838e-7, -3.424e-7, 2.413e-7
0.445, -5.832e-7, -3.427e-7, 2.404e-7
0.444, -5.816e-7, -3.415e-7, 2.401e-7
0.443, -5.838e-7, -3.440e-7, 2.398e-7
0.442, -5.847e-7, -3.443e-7, 2.404e-7
0.441, -5.856e-7, -3.440e-7, 2.416e-7
0.440, -5.838e-7, -3.452e-7, 2.386e-7
0.439, -5.880e-7, -3.470e-7, 2.410e-7
0.438, -5.865e-7, -3.449e-7, 2.416e-7
0.437, -5.868e-7, -3.473e-7, 2.395e-7
0.436, -5.865e-7, -3.470e-7, 2.395e-7
0.435, -5.880e-7, -3.470e-7, 2.410e-7
0.434, -5.887e-7, -3.495e-7, 2.392e-7
0.433, -5.905e-7, -3.513e-7, 2.392e-7
0.432, -5.902e-7, -3.498e-7, 2.404e-7
0.431, -5.908e-7, -3.516e-7, 2.392e-7
0.430, -5.911e-7, -3.519e-7, 2.392e-7
0.429, -5.932e-7, -3.528e-7, 2.404e-7
0.428, -5.920e-7, -3.528e-7, 2.392e-7
0.427, -5.938e-7, -3.540e-7, 2.398e-7
0.426, -5.954e-7, -3.546e-7, 2.407e-7
0.425, -5.954e-7, -3.559e-7, 2.395e-7
0.424, -5.987e-7, -3.586e-7, 2.401e-7
0.423, -5.975e-7, -3.559e-7, 2.416e-7
0.422, -5.969e-7, -3.577e-7, 2.392e-7
0.421, -5.978e-7, -3.580e-7, 2.398e-7
0.420, -5.987e-7, -3.580e-7, 2.407e-7
0.419, -5.993e-7, -3.589e-7, 2.404e-7
0.418, -6.009e-7, -3.614e-7, 2.395e-7
0.417, -6.012e-7, -3.607e-7, 2.404e-7
0.416, -6.015e-7, -3.617e-7, 2.398e-7
0.415, -6.030e-7, -3.632e-7, 2.398e-7
0.414, -6.045e-7, -3.629e-7, 2.416e-7
0.413, -6.033e-7, -3.638e-7, 2.395e-7
0.412, -6.070e-7, -3.653e-7, 2.416e-7
0.411, -6.079e-7, -3.659e-7, 2.419e-7
0.410, -6.067e-7, -3.669e-7, 2.398e-7
0.409, -6.097e-7, -3.681e-7, 2.416e-7
0.408, -6.091e-7, -3.665e-7, 2.426e-7
0.407, -6.100e-7, -3.687e-7, 2.413e-7
0.406, -6.128e-7, -3.702e-7, 2.426e-7
0.405, -6.131e-7, -3.711e-7, 2.419e-7
0.404, -6.121e-7, -3.711e-7, 2.410e-7
0.403, -6.149e-7, -3.733e-7, 2.416e-7
0.402, -6.152e-7, -3.726e-7, 2.426e-7
0.401, -6.143e-7, -3.730e-7, 2.413e-7
0.400, -6.173e-7, -3.751e-7, 2.422e-7
0.399, -6.170e-7, -3.745e-7, 2.426e-7
0.398, -6.192e-7, -3.769e-7, 2.422e-7
0.397, -6.198e-7, -3.769e-7, 2.429e-7
0.396, -6.213e-7, -3.772e-7, 2.441e-7
0.395, -6.234e-7, -3.803e-7, 2.432e-7
0.394, -6.240e-7, -3.800e-7, 2.441e-7
0.393, -6.234e-7, -3.797e-7, 2.438e-7
0.392, -6.237e-7, -3.806e-7, 2.432e-7
0.391, -6.268e-7, -3.821e-7, 2.447e-7
0.390, -6.271e-7, -3.827e-7, 2.444e-7
0.389, -6.283e-7, -3.855e-7, 2.429e-7
0.388, -6.298e-7, -3.855e-7, 2.444e-7
0.387, -6.305e-7, -3.852e-7, 2.453e-7
0.386, -6.329e-7, -3.885e-7, 2.444e-7
0.385, -6.335e-7, -3.882e-7, 2.453e-7
0.384, -6.329e-7, -3.870e-7, 2.459e-7
0.383, -6.350e-7, -3.897e-7, 2.453e-7
0.382, -6.353e-7, -3.903e-7, 2.450e-7
0.381, -6.372e-7, -3.907e-7, 2.465e-7
0.380, -6.369e-7, -3.916e-7, 2.453e-7
0.379, -6.411e-7, -3.940e-7, 2.471e-7
0.378, -6.408e-7, -3.928e-7, 2.480e-7
0.377, -6.411e-7, -3.952e-7, 2.459e-7
0.376, -6.442e-7, -3.968e-7, 2.474e-7
0.375, -6.442e-7, -3.968e-7, 2.474e-7
0.374, -6.442e-7, -3.977e-7, 2.465e-7
0.373, -6.491e-7, -3.995e-7, 2.496e-7
0.372, -6.482e-7, -3.986e-7, 2.496e-7
0.371, -6.503e-7, -4.019e-7, 2.483e-7
0.370, -6.509e-7, -4.022e-7, 2.487e-7
0.369, -6.515e-7, -4.022e-7, 2.493e-7
0.368, -6.518e-7, -4.035e-7, 2.483e-7
0.367, -6.558e-7, -4.053e-7, 2.505e-7
0.366, -6.543e-7, -4.050e-7, 2.493e-7
0.365, -6.576e-7, -4.084e-7, 2.493e-7
0.364, -6.579e-7, -4.077e-7, 2.502e-7
0.363, -6.601e-7, -4.077e-7, 2.523e-7
0.362, -6.601e-7, -4.090e-7, 2.511e-7
0.361, -6.619e-7, -4.114e-7, 2.505e-7
0.360, -6.619e-7, -4.111e-7, 2.508e-7
0.359, -6.637e-7, -4.126e-7, 2.511e-7
0.358, -6.668e-7, -4.145e-7, 2.523e-7
0.357, -6.668e-7, -4.132e-7, 2.535e-7
0.356, -6.683e-7, -4.163e-7, 2.520e-7
0.355, -6.698e-7, -4.166e-7, 2.532e-7
0.354, -6.707e-7, -4.178e-7, 2.529e-7
0.353, -6.726e-7, -4.199e-7, 2.526e-7
0.352, -6.729e-7, -4.193e-7, 2.535e-7
0.351, -6.723e-7, -4.196e-7, 2.526e-7
0.350, -6.756e-7, -4.212e-7, 2.545e-7
0.349, -6.775e-7, -4.230e-7, 2.545e-7
0.348, -6.771e-7, -4.233e-7, 2.538e-7
0.347, -6.811e-7, -4.261e-7, 2.551e-7
0.346, -6.829e-7, -4.270e-7, 2.560e-7
0.345, -6.839e-7, -4.267e-7, 2.572e-7
0.344, -6.860e-7, -4.288e-7, 2.572e-7
0.343, -6.863e-7, -4.294e-7, 2.569e-7
0.342, -6.869e-7, -4.294e-7, 2.575e-7
0.341, -6.890e-7, -4.319e-7, 2.572e-7
0.340, -6.897e-7, -4.328e-7, 2.569e-7
0.339, -6.903e-7, -4.331e-7, 2.572e-7
0.338, -6.936e-7, -4.358e-7, 2.578e-7
0.337, -6.958e-7, -4.361e-7, 2.596e-7
0.336, -6.945e-7, -4.352e-7, 2.593e-7
0.335, -6.976e-7, -4.386e-7, 2.590e-7
0.334, -6.979e-7, -4.389e-7, 2.590e-7
0.333, -6.988e-7, -4.401e-7, 2.587e-7
0.332, -7.006e-7, -4.416e-7, 2.590e-7
0.331, -7.031e-7, -4.431e-7, 2.599e-7
0.330, -7.046e-7, -4.434e-7, 2.612e-7
0.329, -7.052e-7, -4.434e-7, 2.618e-7
0.328, -7.104e-7, -4.471e-7, 2.633e-7
0.327, -7.067e-7, -4.453e-7, 2.615e-7
0.326, -7.116e-7, -4.486e-7, 2.630e-7
0.325, -7.132e-7, -4.495e-7, 2.636e-7
0.324, -7.125e-7, -4.495e-7, 2.630e-7
0.323, -7.138e-7, -4.511e-7, 2.627e-7
0.322, -7.168e-7, -4.526e-7, 2.642e-7
0.321, -7.190e-7, -4.544e-7, 2.645e-7
0.320, -7.196e-7, -4.550e-7, 2.645e-7
0.319, -7.223e-7, -4.566e-7, 2.657e-7
0.318, -7.232e-7, -4.569e-7, 2.664e-7
0.317, -7.244e-7, -4.587e-7, 2.657e-7
0.316, -7.263e-7, -4.596e-7, 2.667e-7
0.315, -7.278e-7, -4.605e-7, 2.673e-7
0.314, -7.299e-7, -4.630e-7, 2.670e-7
0.313, -7.315e-7, -4.630e-7, 2.685e-7
0.312, -7.342e-7, -4.663e-7, 2.679e-7
0.311, -7.327e-7, -4.642e-7, 2.685e-7
0.310, -7.348e-7, -4.660e-7, 2.688e-7
0.309, -7.373e-7, -4.682e-7, 2.691e-7
0.308, -7.391e-7, -4.694e-7, 2.697e-7
0.307, -7.391e-7, -4.694e-7, 2.697e-7
0.306, -7.412e-7, -4.706e-7, 2.706e-7
0.305, -7.437e-7, -4.721e-7, 2.715e-7
0.304, -7.458e-7, -4.734e-7, 2.725e-7
0.303, -7.464e-7, -4.743e-7, 2.721e-7
0.302, -7.486e-7, -4.764e-7, 2.721e-7
0.301, -7.492e-7, -4.773e-7, 2.718e-7
0.300, -7.513e-7, -4.776e-7, 2.737e-7
0.299, -7.550e-7, -4.801e-7, 2.749e-7
0.298, -7.550e-7, -4.810e-7, 2.740e-7
0.297, -7.550e-7, -4.816e-7, 2.734e-7
0.296, -7.574e-7, -4.816e-7, 2.758e-7
0.295, -7.592e-7, -4.843e-7, 2.749e-7
0.294, -7.614e-7, -4.849e-7, 2.764e-7
0.293, -7.629e-7, -4.862e-7, 2.767e-7
0.292, -7.644e-7, -4.871e-7, 2.773e-7
0.291, -7.653e-7, -4.877e-7, 2.776e-7
0.290, -7.675e-7, -4.895e-7, 2.779e-7
0.289, -7.687e-7, -4.907e-7, 2.779e-7
0.288, -7.714e-7, -4.923e-7, 2.792e-7
0.287, -7.727e-7, -4.941e-7, 2.786e-7
0.286, -7.721e-7, -4.935e-7, 2.786e-7
0.285, -7.763e-7, -4.956e-7, 2.807e-7
0.284, -7.775e-7, -4.965e-7, 2.810e-7
0.283, -7.812e-7, -4.993e-7, 2.819e-7
0.282, -7.797e-7, -4.987e-7, 2.810e-7
0.281, -7.806e-7, -4.996e-7, 2.810e-7
0.280, -7.852e-7, -5.023e-7, 2.828e-7
0.279, -7.843e-7, -5.023e-7, 2.819e-7
0.278, -7.870e-7, -5.039e-7, 2.831e-7
0.277, -7.891e-7, -5.042e-7, 2.850e-7
0.276, -7.907e-7, -5.063e-7, 2.844e-7
0.275, -7.922e-7, -5.072e-7, 2.850e-7
0.274, -7.928e-7, -5.084e-7, 2.844e-7
0.273, -7.952e-7, -5.097e-7, 2.856e-7
0.272, -7.974e-7, -5.103e-7, 2.871e-7
0.271, -7.977e-7, -5.115e-7, 2.862e-7
0.270, -7.992e-7, -5.130e-7, 2.862e-7
0.269, -8.010e-7, -5.139e-7, 2.871e-7
0.268, -8.041e-7, -5.152e-7, 2.889e-7
0.267, -8.050e-7, -5.158e-7, 2.892e-7
0.266, -8.087e-7, -5.185e-7, 2.902e-7
0.265, -8.090e-7, -5.188e-7, 2.902e-7
0.264, -8.093e-7, -5.194e-7, 2.898e-7
0.263, -8.117e-7, -5.210e-7, 2.908e-7
0.262, -8.136e-7, -5.219e-7, 2.917e-7
0.261, -8.145e-7, -5.234e-7, 2.911e-7
0.260, -8.175e-7, -5.240e-7, 2.935e-7
0.259, -8.193e-7, -5.255e-7, 2.938e-7
0.258, -8.187e-7, -5.264e-7, 2.923e-7
0.257, -8.215e-7, -5.280e-7, 2.935e-7
0.256, -8.248e-7, -5.301e-7, 2.947e-7
0.255, -8.267e-7, -5.310e-7, 2.956e-7
0.254, -8.273e-7, -5.304e-7, 2.969e-7
0.253, -8.273e-7, -5.310e-7, 2.963e-7
0.252, -8.291e-7, -5.335e-7, 2.956e-7
0.251, -8.331e-7, -5.350e-7, 2.981e-7
0.250, -8.337e-7, -5.356e-7, 2.981e-7
0.249, -8.355e-7, -5.374e-7, 2.981e-7
0.248, -8.367e-7, -5.387e-7, 2.981e-7
0.247, -8.370e-7, -5.384e-7, 2.987e-7
0.246, -8.398e-7, -5.405e-7, 2.993e-7
0.245, -8.422e-7, -5.414e-7, 3.008e-7
0.244, -8.413e-7, -5.408e-7, 3.005e-7
0.243, -8.438e-7, -5.435e-7, 3.002e-7
0.242, -8.474e-7, -5.445e-7, 3.030e-7
0.241, -8.477e-7, -5.451e-7, 3.027e-7
0.240, -8.486e-7, -5.460e-7, 3.027e-7
0.239, -8.514e-7, -5.475e-7, 3.039e-7
0.238, -8.511e-7, -5.478e-7, 3.033e-7
0.237, -8.554e-7, -5.493e-7, 3.060e-7
0.236, -8.560e-7, -5.506e-7, 3.054e-7
0.235, -8.575e-7, -5.515e-7, 3.060e-7
0.234, -8.581e-7, -5.533e-7, 3.048e-7
0.233, -8.602e-7, -5.530e-7, 3.072e-7
0.232, -8.612e-7, -5.542e-7, 3.069e-7
0.231, -8.630e-7, -5.551e-7, 3.079e-7
0.230, -8.660e-7, -5.573e-7, 3.088e-7
0.229, -8.673e-7, -5.582e-7, 3.091e-7
0.228, -8.679e-7, -5.582e-7, 3.097e-7
0.227, -8.694e-7, -5.594e-7, 3.100e-7
0.226, -8.691e-7, -5.591e-7, 3.100e-7
0.225, -8.734e-7, -5.618e-7, 3.115e-7
0.224, -8.758e-7, -5.631e-7, 3.127e-7
0.223, -8.755e-7, -5.628e-7, 3.127e-7
0.222, -8.767e-7, -5.640e-7, 3.127e-7
0.221, -8.789e-7, -5.643e-7, 3.146e-7
0.220, -8.795e-7, -5.658e-7, 3.137e-7
0.219, -8.813e-7, -5.667e-7, 3.146e-7
0.218, -8.828e-7, -5.670e-7, 3.158e-7
0.217, -8.843e-7, -5.676e-7, 3.167e-7
0.216, -8.859e-7, -5.698e-7, 3.161e-7
0.215, -8.880e-7, -5.704e-7, 3.176e-7
0.214, -8.880e-7, -5.695e-7, 3.185e-7
0.213, -8.905e-7, -5.719e-7, 3.185e-7
0.212, -8.926e-7, -5.725e-7, 3.201e-7
0.211, -8.932e-7, -5.737e-7, 3.194e-7
0.210, -8.941e-7, -5.737e-7, 3.204e-7
0.209, -8.962e-7, -5.753e-7, 3.210e-7
0.208, -8.953e-7, -5.744e-7, 3.210e-7
0.207, -8.990e-7, -5.774e-7, 3.216e-7
0.206, -9.008e-7, -5.771e-7, 3.237e-7
0.205, -8.999e-7, -5.771e-7, 3.228e-7
0.204, -9.033e-7, -5.786e-7, 3.246e-7
0.203, -9.057e-7, -5.802e-7, 3.256e-7
0.202, -9.039e-7, -5.802e-7, 3.237e-7
0.201, -9.045e-7, -5.805e-7, 3.240e-7
0.200, -9.088e-7, -5.811e-7, 3.277e-7
0.199, -9.088e-7, -5.820e-7, 3.268e-7
0.198, -9.091e-7, -5.820e-7, 3.271e-7
0.197, -9.118e-7, -5.835e-7, 3.283e-7
0.196, -9.115e-7, -5.838e-7, 3.277e-7
0.195, -9.133e-7, -5.850e-7, 3.283e-7
0.194, -9.149e-7, -5.857e-7, 3.292e-7
0.193, -9.155e-7, -5.860e-7, 3.295e-7
0.192, -9.173e-7, -5.872e-7, 3.301e-7
0.191, -9.182e-7, -5.869e-7, 3.313e-7
0.190, -9.191e-7, -5.884e-7, 3.307e-7
0.189, -9.213e-7, -5.896e-7, 3.317e-7
0.188, -9.240e-7, -5.890e-7, 3.350e-7
0.187, -9.249e-7, -5.902e-7, 3.347e-7
0.186, -9.265e-7, -5.918e-7, 3.347e-7
0.185, -9.249e-7, -5.905e-7, 3.344e-7
0.184, -9.271e-7, -5.914e-7, 3.356e-7
0.183, -9.283e-7, -5.914e-7, 3.368e-7
0.182, -9.283e-7, -5.921e-7, 3.362e-7
0.181, -9.307e-7, -5.939e-7, 3.368e-7
0.180, -9.307e-7, -5.933e-7, 3.375e-7
0.179, -9.332e-7, -5.945e-7, 3.387e-7
0.178, -9.335e-7, -5.948e-7, 3.387e-7
0.177, -9.338e-7, -5.948e-7, 3.390e-7
0.176, -9.338e-7, -5.948e-7, 3.390e-7
0.175, -9.356e-7, -5.951e-7, 3.405e-7
0.174, -9.387e-7, -5.979e-7, 3.408e-7
0.173, -9.381e-7, -5.960e-7, 3.420e-7
0.172, -9.390e-7, -5.972e-7, 3.417e-7
0.171, -9.387e-7, -5.972e-7, 3.414e-7
0.170, -9.384e-7, -5.960e-7, 3.423e-7
0.169, -9.402e-7, -5.976e-7, 3.426e-7
0.168, -9.432e-7, -5.991e-7, 3.442e-7
0.167, -9.426e-7, -5.985e-7, 3.442e-7
0.166, -9.445e-7, -5.991e-7, 3.454e-7
0.165, -9.466e-7, -5.997e-7, 3.469e-7
0.164, -9.442e-7, -5.979e-7, 3.463e-7
0.163, -9.457e-7, -6.003e-7, 3.454e-7
0.162, -9.463e-7, -6.003e-7, 3.460e-7
0.161, -9.484e-7, -6.003e-7, 3.481e-7
0.160, -9.475e-7, -5.997e-7, 3.478e-7
0.159, -9.500e-7, -6.009e-7, 3.490e-7
0.158, -9.500e-7, -6.006e-7, 3.494e-7
0.157, -9.497e-7, -6.006e-7, 3.490e-7
0.156, -9.515e-7, -6.012e-7, 3.503e-7
0.155, -9.512e-7, -6.006e-7, 3.506e-7
0.154, -9.518e-7, -6.012e-7, 3.506e-7
0.153, -9.524e-7, -5.997e-7, 3.527e-7
0.152, -9.518e-7, -6.006e-7, 3.512e-7
0.151, -9.548e-7, -6.024e-7, 3.524e-7
0.150, -9.548e-7, -6.027e-7, 3.521e-7
0.149, -9.536e-7, -6.000e-7, 3.536e-7
0.148, -9.545e-7, -6.024e-7, 3.521e-7
0.147, -9.564e-7, -6.012e-7, 3.552e-7
0.146, -9.558e-7, -6.018e-7, 3.539e-7
0.145, -9.564e-7, -6.012e-7, 3.552e-7
0.144, -9.579e-7, -6.027e-7, 3.552e-7
0.143, -9.576e-7, -6.015e-7, 3.561e-7
0.142, -9.573e-7, -6.018e-7, 3.555e-7
0.141, -9.582e-7, -6.012e-7, 3.570e-7
0.140, -9.576e-7, -6.012e-7, 3.564e-7
0.139, -9.582e-7, -6.015e-7, 3.567e-7
0.138, -9.594e-7, -6.009e-7, 3.585e-7
0.137, -9.597e-7, -6.012e-7, 3.585e-7
0.136, -9.594e-7, -6.021e-7, 3.573e-7
0.135, -9.606e-7, -6.000e-7, 3.606e-7
0.134, -9.603e-7, -6.009e-7, 3.594e-7
0.133, -9.588e-7, -6.009e-7, 3.579e-7
0.132, -9.634e-7, -6.009e-7, 3.625e-7
0.131, -9.603e-7, -6.000e-7, 3.603e-7
0.130, -9.625e-7, -6.015e-7, 3.609e-7
0.129, -9.625e-7, -6.006e-7, 3.619e-7
0.128, -9.612e-7, -5.988e-7, 3.625e-7
0.127, -9.619e-7, -6.000e-7, 3.619e-7
0.126, -9.625e-7, -5.994e-7, 3.631e-7
0.125, -9.622e-7, -5.988e-7, 3.634e-7
0.124, -9.619e-7, -5.988e-7, 3.631e-7
0.123, -9.640e-7, -5.991e-7, 3.649e-7
0.122, -9.600e-7, -5.966e-7, 3.634e-7
0.121, -9.600e-7, -5.985e-7, 3.616e-7
0.120, -9.622e-7, -5.963e-7, 3.658e-7
0.119, -9.612e-7, -5.963e-7, 3.649e-7
0.118, -9.612e-7, -5.972e-7, 3.640e-7
0.117, -9.628e-7, -5.963e-7, 3.664e-7
0.116, -9.609e-7, -5.945e-7, 3.664e-7
0.115, -9.616e-7, -5.963e-7, 3.652e-7
0.114, -9.597e-7, -5.945e-7, 3.652e-7
0.113, -9.597e-7, -5.945e-7, 3.652e-7
0.112, -9.600e-7, -5.945e-7, 3.655e-7
0.111, -9.628e-7, -5.948e-7, 3.680e-7
0.110, -9.603e-7, -5.933e-7, 3.671e-7
0.109, -9.597e-7, -5.939e-7, 3.658e-7
0.108, -9.612e-7, -5.933e-7, 3.680e-7
0.107, -9.579e-7, -5.902e-7, 3.677e-7
0.106, -9.594e-7, -5.924e-7, 3.671e-7
0.105, -9.603e-7, -5.905e-7, 3.698e-7
0.104, -9.576e-7, -5.899e-7, 3.677e-7
0.103, -9.585e-7, -5.908e-7, 3.677e-7
0.102, -9.597e-7, -5.899e-7, 3.698e-7
0.101, -9.573e-7, -5.878e-7, 3.695e-7
0.100, -9.570e-7, -5.893e-7, 3.677e-7
0.099, -9.582e-7, -5.869e-7, 3.713e-7
0.098, -9.555e-7, -5.866e-7, 3.689e-7
0.097, -9.551e-7, -5.878e-7, 3.674e-7
0.096, -9.558e-7, -5.857e-7, 3.701e-7
0.095, -9.545e-7, -5.850e-7, 3.695e-7
0.094, -9.542e-7, -5.853e-7, 3.689e-7
0.093, -9.554e-7, -5.838e-7, 3.716e-7
0.092, -9.536e-7, -5.838e-7, 3.698e-7
0.091, -9.527e-7, -5.832e-7, 3.695e-7
0.090, -9.536e-7, -5.832e-7, 3.704e-7
0.089, -9.512e-7, -5.814e-7, 3.698e-7
0.088, -9.509e-7, -5.823e-7, 3.686e-7
0.087, -9.524e-7, -5.805e-7, 3.719e-7
0.086, -9.487e-7, -5.789e-7, 3.698e-7
0.085, -9.484e-7, -5.789e-7, 3.695e-7
0.084, -9.493e-7, -5.783e-7, 3.710e-7
0.083, -9.466e-7, -5.768e-7, 3.698e-7
0.082, -9.463e-7, -5.768e-7, 3.695e-7
0.081, -9.463e-7, -5.759e-7, 3.704e-7
0.080, -9.454e-7, -5.753e-7, 3.701e-7
0.079, -9.454e-7, -5.762e-7, 3.692e-7
0.078, -9.435e-7, -5.731e-7, 3.704e-7
0.077, -9.414e-7, -5.725e-7, 3.689e-7
0.076, -9.423e-7, -5.725e-7, 3.698e-7
0.075, -9.420e-7, -5.719e-7, 3.701e-7
0.074, -9.396e-7, -5.704e-7, 3.692e-7
0.073, -9.393e-7, -5.704e-7, 3.689e-7
0.072, -9.396e-7, -5.695e-7, 3.701e-7
0.071, -9.359e-7, -5.667e-7, 3.692e-7
0.070, -9.344e-7, -5.661e-7, 3.683e-7
0.069, -9.371e-7, -5.664e-7, 3.707e-7
0.068, -9.344e-7, -5.649e-7, 3.695e-7
0.067, -9.341e-7, -5.658e-7, 3.683e-7
0.066, -9.320e-7, -5.634e-7, 3.686e-7
0.065, -9.323e-7, -5.631e-7, 3.692e-7
0.064, -9.316e-7, -5.634e-7, 3.683e-7
0.063, -9.304e-7, -5.619e-7, 3.686e-7
0.062, -9.283e-7, -5.600e-7, 3.683e-7
0.061, -9.283e-7, -5.600e-7, 3.683e-7
0.060, -9.262e-7, -5.585e-7, 3.677e-7
0.059, -9.252e-7, -5.573e-7, 3.680e-7
0.058, -9.246e-7, -5.576e-7, 3.671e-7
0.057, -9.234e-7, -5.554e-7, 3.680e-7
0.056, -9.219e-7, -5.551e-7, 3.667e-7
0.055, -9.210e-7, -5.548e-7, 3.661e-7
0.054, -9.219e-7, -5.530e-7, 3.689e-7
0.053, -9.191e-7, -5.524e-7, 3.667e-7
0.052, -9.182e-7, -5.521e-7, 3.661e-7
0.051, -9.173e-7, -5.512e-7, 3.661e-7
0.050, -9.139e-7, -5.499e-7, 3.640e-7
0.049, -9.149e-7, -5.506e-7, 3.643e-7
0.048, -9.146e-7, -5.481e-7, 3.664e-7
0.047, -9.115e-7, -5.472e-7, 3.643e-7
0.046, -9.118e-7, -5.475e-7, 3.643e-7
0.045, -9.097e-7, -5.451e-7, 3.646e-7
0.044, -9.091e-7, -5.454e-7, 3.637e-7
0.043, -9.066e-7, -5.445e-7, 3.622e-7
0.042, -9.082e-7, -5.432e-7, 3.649e-7
0.041, -9.051e-7, -5.420e-7, 3.631e-7
0.040, -9.051e-7, -5.423e-7, 3.628e-7
0.039, -9.045e-7, -5.411e-7, 3.634e-7
0.038, -9.024e-7, -5.396e-7, 3.628e-7
0.037, -9.027e-7, -5.405e-7, 3.622e-7
0.036, -9.002e-7, -5.377e-7, 3.625e-7
0.035, -8.975e-7, -5.371e-7, 3.603e-7
0.034, -8.972e-7, -5.362e-7, 3.609e-7
0.033, -8.972e-7, -5.359e-7, 3.613e-7
0.032, -8.932e-7, -5.344e-7, 3.588e-7
0.031, -8.926e-7, -5.335e-7, 3.591e-7
0.030, -8.926e-7, -5.326e-7, 3.600e-7
0.029, -8.905e-7, -5.323e-7, 3.582e-7
0.028, -8.901e-7, -5.323e-7, 3.579e-7
0.027, -8.889e-7, -5.304e-7, 3.585e-7
0.026, -8.865e-7, -5.286e-7, 3.579e-7
0.025, -8.868e-7, -5.292e-7, 3.576e-7
0.024, -8.856e-7, -5.283e-7, 3.573e-7
0.023, -8.834e-7, -5.274e-7, 3.561e-7
0.022, -8.840e-7, -5.274e-7, 3.567e-7
0.021, -8.813e-7, -5.243e-7, 3.570e-7
0.020, -8.773e-7, -5.231e-7, 3.542e-7
0.019, -8.782e-7, -5.231e-7, 3.551e-7
0.018, -8.773e-7, -5.225e-7, 3.548e-7
0.017, -8.746e-7, -5.219e-7, 3.527e-7
0.016, -8.761e-7, -5.222e-7, 3.539e-7
0.015, -8.761e-7, -5.216e-7, 3.545e-7
0.014, -8.724e-7, -5.197e-7, 3.527e-7
0.013, -8.724e-7, -5.207e-7, 3.518e-7
0.012, -8.721e-7, -5.194e-7, 3.527e-7
0.011, -8.700e-7, -5.179e-7, 3.521e-7
0.010, -8.688e-7, -5.176e-7, 3.512e-7
0.009, -8.685e-7, -5.173e-7, 3.512e-7
0.008, -8.660e-7, -5.152e-7, 3.509e-7
0.007, -8.657e-7, -5.155e-7, 3.503e-7
0.006, -8.639e-7, -5.139e-7, 3.500e-7
0.005, -8.630e-7, -5.136e-7, 3.494e-7
0.004, -8.612e-7, -5.130e-7, 3.481e-7
0.003, -8.609e-7, -5.118e-7, 3.490e-7
0.002, -8.590e-7, -5.118e-7, 3.472e-7
0.001, -8.584e-7, -5.106e-7, 3.478e-7
-0.000, -8.581e-7, -5.112e-7, 3.469e-7
-0.001, -8.575e-7, -5.121e-7, 3.454e-7
-0.002, -8.538e-7, -5.094e-7, 3.445e-7
-0.003, -8.551e-7, -5.078e-7, 3.472e-7
-0.004, -8.508e-7, -5.072e-7, 3.436e-7
-0.005, -8.511e-7, -5.066e-7, 3.445e-7
-0.006, -8.490e-7, -5.057e-7, 3.432e-7
-0.007, -8.483e-7, -5.048e-7, 3.436e-7
-0.008, -8.490e-7, -5.054e-7, 3.436e-7
-0.009, -8.465e-7, -5.036e-7, 3.429e-7
-0.010, -8.444e-7, -5.036e-7, 3.408e-7
-0.011, -8.450e-7, -5.033e-7, 3.417e-7
-0.012, -8.438e-7, -5.020e-7, 3.417e-7
-0.013, -8.438e-7, -5.023e-7, 3.414e-7
-0.014, -8.419e-7, -5.020e-7, 3.399e-7
-0.015, -8.413e-7, -5.005e-7, 3.408e-7
-0.016, -8.407e-7, -5.002e-7, 3.405e-7
-0.017, -8.398e-7, -4.996e-7, 3.402e-7
-0.018, -8.383e-7, -4.993e-7, 3.390e-7
-0.019, -8.358e-7, -4.978e-7, 3.381e-7
-0.020, -8.364e-7, -4.984e-7, 3.381e-7
-0.021, -8.367e-7, -4.990e-7, 3.378e-7
-0.022, -8.337e-7, -4.969e-7, 3.368e-7
-0.023, -8.328e-7, -4.959e-7, 3.368e-7
-0.024, -8.313e-7, -4.953e-7, 3.359e-7
-0.025, -8.303e-7, -4.953e-7, 3.350e-7
-0.026, -8.294e-7, -4.950e-7, 3.344e-7
-0.027, -8.297e-7, -4.947e-7, 3.350e-7
-0.028, -8.276e-7, -4.938e-7, 3.338e-7
-0.029, -8.270e-7, -4.932e-7, 3.338e-7
-0.030, -8.255e-7, -4.920e-7, 3.335e-7
-0.031, -8.239e-7, -4.926e-7, 3.313e-7
-0.032, -8.255e-7, -4.917e-7, 3.338e-7
-0.033, -8.239e-7, -4.917e-7, 3.323e-7
-0.034, -8.221e-7, -4.911e-7, 3.310e-7
-0.035, -8.224e-7, -4.917e-7, 3.307e-7
-0.036, -8.212e-7, -4.904e-7, 3.307e-7
-0.037, -8.212e-7, -4.907e-7, 3.304e-7
-0.038, -8.197e-7, -4.898e-7, 3.298e-7
-0.039, -8.175e-7, -4.895e-7, 3.280e-7
-0.040, -8.187e-7, -4.895e-7, 3.292e-7
-0.041, -8.178e-7, -4.892e-7, 3.286e-7
-0.042, -8.163e-7, -4.886e-7, 3.277e-7
-0.043, -8.166e-7, -4.892e-7, 3.274e-7
-0.044, -8.145e-7, -4.877e-7, 3.268e-7
-0.045, -8.151e-7, -4.874e-7, 3.277e-7
-0.046, -8.142e-7, -4.886e-7, 3.255e-7
-0.047, -8.142e-7, -4.874e-7, 3.268e-7
-0.048, -8.120e-7, -4.871e-7, 3.249e-7
-0.049, -8.114e-7, -4.862e-7, 3.252e-7
-0.050, -8.108e-7, -4.871e-7, 3.237e-7
