Feb. 28, 2018   11:47:33
Square Wave Voltammetry
File: c:\users\electrochemist\desktop\2018\28022018_unbuffered_9,2\22_e2_9,2_0118_ph6,29_1.txt
Data Source:  Experiment
Instrument Model:  CHI1040A
Header: 
Note: 

Init E (V) = 0.5
Final E (V) = -0.05
Incr E (V) = 0.001
Amplitude (V) = 0.1
Frequency (Hz) = 150
Quiet Time (sec) = 0
Sensitivity (A/V) = 1e-6

Difference:

Forward:

Reverse:

Potential/V, Diff(i/A), For(i/A), Rev(i/A)

0.499, -5.575e-7, -1.270e-7, 4.305e-7
0.498, -6.549e-7, -2.893e-7, 3.655e-7
0.497, -6.408e-7, -3.003e-7, 3.405e-7
0.496, -6.329e-7, -3.055e-7, 3.274e-7
0.495, -6.213e-7, -3.080e-7, 3.133e-7
0.494, -6.161e-7, -3.116e-7, 3.045e-7
0.493, -6.128e-7, -3.122e-7, 3.005e-7
0.492, -6.073e-7, -3.125e-7, 2.947e-7
0.491, -6.036e-7, -3.144e-7, 2.892e-7
0.490, -6.018e-7, -3.162e-7, 2.856e-7
0.489, -5.960e-7, -3.156e-7, 2.804e-7
0.488, -5.954e-7, -3.183e-7, 2.770e-7
0.487, -5.975e-7, -3.208e-7, 2.767e-7
0.486, -5.944e-7, -3.192e-7, 2.752e-7
0.485, -5.899e-7, -3.196e-7, 2.703e-7
0.484, -5.911e-7, -3.217e-7, 2.694e-7
0.483, -5.877e-7, -3.192e-7, 2.685e-7
0.482, -5.853e-7, -3.205e-7, 2.648e-7
0.481, -5.880e-7, -3.226e-7, 2.654e-7
0.480, -5.871e-7, -3.220e-7, 2.651e-7
0.479, -5.850e-7, -3.235e-7, 2.615e-7
0.478, -5.850e-7, -3.241e-7, 2.609e-7
0.477, -5.832e-7, -3.232e-7, 2.599e-7
0.476, -5.838e-7, -3.263e-7, 2.575e-7
0.475, -5.825e-7, -3.250e-7, 2.575e-7
0.474, -5.819e-7, -3.250e-7, 2.569e-7
0.473, -5.832e-7, -3.275e-7, 2.557e-7
0.472, -5.835e-7, -3.278e-7, 2.557e-7
0.471, -5.798e-7, -3.263e-7, 2.535e-7
0.470, -5.816e-7, -3.287e-7, 2.529e-7
0.469, -5.825e-7, -3.284e-7, 2.541e-7
0.468, -5.822e-7, -3.299e-7, 2.523e-7
0.467, -5.822e-7, -3.308e-7, 2.514e-7
0.466, -5.835e-7, -3.311e-7, 2.523e-7
0.465, -5.807e-7, -3.305e-7, 2.502e-7
0.464, -5.807e-7, -3.324e-7, 2.483e-7
0.463, -5.844e-7, -3.327e-7, 2.517e-7
0.462, -5.813e-7, -3.324e-7, 2.490e-7
0.461, -5.816e-7, -3.339e-7, 2.477e-7
0.460, -5.819e-7, -3.330e-7, 2.490e-7
0.459, -5.822e-7, -3.339e-7, 2.483e-7
0.458, -5.844e-7, -3.363e-7, 2.480e-7
0.457, -5.850e-7, -3.363e-7, 2.487e-7
0.456, -5.850e-7, -3.363e-7, 2.487e-7
0.455, -5.838e-7, -3.373e-7, 2.465e-7
0.454, -5.865e-7, -3.379e-7, 2.487e-7
0.453, -5.841e-7, -3.379e-7, 2.462e-7
0.452, -5.825e-7, -3.391e-7, 2.435e-7
0.451, -5.874e-7, -3.400e-7, 2.474e-7
0.450, -5.856e-7, -3.388e-7, 2.468e-7
0.449, -5.856e-7, -3.409e-7, 2.447e-7
0.448, -5.862e-7, -3.406e-7, 2.456e-7
0.447, -5.871e-7, -3.421e-7, 2.450e-7
0.446, -5.862e-7, -3.418e-7, 2.444e-7
0.445, -5.877e-7, -3.427e-7, 2.450e-7
0.444, -5.890e-7, -3.434e-7, 2.456e-7
0.443, -5.877e-7, -3.443e-7, 2.435e-7
0.442, -5.908e-7, -3.440e-7, 2.468e-7
0.441, -5.890e-7, -3.446e-7, 2.444e-7
0.440, -5.893e-7, -3.461e-7, 2.432e-7
0.439, -5.914e-7, -3.461e-7, 2.453e-7
0.438, -5.880e-7, -3.455e-7, 2.426e-7
0.437, -5.923e-7, -3.495e-7, 2.429e-7
0.436, -5.920e-7, -3.482e-7, 2.438e-7
0.435, -5.908e-7, -3.470e-7, 2.438e-7
0.434, -5.948e-7, -3.516e-7, 2.432e-7
0.433, -5.935e-7, -3.501e-7, 2.435e-7
0.432, -5.920e-7, -3.501e-7, 2.419e-7
0.431, -5.954e-7, -3.531e-7, 2.422e-7
0.430, -5.972e-7, -3.522e-7, 2.450e-7
0.429, -5.938e-7, -3.510e-7, 2.429e-7
0.428, -5.987e-7, -3.553e-7, 2.435e-7
0.427, -5.993e-7, -3.553e-7, 2.441e-7
0.426, -5.972e-7, -3.540e-7, 2.432e-7
0.425, -5.993e-7, -3.568e-7, 2.426e-7
0.424, -6.009e-7, -3.559e-7, 2.450e-7
0.423, -6.012e-7, -3.571e-7, 2.441e-7
0.422, -6.027e-7, -3.589e-7, 2.438e-7
0.421, -6.039e-7, -3.589e-7, 2.450e-7
0.420, -6.033e-7, -3.592e-7, 2.441e-7
0.419, -6.036e-7, -3.611e-7, 2.426e-7
0.418, -6.042e-7, -3.604e-7, 2.438e-7
0.417, -6.048e-7, -3.617e-7, 2.432e-7
0.416, -6.076e-7, -3.629e-7, 2.447e-7
0.415, -6.076e-7, -3.632e-7, 2.444e-7
0.414, -6.063e-7, -3.635e-7, 2.429e-7
0.413, -6.076e-7, -3.647e-7, 2.429e-7
0.412, -6.100e-7, -3.653e-7, 2.447e-7
0.411, -6.109e-7, -3.653e-7, 2.456e-7
0.410, -6.106e-7, -3.681e-7, 2.426e-7
0.409, -6.140e-7, -3.678e-7, 2.462e-7
0.408, -6.134e-7, -3.687e-7, 2.447e-7
0.407, -6.146e-7, -3.711e-7, 2.435e-7
0.406, -6.146e-7, -3.696e-7, 2.450e-7
0.405, -6.146e-7, -3.702e-7, 2.444e-7
0.404, -6.149e-7, -3.708e-7, 2.441e-7
0.403, -6.201e-7, -3.730e-7, 2.471e-7
0.402, -6.198e-7, -3.736e-7, 2.462e-7
0.401, -6.204e-7, -3.754e-7, 2.450e-7
0.400, -6.219e-7, -3.754e-7, 2.465e-7
0.399, -6.213e-7, -3.760e-7, 2.453e-7
0.398, -6.222e-7, -3.769e-7, 2.453e-7
0.397, -6.250e-7, -3.781e-7, 2.468e-7
0.396, -6.231e-7, -3.781e-7, 2.450e-7
0.395, -6.250e-7, -3.791e-7, 2.459e-7
0.394, -6.280e-7, -3.803e-7, 2.477e-7
0.393, -6.259e-7, -3.803e-7, 2.456e-7
0.392, -6.289e-7, -3.833e-7, 2.456e-7
0.391, -6.295e-7, -3.830e-7, 2.465e-7
0.390, -6.298e-7, -3.833e-7, 2.465e-7
0.389, -6.314e-7, -3.852e-7, 2.462e-7
0.388, -6.344e-7, -3.861e-7, 2.483e-7
0.387, -6.344e-7, -3.867e-7, 2.477e-7
0.386, -6.332e-7, -3.870e-7, 2.462e-7
0.385, -6.356e-7, -3.873e-7, 2.483e-7
0.384, -6.372e-7, -3.885e-7, 2.487e-7
0.383, -6.387e-7, -3.910e-7, 2.477e-7
0.382, -6.399e-7, -3.907e-7, 2.493e-7
0.381, -6.396e-7, -3.919e-7, 2.477e-7
0.380, -6.417e-7, -3.928e-7, 2.490e-7
0.379, -6.436e-7, -3.940e-7, 2.496e-7
0.378, -6.445e-7, -3.943e-7, 2.502e-7
0.377, -6.451e-7, -3.958e-7, 2.493e-7
0.376, -6.469e-7, -3.961e-7, 2.508e-7
0.375, -6.482e-7, -3.977e-7, 2.505e-7
0.374, -6.460e-7, -3.971e-7, 2.490e-7
0.373, -6.494e-7, -3.989e-7, 2.505e-7
0.372, -6.488e-7, -3.989e-7, 2.499e-7
0.371, -6.536e-7, -4.022e-7, 2.514e-7
0.370, -6.540e-7, -4.016e-7, 2.523e-7
0.369, -6.524e-7, -4.019e-7, 2.505e-7
0.368, -6.567e-7, -4.047e-7, 2.520e-7
0.367, -6.546e-7, -4.044e-7, 2.502e-7
0.366, -6.573e-7, -4.053e-7, 2.520e-7
0.365, -6.585e-7, -4.077e-7, 2.508e-7
0.364, -6.613e-7, -4.071e-7, 2.541e-7
0.363, -6.616e-7, -4.087e-7, 2.529e-7
0.362, -6.637e-7, -4.099e-7, 2.538e-7
0.361, -6.640e-7, -4.105e-7, 2.535e-7
0.360, -6.652e-7, -4.114e-7, 2.538e-7
0.359, -6.668e-7, -4.129e-7, 2.538e-7
0.358, -6.680e-7, -4.135e-7, 2.545e-7
0.357, -6.701e-7, -4.157e-7, 2.545e-7
0.356, -6.710e-7, -4.154e-7, 2.557e-7
0.355, -6.710e-7, -4.160e-7, 2.551e-7
0.354, -6.723e-7, -4.172e-7, 2.551e-7
0.353, -6.756e-7, -4.196e-7, 2.560e-7
0.352, -6.747e-7, -4.184e-7, 2.563e-7
0.351, -6.771e-7, -4.212e-7, 2.560e-7
0.350, -6.784e-7, -4.227e-7, 2.557e-7
0.349, -6.799e-7, -4.224e-7, 2.575e-7
0.348, -6.814e-7, -4.248e-7, 2.566e-7
0.347, -6.829e-7, -4.254e-7, 2.575e-7
0.346, -6.839e-7, -4.254e-7, 2.584e-7
0.345, -6.820e-7, -4.261e-7, 2.560e-7
0.344, -6.848e-7, -4.276e-7, 2.572e-7
0.343, -6.881e-7, -4.297e-7, 2.584e-7
0.342, -6.897e-7, -4.300e-7, 2.596e-7
0.341, -6.878e-7, -4.303e-7, 2.575e-7
0.340, -6.930e-7, -4.312e-7, 2.618e-7
0.339, -6.942e-7, -4.343e-7, 2.599e-7
0.338, -6.961e-7, -4.358e-7, 2.602e-7
0.337, -6.964e-7, -4.355e-7, 2.609e-7
0.336, -6.979e-7, -4.361e-7, 2.618e-7
0.335, -6.991e-7, -4.380e-7, 2.612e-7
0.334, -7.013e-7, -4.386e-7, 2.627e-7
0.333, -7.013e-7, -4.392e-7, 2.621e-7
0.332, -7.055e-7, -4.422e-7, 2.633e-7
0.331, -7.058e-7, -4.419e-7, 2.639e-7
0.330, -7.067e-7, -4.444e-7, 2.624e-7
0.329, -7.101e-7, -4.459e-7, 2.642e-7
0.328, -7.098e-7, -4.453e-7, 2.645e-7
0.327, -7.107e-7, -4.471e-7, 2.636e-7
0.326, -7.119e-7, -4.477e-7, 2.642e-7
0.325, -7.141e-7, -4.486e-7, 2.654e-7
0.324, -7.174e-7, -4.517e-7, 2.657e-7
0.323, -7.156e-7, -4.511e-7, 2.645e-7
0.322, -7.186e-7, -4.514e-7, 2.673e-7
0.321, -7.208e-7, -4.544e-7, 2.664e-7
0.320, -7.214e-7, -4.541e-7, 2.673e-7
0.319, -7.238e-7, -4.550e-7, 2.688e-7
0.318, -7.244e-7, -4.566e-7, 2.679e-7
0.317, -7.254e-7, -4.581e-7, 2.673e-7
0.316, -7.287e-7, -4.596e-7, 2.691e-7
0.315, -7.290e-7, -4.605e-7, 2.685e-7
0.314, -7.315e-7, -4.621e-7, 2.694e-7
0.313, -7.321e-7, -4.618e-7, 2.703e-7
0.312, -7.342e-7, -4.648e-7, 2.694e-7
0.311, -7.360e-7, -4.642e-7, 2.718e-7
0.310, -7.370e-7, -4.654e-7, 2.715e-7
0.309, -7.397e-7, -4.682e-7, 2.715e-7
0.308, -7.406e-7, -4.691e-7, 2.715e-7
0.307, -7.403e-7, -4.694e-7, 2.709e-7
0.306, -7.428e-7, -4.700e-7, 2.728e-7
0.305, -7.443e-7, -4.715e-7, 2.728e-7
0.304, -7.467e-7, -4.730e-7, 2.737e-7
0.303, -7.473e-7, -4.730e-7, 2.743e-7
0.302, -7.507e-7, -4.758e-7, 2.749e-7
0.301, -7.519e-7, -4.770e-7, 2.749e-7
0.300, -7.528e-7, -4.773e-7, 2.755e-7
0.299, -7.556e-7, -4.788e-7, 2.767e-7
0.298, -7.556e-7, -4.801e-7, 2.755e-7
0.297, -7.574e-7, -4.813e-7, 2.761e-7
0.296, -7.595e-7, -4.822e-7, 2.773e-7
0.295, -7.598e-7, -4.828e-7, 2.770e-7
0.294, -7.632e-7, -4.849e-7, 2.783e-7
0.293, -7.638e-7, -4.859e-7, 2.779e-7
0.292, -7.647e-7, -4.862e-7, 2.786e-7
0.291, -7.669e-7, -4.874e-7, 2.795e-7
0.290, -7.702e-7, -4.898e-7, 2.804e-7
0.289, -7.696e-7, -4.892e-7, 2.804e-7
0.288, -7.730e-7, -4.917e-7, 2.813e-7
0.287, -7.736e-7, -4.926e-7, 2.810e-7
0.286, -7.763e-7, -4.950e-7, 2.813e-7
0.285, -7.782e-7, -4.953e-7, 2.828e-7
0.284, -7.806e-7, -4.968e-7, 2.837e-7
0.283, -7.812e-7, -4.984e-7, 2.828e-7
0.282, -7.824e-7, -4.987e-7, 2.837e-7
0.281, -7.833e-7, -4.996e-7, 2.837e-7
0.280, -7.861e-7, -5.020e-7, 2.841e-7
0.279, -7.876e-7, -5.023e-7, 2.853e-7
0.278, -7.882e-7, -5.033e-7, 2.850e-7
0.277, -7.904e-7, -5.042e-7, 2.862e-7
0.276, -7.913e-7, -5.057e-7, 2.856e-7
0.275, -7.946e-7, -5.078e-7, 2.868e-7
0.274, -7.959e-7, -5.078e-7, 2.880e-7
0.273, -7.989e-7, -5.103e-7, 2.886e-7
0.272, -7.983e-7, -5.097e-7, 2.886e-7
0.271, -7.998e-7, -5.109e-7, 2.889e-7
0.270, -8.013e-7, -5.133e-7, 2.880e-7
0.269, -8.047e-7, -5.142e-7, 2.905e-7
0.268, -8.050e-7, -5.145e-7, 2.905e-7
0.267, -8.062e-7, -5.161e-7, 2.902e-7
0.266, -8.078e-7, -5.158e-7, 2.920e-7
0.265, -8.090e-7, -5.173e-7, 2.917e-7
0.264, -8.111e-7, -5.194e-7, 2.917e-7
0.263, -8.136e-7, -5.203e-7, 2.932e-7
0.262, -8.154e-7, -5.216e-7, 2.938e-7
0.261, -8.151e-7, -5.225e-7, 2.926e-7
0.260, -8.197e-7, -5.240e-7, 2.956e-7
0.259, -8.184e-7, -5.249e-7, 2.935e-7
0.258, -8.218e-7, -5.258e-7, 2.960e-7
0.257, -8.221e-7, -5.255e-7, 2.966e-7
0.256, -8.236e-7, -5.271e-7, 2.966e-7
0.255, -8.279e-7, -5.298e-7, 2.981e-7
0.254, -8.285e-7, -5.304e-7, 2.981e-7
0.253, -8.267e-7, -5.301e-7, 2.966e-7
0.252, -8.331e-7, -5.338e-7, 2.993e-7
0.251, -8.334e-7, -5.335e-7, 2.999e-7
0.250, -8.334e-7, -5.347e-7, 2.987e-7
0.249, -8.346e-7, -5.359e-7, 2.987e-7
0.248, -8.364e-7, -5.368e-7, 2.996e-7
0.247, -8.367e-7, -5.368e-7, 2.999e-7
0.246, -8.398e-7, -5.384e-7, 3.014e-7
0.245, -8.413e-7, -5.393e-7, 3.021e-7
0.244, -8.422e-7, -5.399e-7, 3.024e-7
0.243, -8.438e-7, -5.408e-7, 3.030e-7
0.242, -8.456e-7, -5.420e-7, 3.036e-7
0.241, -8.468e-7, -5.435e-7, 3.033e-7
0.240, -8.496e-7, -5.445e-7, 3.051e-7
0.239, -8.511e-7, -5.451e-7, 3.060e-7
0.238, -8.529e-7, -5.475e-7, 3.054e-7
0.237, -8.538e-7, -5.466e-7, 3.072e-7
0.236, -8.563e-7, -5.487e-7, 3.075e-7
0.235, -8.554e-7, -5.484e-7, 3.069e-7
0.234, -8.584e-7, -5.509e-7, 3.075e-7
0.233, -8.605e-7, -5.506e-7, 3.100e-7
0.232, -8.612e-7, -5.512e-7, 3.100e-7
0.231, -8.639e-7, -5.536e-7, 3.103e-7
0.230, -8.645e-7, -5.542e-7, 3.103e-7
0.229, -8.657e-7, -5.551e-7, 3.106e-7
0.228, -8.679e-7, -5.564e-7, 3.115e-7
0.227, -8.685e-7, -5.564e-7, 3.121e-7
0.226, -8.724e-7, -5.594e-7, 3.130e-7
0.225, -8.737e-7, -5.594e-7, 3.143e-7
0.224, -8.731e-7, -5.591e-7, 3.140e-7
0.223, -8.728e-7, -5.597e-7, 3.130e-7
0.222, -8.786e-7, -5.625e-7, 3.161e-7
0.221, -8.782e-7, -5.615e-7, 3.167e-7
0.220, -8.782e-7, -5.628e-7, 3.155e-7
0.219, -8.801e-7, -5.643e-7, 3.158e-7
0.218, -8.819e-7, -5.646e-7, 3.173e-7
0.217, -8.837e-7, -5.652e-7, 3.185e-7
0.216, -8.856e-7, -5.670e-7, 3.185e-7
0.215, -8.859e-7, -5.661e-7, 3.198e-7
0.214, -8.871e-7, -5.676e-7, 3.194e-7
0.213, -8.895e-7, -5.689e-7, 3.207e-7
0.212, -8.889e-7, -5.686e-7, 3.204e-7
0.211, -8.901e-7, -5.704e-7, 3.198e-7
0.210, -8.935e-7, -5.716e-7, 3.219e-7
0.209, -8.932e-7, -5.710e-7, 3.222e-7
0.208, -8.947e-7, -5.722e-7, 3.225e-7
0.207, -8.975e-7, -5.734e-7, 3.240e-7
0.206, -8.975e-7, -5.741e-7, 3.234e-7
0.205, -8.981e-7, -5.741e-7, 3.240e-7
0.204, -9.005e-7, -5.756e-7, 3.249e-7
0.203, -9.017e-7, -5.759e-7, 3.259e-7
0.202, -9.008e-7, -5.753e-7, 3.256e-7
0.201, -9.054e-7, -5.780e-7, 3.274e-7
0.200, -9.042e-7, -5.765e-7, 3.277e-7
0.199, -9.057e-7, -5.789e-7, 3.268e-7
0.198, -9.097e-7, -5.799e-7, 3.298e-7
0.197, -9.085e-7, -5.795e-7, 3.289e-7
0.196, -9.082e-7, -5.795e-7, 3.286e-7
0.195, -9.100e-7, -5.808e-7, 3.292e-7
0.194, -9.112e-7, -5.805e-7, 3.307e-7
0.193, -9.118e-7, -5.823e-7, 3.295e-7
0.192, -9.124e-7, -5.811e-7, 3.313e-7
0.191, -9.146e-7, -5.823e-7, 3.323e-7
0.190, -9.170e-7, -5.844e-7, 3.326e-7
0.189, -9.167e-7, -5.832e-7, 3.335e-7
0.188, -9.173e-7, -5.841e-7, 3.332e-7
0.187, -9.182e-7, -5.847e-7, 3.335e-7
0.186, -9.210e-7, -5.857e-7, 3.353e-7
0.185, -9.204e-7, -5.844e-7, 3.359e-7
0.184, -9.240e-7, -5.881e-7, 3.359e-7
0.183, -9.231e-7, -5.881e-7, 3.350e-7
0.182, -9.228e-7, -5.866e-7, 3.362e-7
0.181, -9.237e-7, -5.872e-7, 3.365e-7
0.180, -9.240e-7, -5.863e-7, 3.378e-7
0.179, -9.262e-7, -5.887e-7, 3.375e-7
0.178, -9.268e-7, -5.893e-7, 3.375e-7
0.177, -9.301e-7, -5.893e-7, 3.408e-7
0.176, -9.286e-7, -5.893e-7, 3.393e-7
0.175, -9.295e-7, -5.896e-7, 3.399e-7
0.174, -9.310e-7, -5.908e-7, 3.402e-7
0.173, -9.307e-7, -5.896e-7, 3.411e-7
0.172, -9.326e-7, -5.911e-7, 3.414e-7
0.171, -9.332e-7, -5.911e-7, 3.420e-7
0.170, -9.347e-7, -5.914e-7, 3.432e-7
0.169, -9.365e-7, -5.924e-7, 3.442e-7
0.168, -9.353e-7, -5.918e-7, 3.436e-7
0.167, -9.374e-7, -5.930e-7, 3.445e-7
0.166, -9.378e-7, -5.936e-7, 3.442e-7
0.165, -9.387e-7, -5.930e-7, 3.457e-7
0.164, -9.374e-7, -5.930e-7, 3.445e-7
0.163, -9.408e-7, -5.933e-7, 3.475e-7
0.162, -9.408e-7, -5.936e-7, 3.472e-7
0.161, -9.384e-7, -5.939e-7, 3.445e-7
0.160, -9.405e-7, -5.942e-7, 3.463e-7
0.159, -9.426e-7, -5.939e-7, 3.487e-7
0.158, -9.414e-7, -5.939e-7, 3.475e-7
0.157, -9.417e-7, -5.936e-7, 3.481e-7
0.156, -9.393e-7, -5.933e-7, 3.460e-7
0.155, -9.429e-7, -5.939e-7, 3.490e-7
0.154, -9.439e-7, -5.939e-7, 3.500e-7
0.153, -9.445e-7, -5.936e-7, 3.509e-7
0.152, -9.439e-7, -5.945e-7, 3.494e-7
0.151, -9.463e-7, -5.954e-7, 3.509e-7
0.150, -9.463e-7, -5.942e-7, 3.521e-7
0.149, -9.454e-7, -5.942e-7, 3.512e-7
0.148, -9.469e-7, -5.945e-7, 3.524e-7
0.147, -9.490e-7, -5.948e-7, 3.542e-7
0.146, -9.497e-7, -5.954e-7, 3.542e-7
0.145, -9.506e-7, -5.957e-7, 3.548e-7
0.144, -9.497e-7, -5.939e-7, 3.558e-7
0.143, -9.481e-7, -5.939e-7, 3.542e-7
0.142, -9.506e-7, -5.957e-7, 3.548e-7
0.141, -9.512e-7, -5.948e-7, 3.564e-7
0.140, -9.493e-7, -5.939e-7, 3.555e-7
0.139, -9.512e-7, -5.945e-7, 3.567e-7
0.138, -9.506e-7, -5.939e-7, 3.567e-7
0.137, -9.503e-7, -5.936e-7, 3.567e-7
0.136, -9.521e-7, -5.945e-7, 3.576e-7
0.135, -9.509e-7, -5.930e-7, 3.579e-7
0.134, -9.487e-7, -5.924e-7, 3.564e-7
0.133, -9.518e-7, -5.939e-7, 3.579e-7
0.132, -9.506e-7, -5.911e-7, 3.594e-7
0.131, -9.503e-7, -5.924e-7, 3.579e-7
0.130, -9.515e-7, -5.930e-7, 3.585e-7
0.129, -9.515e-7, -5.918e-7, 3.597e-7
0.128, -9.509e-7, -5.918e-7, 3.591e-7
0.127, -9.527e-7, -5.924e-7, 3.603e-7
0.126, -9.521e-7, -5.905e-7, 3.616e-7
0.125, -9.518e-7, -5.918e-7, 3.600e-7
0.124, -9.527e-7, -5.921e-7, 3.606e-7
0.123, -9.527e-7, -5.899e-7, 3.628e-7
0.122, -9.500e-7, -5.893e-7, 3.606e-7
0.121, -9.539e-7, -5.921e-7, 3.619e-7
0.120, -9.512e-7, -5.890e-7, 3.622e-7
0.119, -9.493e-7, -5.887e-7, 3.606e-7
0.118, -9.509e-7, -5.893e-7, 3.616e-7
0.117, -9.506e-7, -5.872e-7, 3.634e-7
0.116, -9.493e-7, -5.875e-7, 3.619e-7
0.115, -9.509e-7, -5.875e-7, 3.634e-7
0.114, -9.503e-7, -5.869e-7, 3.634e-7
0.113, -9.487e-7, -5.866e-7, 3.622e-7
0.112, -9.509e-7, -5.878e-7, 3.631e-7
0.111, -9.478e-7, -5.844e-7, 3.634e-7
0.110, -9.469e-7, -5.844e-7, 3.625e-7
0.109, -9.503e-7, -5.860e-7, 3.643e-7
0.108, -9.481e-7, -5.832e-7, 3.649e-7
0.107, -9.475e-7, -5.847e-7, 3.628e-7
0.106, -9.493e-7, -5.838e-7, 3.655e-7
0.105, -9.484e-7, -5.829e-7, 3.655e-7
0.104, -9.472e-7, -5.823e-7, 3.649e-7
0.103, -9.475e-7, -5.826e-7, 3.649e-7
0.102, -9.475e-7, -5.814e-7, 3.661e-7
0.101, -9.454e-7, -5.799e-7, 3.655e-7
0.100, -9.451e-7, -5.795e-7, 3.655e-7
0.099, -9.445e-7, -5.792e-7, 3.652e-7
0.098, -9.420e-7, -5.786e-7, 3.634e-7
0.097, -9.457e-7, -5.792e-7, 3.664e-7
0.096, -9.429e-7, -5.765e-7, 3.664e-7
0.095, -9.414e-7, -5.774e-7, 3.640e-7
0.094, -9.417e-7, -5.768e-7, 3.649e-7
0.093, -9.439e-7, -5.753e-7, 3.686e-7
0.092, -9.414e-7, -5.756e-7, 3.658e-7
0.091, -9.414e-7, -5.753e-7, 3.661e-7
0.090, -9.393e-7, -5.728e-7, 3.664e-7
0.089, -9.396e-7, -5.741e-7, 3.655e-7
0.088, -9.387e-7, -5.731e-7, 3.655e-7
0.087, -9.384e-7, -5.713e-7, 3.671e-7
0.086, -9.365e-7, -5.722e-7, 3.643e-7
0.085, -9.365e-7, -5.713e-7, 3.652e-7
0.084, -9.371e-7, -5.695e-7, 3.677e-7
0.083, -9.341e-7, -5.689e-7, 3.652e-7
0.082, -9.362e-7, -5.692e-7, 3.671e-7
0.081, -9.323e-7, -5.670e-7, 3.652e-7
0.080, -9.313e-7, -5.667e-7, 3.646e-7
0.079, -9.335e-7, -5.673e-7, 3.661e-7
0.078, -9.301e-7, -5.655e-7, 3.646e-7
0.077, -9.295e-7, -5.640e-7, 3.655e-7
0.076, -9.304e-7, -5.646e-7, 3.658e-7
0.075, -9.307e-7, -5.637e-7, 3.671e-7
0.074, -9.280e-7, -5.628e-7, 3.652e-7
0.073, -9.274e-7, -5.625e-7, 3.649e-7
0.072, -9.262e-7, -5.612e-7, 3.649e-7
0.071, -9.237e-7, -5.594e-7, 3.643e-7
0.070, -9.258e-7, -5.606e-7, 3.652e-7
0.069, -9.234e-7, -5.588e-7, 3.646e-7
0.068, -9.204e-7, -5.570e-7, 3.634e-7
0.067, -9.231e-7, -5.582e-7, 3.649e-7
0.066, -9.207e-7, -5.557e-7, 3.649e-7
0.065, -9.185e-7, -5.561e-7, 3.625e-7
0.064, -9.194e-7, -5.551e-7, 3.643e-7
0.063, -9.185e-7, -5.551e-7, 3.634e-7
0.062, -9.161e-7, -5.533e-7, 3.628e-7
0.061, -9.170e-7, -5.533e-7, 3.637e-7
0.060, -9.143e-7, -5.509e-7, 3.634e-7
0.059, -9.133e-7, -5.515e-7, 3.619e-7
0.058, -9.149e-7, -5.506e-7, 3.643e-7
0.057, -9.118e-7, -5.481e-7, 3.637e-7
0.056, -9.103e-7, -5.484e-7, 3.619e-7
0.055, -9.103e-7, -5.472e-7, 3.631e-7
0.054, -9.075e-7, -5.457e-7, 3.619e-7
0.053, -9.066e-7, -5.463e-7, 3.603e-7
0.052, -9.063e-7, -5.448e-7, 3.616e-7
0.051, -9.051e-7, -5.442e-7, 3.609e-7
0.050, -9.039e-7, -5.442e-7, 3.597e-7
0.049, -9.051e-7, -5.442e-7, 3.609e-7
0.048, -9.020e-7, -5.411e-7, 3.609e-7
0.047, -9.008e-7, -5.414e-7, 3.594e-7
0.046, -9.011e-7, -5.411e-7, 3.600e-7
0.045, -8.993e-7, -5.396e-7, 3.597e-7
0.044, -8.969e-7, -5.387e-7, 3.582e-7
0.043, -8.966e-7, -5.377e-7, 3.588e-7
0.042, -8.959e-7, -5.371e-7, 3.588e-7
0.041, -8.935e-7, -5.365e-7, 3.570e-7
0.040, -8.938e-7, -5.359e-7, 3.579e-7
0.039, -8.932e-7, -5.344e-7, 3.588e-7
0.038, -8.905e-7, -5.344e-7, 3.561e-7
0.037, -8.898e-7, -5.338e-7, 3.561e-7
0.036, -8.889e-7, -5.323e-7, 3.567e-7
0.035, -8.874e-7, -5.313e-7, 3.561e-7
0.034, -8.883e-7, -5.323e-7, 3.561e-7
0.033, -8.850e-7, -5.295e-7, 3.555e-7
0.032, -8.810e-7, -5.289e-7, 3.521e-7
0.031, -8.831e-7, -5.274e-7, 3.558e-7
0.030, -8.807e-7, -5.271e-7, 3.536e-7
0.029, -8.798e-7, -5.268e-7, 3.530e-7
0.028, -8.813e-7, -5.265e-7, 3.548e-7
0.027, -8.782e-7, -5.249e-7, 3.533e-7
0.026, -8.776e-7, -5.249e-7, 3.527e-7
0.025, -8.764e-7, -5.240e-7, 3.524e-7
0.024, -8.743e-7, -5.231e-7, 3.512e-7
0.023, -8.734e-7, -5.225e-7, 3.509e-7
0.022, -8.728e-7, -5.213e-7, 3.515e-7
0.021, -8.706e-7, -5.200e-7, 3.506e-7
0.020, -8.700e-7, -5.194e-7, 3.506e-7
0.019, -8.691e-7, -5.188e-7, 3.503e-7
0.018, -8.685e-7, -5.185e-7, 3.500e-7
0.017, -8.673e-7, -5.188e-7, 3.484e-7
0.016, -8.673e-7, -5.170e-7, 3.503e-7
0.015, -8.642e-7, -5.161e-7, 3.481e-7
0.014, -8.630e-7, -5.149e-7, 3.481e-7
0.013, -8.627e-7, -5.142e-7, 3.484e-7
0.012, -8.618e-7, -5.149e-7, 3.469e-7
0.011, -8.596e-7, -5.136e-7, 3.460e-7
0.010, -8.605e-7, -5.146e-7, 3.460e-7
0.009, -8.581e-7, -5.121e-7, 3.460e-7
0.008, -8.572e-7, -5.121e-7, 3.451e-7
0.007, -8.554e-7, -5.100e-7, 3.454e-7
0.006, -8.547e-7, -5.097e-7, 3.451e-7
0.005, -8.517e-7, -5.094e-7, 3.423e-7
0.004, -8.541e-7, -5.100e-7, 3.442e-7
0.003, -8.499e-7, -5.072e-7, 3.426e-7
0.002, -8.490e-7, -5.069e-7, 3.420e-7
0.001, -8.499e-7, -5.069e-7, 3.429e-7
-0.000, -8.493e-7, -5.060e-7, 3.432e-7
-0.001, -8.474e-7, -5.060e-7, 3.414e-7
-0.002, -8.477e-7, -5.054e-7, 3.423e-7
-0.003, -8.468e-7, -5.054e-7, 3.414e-7
-0.004, -8.444e-7, -5.048e-7, 3.396e-7
-0.005, -8.435e-7, -5.036e-7, 3.399e-7
-0.006, -8.422e-7, -5.023e-7, 3.399e-7
-0.007, -8.407e-7, -5.030e-7, 3.378e-7
-0.008, -8.425e-7, -5.036e-7, 3.390e-7
-0.009, -8.404e-7, -5.002e-7, 3.402e-7
-0.010, -8.389e-7, -5.017e-7, 3.371e-7
-0.011, -8.370e-7, -5.002e-7, 3.368e-7
-0.012, -8.349e-7, -4.981e-7, 3.368e-7
-0.013, -8.358e-7, -4.996e-7, 3.362e-7
-0.014, -8.355e-7, -4.987e-7, 3.368e-7
-0.015, -8.352e-7, -4.975e-7, 3.378e-7
-0.016, -8.328e-7, -4.972e-7, 3.356e-7
-0.017, -8.325e-7, -4.972e-7, 3.353e-7
-0.018, -8.309e-7, -4.962e-7, 3.347e-7
-0.019, -8.300e-7, -4.959e-7, 3.341e-7
-0.020, -8.297e-7, -4.953e-7, 3.344e-7
-0.021, -8.291e-7, -4.941e-7, 3.350e-7
-0.022, -8.267e-7, -4.944e-7, 3.323e-7
-0.023, -8.264e-7, -4.944e-7, 3.320e-7
-0.024, -8.248e-7, -4.932e-7, 3.317e-7
-0.025, -8.258e-7, -4.941e-7, 3.317e-7
-0.026, -8.248e-7, -4.926e-7, 3.323e-7
-0.027, -8.233e-7, -4.923e-7, 3.310e-7
-0.028, -8.224e-7, -4.917e-7, 3.307e-7
-0.029, -8.212e-7, -4.917e-7, 3.295e-7
-0.030, -8.206e-7, -4.911e-7, 3.295e-7
-0.031, -8.209e-7, -4.917e-7, 3.292e-7
-0.032, -8.203e-7, -4.907e-7, 3.295e-7
-0.033, -8.190e-7, -4.907e-7, 3.283e-7
-0.034, -8.169e-7, -4.892e-7, 3.277e-7
-0.035, -8.169e-7, -4.895e-7, 3.274e-7
-0.036, -8.166e-7, -4.895e-7, 3.271e-7
-0.037, -8.148e-7, -4.883e-7, 3.265e-7
-0.038, -8.148e-7, -4.889e-7, 3.259e-7
-0.039, -8.142e-7, -4.883e-7, 3.259e-7
-0.040, -8.132e-7, -4.877e-7, 3.255e-7
-0.041, -8.123e-7, -4.871e-7, 3.252e-7
-0.042, -8.120e-7, -4.868e-7, 3.252e-7
-0.043, -8.105e-7, -4.859e-7, 3.246e-7
-0.044, -8.108e-7, -4.865e-7, 3.243e-7
-0.045, -8.099e-7, -4.856e-7, 3.243e-7
-0.046, -8.093e-7, -4.859e-7, 3.234e-7
-0.047, -8.084e-7, -4.859e-7, 3.225e-7
-0.048, -8.084e-7, -4.856e-7, 3.228e-7
-0.049, -8.078e-7, -4.850e-7, 3.228e-7
-0.050, -8.071e-7, -4.853e-7, 3.219e-7
