Mar. 20, 2018   14:12:49
Square Wave Voltammetry
File: c:\users\electrochemist\desktop\2018\20032018_unbufarray_unpap\22_g1_ph6,29_1.txt
Data Source:  Experiment
Instrument Model:  CHI1040A
Header: 
Note: 

Init E (V) = 0.7
Final E (V) = -0.4
Incr E (V) = 0.001
Amplitude (V) = 0.1
Frequency (Hz) = 152
Quiet Time (sec) = 2
Sensitivity (A/V) = 1e-6

Difference:

Forward:

Reverse:

Potential/V, Diff(i/A), For(i/A), Rev(i/A)

0.699, -8.392e-7, -2.280e-7, 6.112e-7
0.698, -1.067e-6, -5.145e-7, 5.523e-7
0.697, -1.068e-6, -5.338e-7, 5.340e-7
0.696, -1.070e-6, -5.393e-7, 5.312e-7
0.695, -1.065e-6, -5.383e-7, 5.263e-7
0.694, -1.063e-6, -5.411e-7, 5.221e-7
0.693, -1.064e-6, -5.426e-7, 5.212e-7
0.692, -1.056e-6, -5.377e-7, 5.187e-7
0.691, -1.052e-6, -5.417e-7, 5.105e-7
0.690, -1.055e-6, -5.405e-7, 5.144e-7
0.689, -1.054e-6, -5.402e-7, 5.141e-7
0.688, -1.053e-6, -5.444e-7, 5.090e-7
0.687, -1.053e-6, -5.438e-7, 5.090e-7
0.686, -1.051e-6, -5.426e-7, 5.080e-7
0.685, -1.048e-6, -5.423e-7, 5.059e-7
0.684, -1.047e-6, -5.426e-7, 5.047e-7
0.683, -1.044e-6, -5.423e-7, 5.019e-7
0.682, -1.048e-6, -5.438e-7, 5.041e-7
0.681, -1.041e-6, -5.429e-7, 4.980e-7
0.680, -1.042e-6, -5.445e-7, 4.977e-7
0.679, -1.044e-6, -5.463e-7, 4.974e-7
0.678, -1.040e-6, -5.423e-7, 4.974e-7
0.677, -1.041e-6, -5.435e-7, 4.971e-7
0.676, -1.040e-6, -5.448e-7, 4.952e-7
0.675, -1.032e-6, -5.408e-7, 4.913e-7
0.674, -1.037e-6, -5.463e-7, 4.910e-7
0.673, -1.034e-6, -5.438e-7, 4.906e-7
0.672, -1.034e-6, -5.441e-7, 4.903e-7
0.671, -1.031e-6, -5.445e-7, 4.870e-7
0.670, -1.037e-6, -5.460e-7, 4.906e-7
0.669, -1.031e-6, -5.438e-7, 4.873e-7
0.668, -1.036e-6, -5.475e-7, 4.882e-7
0.667, -1.035e-6, -5.457e-7, 4.897e-7
0.666, -1.031e-6, -5.454e-7, 4.858e-7
0.665, -1.033e-6, -5.460e-7, 4.870e-7
0.664, -1.032e-6, -5.460e-7, 4.861e-7
0.663, -1.029e-6, -5.466e-7, 4.827e-7
0.662, -1.034e-6, -5.490e-7, 4.845e-7
0.661, -1.029e-6, -5.445e-7, 4.842e-7
0.660, -1.028e-6, -5.490e-7, 4.787e-7
0.659, -1.033e-6, -5.481e-7, 4.848e-7
0.658, -1.029e-6, -5.454e-7, 4.833e-7
0.657, -1.034e-6, -5.518e-7, 4.818e-7
0.656, -1.030e-6, -5.466e-7, 4.833e-7
0.655, -1.031e-6, -5.481e-7, 4.830e-7
0.654, -1.031e-6, -5.524e-7, 4.784e-7
0.653, -1.031e-6, -5.490e-7, 4.818e-7
0.652, -1.029e-6, -5.496e-7, 4.794e-7
0.651, -1.033e-6, -5.539e-7, 4.794e-7
0.650, -1.034e-6, -5.536e-7, 4.800e-7
0.649, -1.030e-6, -5.518e-7, 4.778e-7
0.648, -1.031e-6, -5.542e-7, 4.769e-7
0.647, -1.029e-6, -5.509e-7, 4.784e-7
0.646, -1.028e-6, -5.515e-7, 4.766e-7
0.645, -1.035e-6, -5.576e-7, 4.772e-7
0.644, -1.029e-6, -5.527e-7, 4.766e-7
0.643, -1.031e-6, -5.548e-7, 4.757e-7
0.642, -1.033e-6, -5.560e-7, 4.766e-7
0.641, -1.031e-6, -5.542e-7, 4.766e-7
0.640, -1.031e-6, -5.557e-7, 4.754e-7
0.639, -1.031e-6, -5.557e-7, 4.754e-7
0.638, -1.031e-6, -5.579e-7, 4.736e-7
0.637, -1.031e-6, -5.576e-7, 4.739e-7
0.636, -1.035e-6, -5.585e-7, 4.769e-7
0.635, -1.034e-6, -5.603e-7, 4.739e-7
0.634, -1.033e-6, -5.600e-7, 4.733e-7
0.633, -1.034e-6, -5.588e-7, 4.757e-7
0.632, -1.034e-6, -5.594e-7, 4.751e-7
0.631, -1.035e-6, -5.621e-7, 4.729e-7
0.630, -1.035e-6, -5.603e-7, 4.751e-7
0.629, -1.034e-6, -5.628e-7, 4.714e-7
0.628, -1.037e-6, -5.634e-7, 4.739e-7
0.627, -1.037e-6, -5.606e-7, 4.766e-7
0.626, -1.037e-6, -5.643e-7, 4.729e-7
0.625, -1.042e-6, -5.658e-7, 4.763e-7
0.624, -1.039e-6, -5.637e-7, 4.754e-7
0.623, -1.038e-6, -5.676e-7, 4.708e-7
0.622, -1.038e-6, -5.646e-7, 4.736e-7
0.621, -1.038e-6, -5.631e-7, 4.745e-7
0.620, -1.040e-6, -5.683e-7, 4.717e-7
0.619, -1.041e-6, -5.673e-7, 4.739e-7
0.618, -1.038e-6, -5.658e-7, 4.720e-7
0.617, -1.042e-6, -5.689e-7, 4.729e-7
0.616, -1.043e-6, -5.683e-7, 4.748e-7
0.615, -1.041e-6, -5.683e-7, 4.729e-7
0.614, -1.042e-6, -5.716e-7, 4.708e-7
0.613, -1.044e-6, -5.683e-7, 4.754e-7
0.612, -1.039e-6, -5.701e-7, 4.693e-7
0.611, -1.044e-6, -5.744e-7, 4.699e-7
0.610, -1.040e-6, -5.673e-7, 4.723e-7
0.609, -1.040e-6, -5.707e-7, 4.693e-7
0.608, -1.045e-6, -5.725e-7, 4.726e-7
0.607, -1.042e-6, -5.698e-7, 4.720e-7
0.606, -1.040e-6, -5.719e-7, 4.678e-7
0.605, -1.045e-6, -5.734e-7, 4.717e-7
0.604, -1.044e-6, -5.713e-7, 4.729e-7
0.603, -1.044e-6, -5.734e-7, 4.705e-7
0.602, -1.045e-6, -5.725e-7, 4.723e-7
0.601, -1.043e-6, -5.744e-7, 4.687e-7
0.600, -1.044e-6, -5.747e-7, 4.690e-7
0.599, -1.049e-6, -5.768e-7, 4.726e-7
0.598, -1.044e-6, -5.734e-7, 4.705e-7
0.597, -1.046e-6, -5.774e-7, 4.684e-7
0.596, -1.045e-6, -5.747e-7, 4.702e-7
0.595, -1.045e-6, -5.765e-7, 4.687e-7
0.594, -1.049e-6, -5.792e-7, 4.699e-7
0.593, -1.052e-6, -5.795e-7, 4.723e-7
0.592, -1.046e-6, -5.777e-7, 4.687e-7
0.591, -1.048e-6, -5.786e-7, 4.696e-7
0.590, -1.047e-6, -5.780e-7, 4.693e-7
0.589, -1.045e-6, -5.783e-7, 4.668e-7
0.588, -1.051e-6, -5.798e-7, 4.708e-7
0.587, -1.045e-6, -5.780e-7, 4.675e-7
0.586, -1.052e-6, -5.829e-7, 4.687e-7
0.585, -1.051e-6, -5.820e-7, 4.693e-7
0.584, -1.050e-6, -5.814e-7, 4.687e-7
0.583, -1.050e-6, -5.829e-7, 4.675e-7
0.582, -1.056e-6, -5.835e-7, 4.720e-7
0.581, -1.052e-6, -5.823e-7, 4.693e-7
0.580, -1.052e-6, -5.841e-7, 4.684e-7
0.579, -1.056e-6, -5.841e-7, 4.714e-7
0.578, -1.054e-6, -5.863e-7, 4.675e-7
0.577, -1.058e-6, -5.884e-7, 4.699e-7
0.576, -1.055e-6, -5.853e-7, 4.693e-7
0.575, -1.058e-6, -5.899e-7, 4.681e-7
0.574, -1.060e-6, -5.881e-7, 4.720e-7
0.573, -1.060e-6, -5.896e-7, 4.702e-7
0.572, -1.061e-6, -5.905e-7, 4.708e-7
0.571, -1.061e-6, -5.905e-7, 4.705e-7
0.570, -1.061e-6, -5.896e-7, 4.714e-7
0.569, -1.063e-6, -5.936e-7, 4.699e-7
0.568, -1.065e-6, -5.927e-7, 4.723e-7
0.567, -1.063e-6, -5.918e-7, 4.711e-7
0.566, -1.063e-6, -5.951e-7, 4.678e-7
0.565, -1.066e-6, -5.933e-7, 4.723e-7
0.564, -1.063e-6, -5.933e-7, 4.693e-7
0.563, -1.066e-6, -5.972e-7, 4.687e-7
0.562, -1.069e-6, -5.942e-7, 4.748e-7
0.561, -1.067e-6, -5.954e-7, 4.711e-7
0.560, -1.068e-6, -5.982e-7, 4.702e-7
0.559, -1.072e-6, -5.975e-7, 4.742e-7
0.558, -1.073e-6, -6.015e-7, 4.717e-7
0.557, -1.075e-6, -6.015e-7, 4.736e-7
0.556, -1.073e-6, -6.000e-7, 4.729e-7
0.555, -1.074e-6, -6.009e-7, 4.729e-7
0.554, -1.075e-6, -6.003e-7, 4.751e-7
0.553, -1.077e-6, -6.043e-7, 4.729e-7
0.552, -1.074e-6, -6.024e-7, 4.720e-7
0.551, -1.080e-6, -6.055e-7, 4.748e-7
0.550, -1.079e-6, -6.049e-7, 4.745e-7
0.549, -1.083e-6, -6.073e-7, 4.754e-7
0.548, -1.084e-6, -6.055e-7, 4.787e-7
0.547, -1.083e-6, -6.076e-7, 4.754e-7
0.546, -1.087e-6, -6.104e-7, 4.769e-7
0.545, -1.088e-6, -6.101e-7, 4.781e-7
0.544, -1.085e-6, -6.098e-7, 4.751e-7
0.543, -1.087e-6, -6.116e-7, 4.754e-7
0.542, -1.089e-6, -6.101e-7, 4.787e-7
0.541, -1.091e-6, -6.146e-7, 4.766e-7
0.540, -1.090e-6, -6.128e-7, 4.775e-7
0.539, -1.092e-6, -6.131e-7, 4.784e-7
0.538, -1.092e-6, -6.156e-7, 4.769e-7
0.537, -1.094e-6, -6.159e-7, 4.784e-7
0.536, -1.093e-6, -6.152e-7, 4.775e-7
0.535, -1.093e-6, -6.177e-7, 4.751e-7
0.534, -1.099e-6, -6.174e-7, 4.812e-7
0.533, -1.095e-6, -6.183e-7, 4.766e-7
0.532, -1.099e-6, -6.214e-7, 4.781e-7
0.531, -1.099e-6, -6.177e-7, 4.815e-7
0.530, -1.098e-6, -6.207e-7, 4.772e-7
0.529, -1.100e-6, -6.214e-7, 4.784e-7
0.528, -1.104e-6, -6.217e-7, 4.824e-7
0.527, -1.099e-6, -6.226e-7, 4.760e-7
0.526, -1.107e-6, -6.256e-7, 4.809e-7
0.525, -1.105e-6, -6.223e-7, 4.830e-7
0.524, -1.103e-6, -6.241e-7, 4.787e-7
0.523, -1.107e-6, -6.281e-7, 4.794e-7
0.522, -1.108e-6, -6.256e-7, 4.827e-7
0.521, -1.105e-6, -6.275e-7, 4.772e-7
0.520, -1.109e-6, -6.284e-7, 4.803e-7
0.519, -1.109e-6, -6.278e-7, 4.815e-7
0.518, -1.111e-6, -6.317e-7, 4.794e-7
0.517, -1.112e-6, -6.302e-7, 4.821e-7
0.516, -1.112e-6, -6.299e-7, 4.821e-7
0.515, -1.111e-6, -6.308e-7, 4.803e-7
0.514, -1.117e-6, -6.336e-7, 4.839e-7
0.513, -1.114e-6, -6.342e-7, 4.800e-7
0.512, -1.116e-6, -6.339e-7, 4.818e-7
0.511, -1.117e-6, -6.345e-7, 4.827e-7
0.510, -1.117e-6, -6.345e-7, 4.821e-7
0.509, -1.119e-6, -6.372e-7, 4.815e-7
0.508, -1.119e-6, -6.354e-7, 4.833e-7
0.507, -1.121e-6, -6.375e-7, 4.839e-7
0.506, -1.123e-6, -6.381e-7, 4.848e-7
0.505, -1.126e-6, -6.391e-7, 4.870e-7
0.504, -1.126e-6, -6.412e-7, 4.848e-7
0.503, -1.125e-6, -6.412e-7, 4.836e-7
0.502, -1.125e-6, -6.406e-7, 4.839e-7
0.501, -1.125e-6, -6.412e-7, 4.833e-7
0.500, -1.127e-6, -6.436e-7, 4.836e-7
0.499, -1.127e-6, -6.424e-7, 4.848e-7
0.498, -1.125e-6, -6.433e-7, 4.821e-7
0.497, -1.133e-6, -6.458e-7, 4.870e-7
0.496, -1.128e-6, -6.442e-7, 4.836e-7
0.495, -1.134e-6, -6.479e-7, 4.861e-7
0.494, -1.134e-6, -6.461e-7, 4.879e-7
0.493, -1.138e-6, -6.516e-7, 4.867e-7
0.492, -1.139e-6, -6.510e-7, 4.879e-7
0.491, -1.137e-6, -6.479e-7, 4.894e-7
0.490, -1.139e-6, -6.513e-7, 4.882e-7
0.489, -1.143e-6, -6.537e-7, 4.897e-7
0.488, -1.139e-6, -6.519e-7, 4.876e-7
0.487, -1.143e-6, -6.564e-7, 4.870e-7
0.486, -1.146e-6, -6.555e-7, 4.900e-7
0.485, -1.146e-6, -6.549e-7, 4.916e-7
0.484, -1.146e-6, -6.567e-7, 4.894e-7
0.483, -1.150e-6, -6.571e-7, 4.931e-7
0.482, -1.150e-6, -6.577e-7, 4.922e-7
0.481, -1.153e-6, -6.625e-7, 4.909e-7
0.480, -1.154e-6, -6.598e-7, 4.943e-7
0.479, -1.151e-6, -6.592e-7, 4.922e-7
0.478, -1.155e-6, -6.625e-7, 4.928e-7
0.477, -1.155e-6, -6.619e-7, 4.931e-7
0.476, -1.156e-6, -6.629e-7, 4.928e-7
0.475, -1.157e-6, -6.644e-7, 4.925e-7
0.474, -1.162e-6, -6.674e-7, 4.949e-7
0.473, -1.166e-6, -6.699e-7, 4.964e-7
0.472, -1.164e-6, -6.699e-7, 4.940e-7
0.471, -1.165e-6, -6.690e-7, 4.958e-7
0.470, -1.165e-6, -6.708e-7, 4.943e-7
0.469, -1.170e-6, -6.720e-7, 4.977e-7
0.468, -1.170e-6, -6.729e-7, 4.967e-7
0.467, -1.169e-6, -6.741e-7, 4.952e-7
0.466, -1.175e-6, -6.754e-7, 4.998e-7
0.465, -1.175e-6, -6.757e-7, 4.992e-7
0.464, -1.173e-6, -6.763e-7, 4.971e-7
0.463, -1.181e-6, -6.796e-7, 5.016e-7
0.462, -1.176e-6, -6.787e-7, 4.971e-7
0.461, -1.180e-6, -6.802e-7, 5.001e-7
0.460, -1.183e-6, -6.802e-7, 5.029e-7
0.459, -1.180e-6, -6.809e-7, 4.995e-7
0.458, -1.185e-6, -6.827e-7, 5.019e-7
0.457, -1.189e-6, -6.836e-7, 5.050e-7
0.456, -1.188e-6, -6.860e-7, 5.016e-7
0.455, -1.193e-6, -6.888e-7, 5.038e-7
0.454, -1.191e-6, -6.854e-7, 5.059e-7
0.453, -1.191e-6, -6.888e-7, 5.025e-7
0.452, -1.194e-6, -6.891e-7, 5.047e-7
0.451, -1.195e-6, -6.891e-7, 5.062e-7
0.450, -1.194e-6, -6.912e-7, 5.029e-7
0.449, -1.200e-6, -6.931e-7, 5.068e-7
0.448, -1.198e-6, -6.934e-7, 5.050e-7
0.447, -1.199e-6, -6.934e-7, 5.059e-7
0.446, -1.203e-6, -6.940e-7, 5.093e-7
0.445, -1.201e-6, -6.955e-7, 5.056e-7
0.444, -1.208e-6, -6.983e-7, 5.099e-7
0.443, -1.202e-6, -6.955e-7, 5.068e-7
0.442, -1.206e-6, -7.001e-7, 5.059e-7
0.441, -1.211e-6, -7.025e-7, 5.086e-7
0.440, -1.208e-6, -6.983e-7, 5.099e-7
0.439, -1.213e-6, -7.034e-7, 5.096e-7
0.438, -1.213e-6, -7.047e-7, 5.080e-7
0.437, -1.215e-6, -7.019e-7, 5.132e-7
0.436, -1.216e-6, -7.053e-7, 5.105e-7
0.435, -1.219e-6, -7.086e-7, 5.105e-7
0.434, -1.219e-6, -7.053e-7, 5.138e-7
0.433, -1.222e-6, -7.102e-7, 5.114e-7
0.432, -1.224e-6, -7.111e-7, 5.132e-7
0.431, -1.221e-6, -7.089e-7, 5.123e-7
0.430, -1.226e-6, -7.132e-7, 5.126e-7
0.429, -1.227e-6, -7.132e-7, 5.138e-7
0.428, -1.227e-6, -7.129e-7, 5.141e-7
0.427, -1.229e-6, -7.153e-7, 5.135e-7
0.426, -1.230e-6, -7.160e-7, 5.141e-7
0.425, -1.232e-6, -7.172e-7, 5.148e-7
0.424, -1.230e-6, -7.163e-7, 5.141e-7
0.423, -1.234e-6, -7.184e-7, 5.154e-7
0.422, -1.235e-6, -7.202e-7, 5.144e-7
0.421, -1.237e-6, -7.211e-7, 5.163e-7
0.420, -1.239e-6, -7.224e-7, 5.169e-7
0.419, -1.240e-6, -7.239e-7, 5.163e-7
0.418, -1.245e-6, -7.239e-7, 5.209e-7
0.417, -1.241e-6, -7.242e-7, 5.169e-7
0.416, -1.244e-6, -7.269e-7, 5.169e-7
0.415, -1.247e-6, -7.266e-7, 5.209e-7
0.414, -1.247e-6, -7.269e-7, 5.205e-7
0.413, -1.249e-6, -7.303e-7, 5.190e-7
0.412, -1.251e-6, -7.282e-7, 5.230e-7
0.411, -1.250e-6, -7.297e-7, 5.205e-7
0.410, -1.255e-6, -7.333e-7, 5.212e-7
0.409, -1.256e-6, -7.315e-7, 5.248e-7
0.408, -1.256e-6, -7.355e-7, 5.209e-7
0.407, -1.258e-6, -7.352e-7, 5.230e-7
0.406, -1.260e-6, -7.346e-7, 5.251e-7
0.405, -1.260e-6, -7.382e-7, 5.215e-7
0.404, -1.269e-6, -7.413e-7, 5.273e-7
0.403, -1.267e-6, -7.404e-7, 5.263e-7
0.402, -1.267e-6, -7.440e-7, 5.233e-7
0.401, -1.272e-6, -7.434e-7, 5.282e-7
0.400, -1.271e-6, -7.431e-7, 5.282e-7
0.399, -1.276e-6, -7.486e-7, 5.276e-7
0.398, -1.278e-6, -7.465e-7, 5.315e-7
0.397, -1.277e-6, -7.474e-7, 5.297e-7
0.396, -1.277e-6, -7.507e-7, 5.267e-7
0.395, -1.283e-6, -7.498e-7, 5.334e-7
0.394, -1.280e-6, -7.498e-7, 5.303e-7
0.393, -1.288e-6, -7.562e-7, 5.315e-7
0.392, -1.290e-6, -7.568e-7, 5.334e-7
0.391, -1.289e-6, -7.562e-7, 5.324e-7
0.390, -1.291e-6, -7.587e-7, 5.324e-7
0.389, -1.292e-6, -7.571e-7, 5.349e-7
0.388, -1.297e-6, -7.620e-7, 5.346e-7
0.387, -1.295e-6, -7.611e-7, 5.337e-7
0.386, -1.296e-6, -7.614e-7, 5.346e-7
0.385, -1.301e-6, -7.651e-7, 5.364e-7
0.384, -1.306e-6, -7.684e-7, 5.379e-7
0.383, -1.306e-6, -7.678e-7, 5.386e-7
0.382, -1.309e-6, -7.706e-7, 5.379e-7
0.381, -1.310e-6, -7.694e-7, 5.410e-7
0.380, -1.312e-6, -7.727e-7, 5.389e-7
0.379, -1.315e-6, -7.733e-7, 5.413e-7
0.378, -1.319e-6, -7.773e-7, 5.416e-7
0.377, -1.316e-6, -7.758e-7, 5.407e-7
0.376, -1.319e-6, -7.773e-7, 5.419e-7
0.375, -1.323e-6, -7.788e-7, 5.447e-7
0.374, -1.324e-6, -7.800e-7, 5.444e-7
0.373, -1.328e-6, -7.831e-7, 5.447e-7
0.372, -1.328e-6, -7.813e-7, 5.468e-7
0.371, -1.329e-6, -7.855e-7, 5.434e-7
0.370, -1.334e-6, -7.877e-7, 5.462e-7
0.369, -1.336e-6, -7.874e-7, 5.486e-7
0.368, -1.334e-6, -7.889e-7, 5.447e-7
0.367, -1.341e-6, -7.913e-7, 5.498e-7
0.366, -1.341e-6, -7.910e-7, 5.501e-7
0.365, -1.342e-6, -7.938e-7, 5.480e-7
0.364, -1.347e-6, -7.953e-7, 5.514e-7
0.363, -1.347e-6, -7.956e-7, 5.511e-7
0.362, -1.351e-6, -8.005e-7, 5.501e-7
0.361, -1.352e-6, -7.996e-7, 5.526e-7
0.360, -1.352e-6, -7.996e-7, 5.520e-7
0.359, -1.357e-6, -8.038e-7, 5.529e-7
0.358, -1.360e-6, -8.020e-7, 5.578e-7
0.357, -1.356e-6, -8.041e-7, 5.520e-7
0.356, -1.363e-6, -8.075e-7, 5.559e-7
0.355, -1.366e-6, -8.075e-7, 5.590e-7
0.354, -1.363e-6, -8.084e-7, 5.550e-7
0.353, -1.371e-6, -8.112e-7, 5.596e-7
0.352, -1.371e-6, -8.115e-7, 5.593e-7
0.351, -1.372e-6, -8.148e-7, 5.569e-7
0.350, -1.377e-6, -8.173e-7, 5.593e-7
0.349, -1.377e-6, -8.157e-7, 5.611e-7
0.348, -1.378e-6, -8.194e-7, 5.587e-7
0.347, -1.382e-6, -8.203e-7, 5.617e-7
0.346, -1.382e-6, -8.194e-7, 5.624e-7
0.345, -1.381e-6, -8.212e-7, 5.599e-7
0.344, -1.388e-6, -8.249e-7, 5.627e-7
0.343, -1.392e-6, -8.261e-7, 5.654e-7
0.342, -1.389e-6, -8.258e-7, 5.633e-7
0.341, -1.393e-6, -8.276e-7, 5.651e-7
0.340, -1.396e-6, -8.298e-7, 5.666e-7
0.339, -1.397e-6, -8.304e-7, 5.666e-7
0.338, -1.402e-6, -8.328e-7, 5.688e-7
0.337, -1.403e-6, -8.362e-7, 5.669e-7
0.336, -1.404e-6, -8.347e-7, 5.697e-7
0.335, -1.405e-6, -8.359e-7, 5.688e-7
0.334, -1.406e-6, -8.386e-7, 5.672e-7
0.333, -1.409e-6, -8.395e-7, 5.697e-7
0.332, -1.412e-6, -8.408e-7, 5.712e-7
0.331, -1.414e-6, -8.450e-7, 5.691e-7
0.330, -1.418e-6, -8.453e-7, 5.727e-7
0.329, -1.419e-6, -8.459e-7, 5.727e-7
0.328, -1.425e-6, -8.499e-7, 5.749e-7
0.327, -1.426e-6, -8.511e-7, 5.749e-7
0.326, -1.426e-6, -8.511e-7, 5.746e-7
0.325, -1.431e-6, -8.551e-7, 5.755e-7
0.324, -1.432e-6, -8.551e-7, 5.767e-7
0.323, -1.434e-6, -8.572e-7, 5.767e-7
0.322, -1.439e-6, -8.597e-7, 5.794e-7
0.321, -1.439e-6, -8.582e-7, 5.810e-7
0.320, -1.441e-6, -8.624e-7, 5.785e-7
0.319, -1.446e-6, -8.643e-7, 5.819e-7
0.318, -1.445e-6, -8.640e-7, 5.807e-7
0.317, -1.450e-6, -8.685e-7, 5.810e-7
0.316, -1.451e-6, -8.667e-7, 5.843e-7
0.315, -1.454e-6, -8.673e-7, 5.868e-7
0.314, -1.455e-6, -8.707e-7, 5.846e-7
0.313, -1.461e-6, -8.740e-7, 5.874e-7
0.312, -1.462e-6, -8.762e-7, 5.855e-7
0.311, -1.467e-6, -8.801e-7, 5.868e-7
0.310, -1.470e-6, -8.798e-7, 5.898e-7
0.309, -1.469e-6, -8.789e-7, 5.898e-7
0.308, -1.474e-6, -8.832e-7, 5.904e-7
0.307, -1.476e-6, -8.832e-7, 5.926e-7
0.306, -1.477e-6, -8.844e-7, 5.929e-7
0.305, -1.483e-6, -8.899e-7, 5.935e-7
0.304, -1.482e-6, -8.865e-7, 5.950e-7
0.303, -1.484e-6, -8.914e-7, 5.929e-7
0.302, -1.487e-6, -8.932e-7, 5.938e-7
0.301, -1.492e-6, -8.945e-7, 5.971e-7
0.300, -1.496e-6, -8.975e-7, 5.984e-7
0.299, -1.500e-6, -8.990e-7, 6.005e-7
0.298, -1.499e-6, -8.997e-7, 5.993e-7
0.297, -1.506e-6, -9.024e-7, 6.039e-7
0.296, -1.507e-6, -9.042e-7, 6.023e-7
0.295, -1.507e-6, -9.048e-7, 6.023e-7
0.294, -1.513e-6, -9.085e-7, 6.045e-7
0.293, -1.514e-6, -9.082e-7, 6.063e-7
0.292, -1.514e-6, -9.091e-7, 6.045e-7
0.291, -1.519e-6, -9.134e-7, 6.057e-7
0.290, -1.522e-6, -9.140e-7, 6.081e-7
0.289, -1.525e-6, -9.167e-7, 6.084e-7
0.288, -1.532e-6, -9.210e-7, 6.112e-7
0.287, -1.533e-6, -9.204e-7, 6.121e-7
0.286, -1.537e-6, -9.247e-7, 6.127e-7
0.285, -1.541e-6, -9.262e-7, 6.145e-7
0.284, -1.540e-6, -9.250e-7, 6.155e-7
0.283, -1.544e-6, -9.286e-7, 6.155e-7
0.282, -1.548e-6, -9.317e-7, 6.164e-7
0.281, -1.548e-6, -9.308e-7, 6.176e-7
0.280, -1.549e-6, -9.332e-7, 6.161e-7
0.279, -1.553e-6, -9.348e-7, 6.182e-7
0.278, -1.554e-6, -9.363e-7, 6.179e-7
0.277, -1.563e-6, -9.399e-7, 6.234e-7
0.276, -1.563e-6, -9.402e-7, 6.228e-7
0.275, -1.565e-6, -9.430e-7, 6.219e-7
0.274, -1.569e-6, -9.448e-7, 6.243e-7
0.273, -1.572e-6, -9.448e-7, 6.277e-7
0.272, -1.571e-6, -9.470e-7, 6.237e-7
0.271, -1.579e-6, -9.518e-7, 6.274e-7
0.270, -1.578e-6, -9.470e-7, 6.313e-7
0.269, -1.586e-6, -9.573e-7, 6.286e-7
0.268, -1.587e-6, -9.567e-7, 6.307e-7
0.267, -1.587e-6, -9.567e-7, 6.304e-7
0.266, -1.589e-6, -9.589e-7, 6.301e-7
0.265, -1.599e-6, -9.650e-7, 6.344e-7
0.264, -1.591e-6, -9.582e-7, 6.328e-7
0.263, -1.602e-6, -9.634e-7, 6.386e-7
0.262, -1.598e-6, -9.650e-7, 6.335e-7
0.261, -1.608e-6, -9.692e-7, 6.383e-7
0.260, -1.606e-6, -9.701e-7, 6.359e-7
0.259, -1.612e-6, -9.714e-7, 6.408e-7
0.258, -1.607e-6, -9.689e-7, 6.380e-7
0.257, -1.612e-6, -9.720e-7, 6.405e-7
0.256, -1.618e-6, -9.750e-7, 6.429e-7
0.255, -1.623e-6, -9.772e-7, 6.454e-7
0.254, -1.622e-6, -9.787e-7, 6.432e-7
0.253, -1.626e-6, -9.790e-7, 6.469e-7
0.252, -1.625e-6, -9.824e-7, 6.429e-7
0.251, -1.634e-6, -9.839e-7, 6.496e-7
0.250, -1.634e-6, -9.860e-7, 6.475e-7
0.249, -1.638e-6, -9.875e-7, 6.502e-7
0.248, -1.642e-6, -9.894e-7, 6.527e-7
0.247, -1.641e-6, -9.900e-7, 6.512e-7
0.246, -1.642e-6, -9.915e-7, 6.505e-7
0.245, -1.648e-6, -9.946e-7, 6.536e-7
0.244, -1.646e-6, -9.949e-7, 6.515e-7
0.243, -1.651e-6, -9.970e-7, 6.539e-7
0.242, -1.657e-6, -9.982e-7, 6.585e-7
0.241, -1.656e-6, -1.000e-6, 6.563e-7
0.240, -1.661e-6, -1.003e-6, 6.579e-7
0.239, -1.664e-6, -1.003e-6, 6.609e-7
0.238, -1.669e-6, -1.008e-6, 6.612e-7
0.237, -1.669e-6, -1.007e-6, 6.612e-7
0.236, -1.668e-6, -1.007e-6, 6.612e-7
0.235, -1.675e-6, -1.011e-6, 6.640e-7
0.234, -1.682e-6, -1.014e-6, 6.676e-7
0.233, -1.683e-6, -1.013e-6, 6.695e-7
0.232, -1.684e-6, -1.018e-6, 6.661e-7
0.231, -1.689e-6, -1.018e-6, 6.713e-7
0.230, -1.687e-6, -1.017e-6, 6.695e-7
0.229, -1.693e-6, -1.022e-6, 6.707e-7
0.228, -1.697e-6, -1.021e-6, 6.759e-7
0.227, -1.700e-6, -1.025e-6, 6.753e-7
0.226, -1.699e-6, -1.026e-6, 6.734e-7
0.225, -1.708e-6, -1.027e-6, 6.814e-7
0.224, -1.707e-6, -1.028e-6, 6.786e-7
0.223, -1.711e-6, -1.032e-6, 6.792e-7
0.222, -1.715e-6, -1.032e-6, 6.829e-7
0.221, -1.714e-6, -1.034e-6, 6.801e-7
0.220, -1.720e-6, -1.038e-6, 6.823e-7
0.219, -1.726e-6, -1.039e-6, 6.872e-7
0.218, -1.726e-6, -1.039e-6, 6.878e-7
0.217, -1.728e-6, -1.044e-6, 6.847e-7
0.216, -1.733e-6, -1.044e-6, 6.893e-7
0.215, -1.735e-6, -1.045e-6, 6.905e-7
0.214, -1.738e-6, -1.047e-6, 6.914e-7
0.213, -1.742e-6, -1.049e-6, 6.920e-7
0.212, -1.744e-6, -1.051e-6, 6.924e-7
0.211, -1.749e-6, -1.051e-6, 6.978e-7
0.210, -1.748e-6, -1.052e-6, 6.960e-7
0.209, -1.756e-6, -1.058e-6, 6.978e-7
0.208, -1.755e-6, -1.056e-6, 6.991e-7
0.207, -1.760e-6, -1.059e-6, 7.006e-7
0.206, -1.762e-6, -1.061e-6, 7.012e-7
0.205, -1.765e-6, -1.062e-6, 7.033e-7
0.204, -1.767e-6, -1.063e-6, 7.036e-7
0.203, -1.772e-6, -1.067e-6, 7.052e-7
0.202, -1.772e-6, -1.065e-6, 7.067e-7
0.201, -1.774e-6, -1.068e-6, 7.058e-7
0.200, -1.781e-6, -1.070e-6, 7.110e-7
0.199, -1.780e-6, -1.071e-6, 7.094e-7
0.198, -1.783e-6, -1.073e-6, 7.104e-7
0.197, -1.788e-6, -1.075e-6, 7.131e-7
0.196, -1.792e-6, -1.076e-6, 7.158e-7
0.195, -1.792e-6, -1.078e-6, 7.137e-7
0.194, -1.797e-6, -1.078e-6, 7.186e-7
0.193, -1.796e-6, -1.079e-6, 7.171e-7
0.192, -1.803e-6, -1.084e-6, 7.189e-7
0.191, -1.799e-6, -1.079e-6, 7.192e-7
0.190, -1.804e-6, -1.083e-6, 7.207e-7
0.189, -1.813e-6, -1.089e-6, 7.238e-7
0.188, -1.811e-6, -1.085e-6, 7.265e-7
0.187, -1.811e-6, -1.088e-6, 7.229e-7
0.186, -1.821e-6, -1.093e-6, 7.287e-7
0.185, -1.819e-6, -1.090e-6, 7.287e-7
0.184, -1.818e-6, -1.091e-6, 7.268e-7
0.183, -1.821e-6, -1.093e-6, 7.277e-7
0.182, -1.825e-6, -1.095e-6, 7.302e-7
0.181, -1.825e-6, -1.096e-6, 7.296e-7
0.180, -1.831e-6, -1.099e-6, 7.320e-7
0.179, -1.829e-6, -1.096e-6, 7.329e-7
0.178, -1.833e-6, -1.100e-6, 7.329e-7
0.177, -1.839e-6, -1.102e-6, 7.375e-7
0.176, -1.838e-6, -1.102e-6, 7.366e-7
0.175, -1.840e-6, -1.102e-6, 7.378e-7
0.174, -1.846e-6, -1.104e-6, 7.421e-7
0.173, -1.844e-6, -1.105e-6, 7.384e-7
0.172, -1.847e-6, -1.107e-6, 7.406e-7
0.171, -1.850e-6, -1.107e-6, 7.439e-7
0.170, -1.854e-6, -1.110e-6, 7.439e-7
0.169, -1.855e-6, -1.110e-6, 7.448e-7
0.168, -1.854e-6, -1.109e-6, 7.448e-7
0.167, -1.856e-6, -1.111e-6, 7.451e-7
0.166, -1.864e-6, -1.114e-6, 7.500e-7
0.165, -1.862e-6, -1.114e-6, 7.485e-7
0.164, -1.863e-6, -1.116e-6, 7.470e-7
0.163, -1.868e-6, -1.117e-6, 7.509e-7
0.162, -1.870e-6, -1.117e-6, 7.531e-7
0.161, -1.871e-6, -1.119e-6, 7.516e-7
0.160, -1.874e-6, -1.119e-6, 7.546e-7
0.159, -1.875e-6, -1.120e-6, 7.549e-7
0.158, -1.878e-6, -1.122e-6, 7.555e-7
0.157, -1.880e-6, -1.122e-6, 7.577e-7
0.156, -1.877e-6, -1.122e-6, 7.555e-7
0.155, -1.883e-6, -1.123e-6, 7.592e-7
0.154, -1.885e-6, -1.125e-6, 7.604e-7
0.153, -1.884e-6, -1.125e-6, 7.595e-7
0.152, -1.890e-6, -1.127e-6, 7.631e-7
0.151, -1.889e-6, -1.126e-6, 7.628e-7
0.150, -1.888e-6, -1.126e-6, 7.622e-7
0.149, -1.898e-6, -1.131e-6, 7.671e-7
0.148, -1.895e-6, -1.129e-6, 7.662e-7
0.147, -1.901e-6, -1.133e-6, 7.671e-7
0.146, -1.902e-6, -1.133e-6, 7.689e-7
0.145, -1.899e-6, -1.131e-6, 7.683e-7
0.144, -1.902e-6, -1.134e-6, 7.686e-7
0.143, -1.910e-6, -1.135e-6, 7.754e-7
0.142, -1.908e-6, -1.135e-6, 7.729e-7
0.141, -1.909e-6, -1.137e-6, 7.726e-7
0.140, -1.913e-6, -1.136e-6, 7.766e-7
0.139, -1.911e-6, -1.136e-6, 7.750e-7
0.138, -1.912e-6, -1.138e-6, 7.735e-7
0.137, -1.916e-6, -1.139e-6, 7.775e-7
0.136, -1.913e-6, -1.138e-6, 7.754e-7
0.135, -1.922e-6, -1.143e-6, 7.790e-7
0.134, -1.919e-6, -1.140e-6, 7.793e-7
0.133, -1.921e-6, -1.141e-6, 7.805e-7
0.132, -1.921e-6, -1.142e-6, 7.796e-7
0.131, -1.925e-6, -1.142e-6, 7.836e-7
0.130, -1.924e-6, -1.142e-6, 7.821e-7
0.129, -1.926e-6, -1.141e-6, 7.851e-7
0.128, -1.926e-6, -1.143e-6, 7.839e-7
0.127, -1.930e-6, -1.146e-6, 7.839e-7
0.126, -1.929e-6, -1.143e-6, 7.860e-7
0.125, -1.930e-6, -1.143e-6, 7.869e-7
0.124, -1.933e-6, -1.146e-6, 7.866e-7
0.123, -1.932e-6, -1.144e-6, 7.879e-7
0.122, -1.936e-6, -1.146e-6, 7.906e-7
0.121, -1.937e-6, -1.148e-6, 7.882e-7
0.120, -1.937e-6, -1.146e-6, 7.918e-7
0.119, -1.937e-6, -1.148e-6, 7.891e-7
0.118, -1.941e-6, -1.148e-6, 7.924e-7
0.117, -1.939e-6, -1.147e-6, 7.921e-7
0.116, -1.941e-6, -1.149e-6, 7.918e-7
0.115, -1.943e-6, -1.149e-6, 7.940e-7
0.114, -1.944e-6, -1.150e-6, 7.949e-7
0.113, -1.946e-6, -1.151e-6, 7.946e-7
0.112, -1.944e-6, -1.148e-6, 7.952e-7
0.111, -1.945e-6, -1.150e-6, 7.949e-7
0.110, -1.945e-6, -1.151e-6, 7.940e-7
0.109, -1.949e-6, -1.151e-6, 7.976e-7
0.108, -1.944e-6, -1.149e-6, 7.952e-7
0.107, -1.949e-6, -1.152e-6, 7.970e-7
0.106, -1.948e-6, -1.150e-6, 7.976e-7
0.105, -1.949e-6, -1.151e-6, 7.982e-7
0.104, -1.950e-6, -1.151e-6, 7.985e-7
0.103, -1.951e-6, -1.150e-6, 8.010e-7
0.102, -1.950e-6, -1.151e-6, 7.985e-7
0.101, -1.951e-6, -1.151e-6, 8.001e-7
0.100, -1.952e-6, -1.150e-6, 8.022e-7
0.099, -1.951e-6, -1.151e-6, 8.007e-7
0.098, -1.955e-6, -1.153e-6, 8.022e-7
0.097, -1.955e-6, -1.151e-6, 8.037e-7
0.096, -1.952e-6, -1.150e-6, 8.016e-7
0.095, -1.955e-6, -1.152e-6, 8.028e-7
0.094, -1.955e-6, -1.150e-6, 8.050e-7
0.093, -1.955e-6, -1.152e-6, 8.028e-7
0.092, -1.954e-6, -1.151e-6, 8.025e-7
0.091, -1.952e-6, -1.148e-6, 8.043e-7
0.090, -1.955e-6, -1.150e-6, 8.050e-7
0.089, -1.952e-6, -1.148e-6, 8.040e-7
0.088, -1.952e-6, -1.148e-6, 8.043e-7
0.087, -1.955e-6, -1.151e-6, 8.037e-7
0.086, -1.953e-6, -1.147e-6, 8.056e-7
0.085, -1.952e-6, -1.148e-6, 8.037e-7
0.084, -1.953e-6, -1.147e-6, 8.056e-7
0.083, -1.951e-6, -1.145e-6, 8.062e-7
0.082, -1.949e-6, -1.146e-6, 8.037e-7
0.081, -1.952e-6, -1.147e-6, 8.050e-7
0.080, -1.951e-6, -1.145e-6, 8.065e-7
0.079, -1.950e-6, -1.145e-6, 8.053e-7
0.078, -1.950e-6, -1.146e-6, 8.046e-7
0.077, -1.952e-6, -1.145e-6, 8.068e-7
0.076, -1.953e-6, -1.146e-6, 8.074e-7
0.075, -1.950e-6, -1.145e-6, 8.050e-7
0.074, -1.949e-6, -1.144e-6, 8.050e-7
0.073, -1.951e-6, -1.144e-6, 8.065e-7
0.072, -1.948e-6, -1.142e-6, 8.068e-7
0.071, -1.946e-6, -1.141e-6, 8.046e-7
0.070, -1.948e-6, -1.141e-6, 8.071e-7
0.069, -1.947e-6, -1.140e-6, 8.065e-7
0.068, -1.945e-6, -1.140e-6, 8.056e-7
0.067, -1.946e-6, -1.139e-6, 8.071e-7
0.066, -1.948e-6, -1.139e-6, 8.086e-7
0.065, -1.943e-6, -1.136e-6, 8.062e-7
0.064, -1.945e-6, -1.140e-6, 8.053e-7
0.063, -1.947e-6, -1.137e-6, 8.092e-7
0.062, -1.943e-6, -1.138e-6, 8.046e-7
0.061, -1.941e-6, -1.135e-6, 8.059e-7
0.060, -1.942e-6, -1.136e-6, 8.062e-7
0.059, -1.940e-6, -1.136e-6, 8.050e-7
0.058, -1.940e-6, -1.133e-6, 8.071e-7
0.057, -1.940e-6, -1.133e-6, 8.074e-7
0.056, -1.942e-6, -1.136e-6, 8.056e-7
0.055, -1.940e-6, -1.134e-6, 8.059e-7
0.054, -1.937e-6, -1.131e-6, 8.062e-7
0.053, -1.935e-6, -1.132e-6, 8.034e-7
0.052, -1.937e-6, -1.129e-6, 8.080e-7
0.051, -1.935e-6, -1.130e-6, 8.050e-7
0.050, -1.932e-6, -1.128e-6, 8.043e-7
0.049, -1.933e-6, -1.128e-6, 8.053e-7
0.048, -1.932e-6, -1.126e-6, 8.062e-7
0.047, -1.933e-6, -1.128e-6, 8.050e-7
0.046, -1.930e-6, -1.126e-6, 8.040e-7
0.045, -1.930e-6, -1.127e-6, 8.034e-7
0.044, -1.933e-6, -1.126e-6, 8.065e-7
0.043, -1.929e-6, -1.125e-6, 8.043e-7
0.042, -1.927e-6, -1.125e-6, 8.028e-7
0.041, -1.927e-6, -1.121e-6, 8.059e-7
0.040, -1.926e-6, -1.121e-6, 8.043e-7
0.039, -1.923e-6, -1.121e-6, 8.019e-7
0.038, -1.925e-6, -1.120e-6, 8.056e-7
0.037, -1.922e-6, -1.119e-6, 8.034e-7
0.036, -1.922e-6, -1.118e-6, 8.031e-7
0.035, -1.918e-6, -1.115e-6, 8.025e-7
0.034, -1.919e-6, -1.116e-6, 8.028e-7
0.033, -1.914e-6, -1.114e-6, 7.998e-7
0.032, -1.915e-6, -1.114e-6, 8.013e-7
0.031, -1.917e-6, -1.117e-6, 8.004e-7
0.030, -1.915e-6, -1.112e-6, 8.028e-7
0.029, -1.913e-6, -1.111e-6, 8.022e-7
0.028, -1.907e-6, -1.109e-6, 7.982e-7
0.027, -1.909e-6, -1.109e-6, 8.001e-7
0.026, -1.907e-6, -1.109e-6, 7.979e-7
0.025, -1.906e-6, -1.108e-6, 7.979e-7
0.024, -1.906e-6, -1.107e-6, 7.995e-7
0.023, -1.904e-6, -1.105e-6, 7.988e-7
0.022, -1.901e-6, -1.107e-6, 7.949e-7
0.021, -1.901e-6, -1.104e-6, 7.970e-7
0.020, -1.896e-6, -1.100e-6, 7.958e-7
0.019, -1.900e-6, -1.103e-6, 7.964e-7
0.018, -1.894e-6, -1.098e-6, 7.961e-7
0.017, -1.892e-6, -1.098e-6, 7.937e-7
0.016, -1.894e-6, -1.098e-6, 7.958e-7
0.015, -1.890e-6, -1.094e-6, 7.955e-7
0.014, -1.886e-6, -1.094e-6, 7.915e-7
0.013, -1.888e-6, -1.094e-6, 7.946e-7
0.012, -1.885e-6, -1.090e-6, 7.949e-7
0.011, -1.879e-6, -1.091e-6, 7.879e-7
0.010, -1.879e-6, -1.090e-6, 7.891e-7
0.009, -1.879e-6, -1.087e-6, 7.921e-7
0.008, -1.877e-6, -1.088e-6, 7.885e-7
0.007, -1.875e-6, -1.085e-6, 7.900e-7
0.006, -1.872e-6, -1.084e-6, 7.885e-7
0.005, -1.866e-6, -1.081e-6, 7.851e-7
0.004, -1.871e-6, -1.083e-6, 7.882e-7
0.003, -1.866e-6, -1.080e-6, 7.854e-7
0.002, -1.860e-6, -1.078e-6, 7.821e-7
0.001, -1.863e-6, -1.077e-6, 7.860e-7
0.000, -1.859e-6, -1.077e-6, 7.824e-7
-0.001, -1.858e-6, -1.075e-6, 7.836e-7
-0.002, -1.853e-6, -1.071e-6, 7.821e-7
-0.003, -1.851e-6, -1.071e-6, 7.793e-7
-0.004, -1.850e-6, -1.071e-6, 7.787e-7
-0.005, -1.844e-6, -1.066e-6, 7.775e-7
-0.006, -1.844e-6, -1.066e-6, 7.781e-7
-0.007, -1.845e-6, -1.066e-6, 7.787e-7
-0.008, -1.841e-6, -1.063e-6, 7.775e-7
-0.009, -1.839e-6, -1.065e-6, 7.744e-7
-0.010, -1.837e-6, -1.061e-6, 7.760e-7
-0.011, -1.836e-6, -1.060e-6, 7.757e-7
-0.012, -1.835e-6, -1.062e-6, 7.726e-7
-0.013, -1.832e-6, -1.058e-6, 7.741e-7
-0.014, -1.829e-6, -1.057e-6, 7.726e-7
-0.015, -1.826e-6, -1.057e-6, 7.696e-7
-0.016, -1.828e-6, -1.055e-6, 7.732e-7
-0.017, -1.822e-6, -1.053e-6, 7.686e-7
-0.018, -1.822e-6, -1.054e-6, 7.683e-7
-0.019, -1.821e-6, -1.050e-6, 7.708e-7
-0.020, -1.814e-6, -1.048e-6, 7.665e-7
-0.021, -1.815e-6, -1.049e-6, 7.659e-7
-0.022, -1.812e-6, -1.045e-6, 7.665e-7
-0.023, -1.811e-6, -1.047e-6, 7.641e-7
-0.024, -1.814e-6, -1.049e-6, 7.656e-7
-0.025, -1.806e-6, -1.042e-6, 7.641e-7
-0.026, -1.804e-6, -1.043e-6, 7.613e-7
-0.027, -1.803e-6, -1.040e-6, 7.625e-7
-0.028, -1.801e-6, -1.039e-6, 7.622e-7
-0.029, -1.800e-6, -1.042e-6, 7.580e-7
-0.030, -1.800e-6, -1.039e-6, 7.616e-7
-0.031, -1.794e-6, -1.035e-6, 7.583e-7
-0.032, -1.793e-6, -1.037e-6, 7.561e-7
-0.033, -1.795e-6, -1.035e-6, 7.601e-7
-0.034, -1.789e-6, -1.033e-6, 7.558e-7
-0.035, -1.789e-6, -1.033e-6, 7.555e-7
-0.036, -1.789e-6, -1.033e-6, 7.558e-7
-0.037, -1.782e-6, -1.029e-6, 7.531e-7
-0.038, -1.785e-6, -1.031e-6, 7.543e-7
-0.039, -1.782e-6, -1.027e-6, 7.546e-7
-0.040, -1.778e-6, -1.027e-6, 7.512e-7
-0.041, -1.778e-6, -1.027e-6, 7.512e-7
-0.042, -1.776e-6, -1.025e-6, 7.503e-7
-0.043, -1.774e-6, -1.025e-6, 7.491e-7
-0.044, -1.773e-6, -1.023e-6, 7.500e-7
-0.045, -1.771e-6, -1.020e-6, 7.509e-7
-0.046, -1.770e-6, -1.021e-6, 7.485e-7
-0.047, -1.769e-6, -1.020e-6, 7.491e-7
-0.048, -1.765e-6, -1.018e-6, 7.473e-7
-0.049, -1.766e-6, -1.020e-6, 7.458e-7
-0.050, -1.762e-6, -1.016e-6, 7.461e-7
-0.051, -1.759e-6, -1.016e-6, 7.424e-7
-0.052, -1.758e-6, -1.015e-6, 7.430e-7
-0.053, -1.756e-6, -1.014e-6, 7.424e-7
-0.054, -1.754e-6, -1.013e-6, 7.418e-7
-0.055, -1.754e-6, -1.013e-6, 7.409e-7
-0.056, -1.753e-6, -1.011e-6, 7.421e-7
-0.057, -1.749e-6, -1.011e-6, 7.372e-7
-0.058, -1.749e-6, -1.010e-6, 7.393e-7
-0.059, -1.747e-6, -1.008e-6, 7.390e-7
-0.060, -1.745e-6, -1.009e-6, 7.360e-7
-0.061, -1.745e-6, -1.007e-6, 7.384e-7
-0.062, -1.742e-6, -1.006e-6, 7.351e-7
-0.063, -1.741e-6, -1.006e-6, 7.345e-7
-0.064, -1.738e-6, -1.003e-6, 7.354e-7
-0.065, -1.737e-6, -1.003e-6, 7.335e-7
-0.066, -1.735e-6, -1.004e-6, 7.305e-7
-0.067, -1.735e-6, -1.001e-6, 7.335e-7
-0.068, -1.727e-6, -9.979e-7, 7.296e-7
-0.069, -1.732e-6, -1.000e-6, 7.317e-7
-0.070, -1.728e-6, -9.970e-7, 7.308e-7
-0.071, -1.727e-6, -9.994e-7, 7.274e-7
-0.072, -1.725e-6, -9.973e-7, 7.281e-7
-0.073, -1.722e-6, -9.952e-7, 7.268e-7
-0.074, -1.721e-6, -9.946e-7, 7.262e-7
-0.075, -1.721e-6, -9.943e-7, 7.265e-7
-0.076, -1.718e-6, -9.906e-7, 7.271e-7
-0.077, -1.711e-6, -9.900e-7, 7.210e-7
-0.078, -1.716e-6, -9.915e-7, 7.247e-7
-0.079, -1.716e-6, -9.897e-7, 7.259e-7
-0.080, -1.709e-6, -9.891e-7, 7.201e-7
-0.081, -1.711e-6, -9.888e-7, 7.219e-7
-0.082, -1.707e-6, -9.866e-7, 7.201e-7
-0.083, -1.705e-6, -9.869e-7, 7.180e-7
-0.084, -1.703e-6, -9.842e-7, 7.186e-7
-0.085, -1.702e-6, -9.851e-7, 7.171e-7
-0.086, -1.699e-6, -9.824e-7, 7.168e-7
-0.087, -1.700e-6, -9.817e-7, 7.180e-7
-0.088, -1.697e-6, -9.814e-7, 7.152e-7
-0.089, -1.698e-6, -9.830e-7, 7.149e-7
-0.090, -1.694e-6, -9.805e-7, 7.137e-7
-0.091, -1.693e-6, -9.805e-7, 7.122e-7
-0.092, -1.692e-6, -9.793e-7, 7.125e-7
-0.093, -1.690e-6, -9.781e-7, 7.116e-7
-0.094, -1.688e-6, -9.781e-7, 7.100e-7
-0.095, -1.687e-6, -9.769e-7, 7.100e-7
-0.096, -1.684e-6, -9.756e-7, 7.082e-7
-0.097, -1.684e-6, -9.763e-7, 7.073e-7
-0.098, -1.684e-6, -9.750e-7, 7.088e-7
-0.099, -1.681e-6, -9.735e-7, 7.070e-7
-0.100, -1.680e-6, -9.732e-7, 7.070e-7
-0.101, -1.681e-6, -9.723e-7, 7.082e-7
-0.102, -1.678e-6, -9.726e-7, 7.055e-7
-0.103, -1.676e-6, -9.720e-7, 7.039e-7
-0.104, -1.673e-6, -9.695e-7, 7.036e-7
-0.105, -1.677e-6, -9.735e-7, 7.033e-7
-0.106, -1.673e-6, -9.689e-7, 7.039e-7
-0.107, -1.673e-6, -9.695e-7, 7.030e-7
-0.108, -1.668e-6, -9.683e-7, 6.994e-7
-0.109, -1.671e-6, -9.683e-7, 7.027e-7
-0.110, -1.670e-6, -9.692e-7, 7.003e-7
-0.111, -1.669e-6, -9.695e-7, 6.994e-7
-0.112, -1.666e-6, -9.659e-7, 6.997e-7
-0.113, -1.666e-6, -9.671e-7, 6.994e-7
-0.114, -1.661e-6, -9.644e-7, 6.963e-7
-0.115, -1.665e-6, -9.671e-7, 6.978e-7
-0.116, -1.662e-6, -9.634e-7, 6.988e-7
-0.117, -1.662e-6, -9.650e-7, 6.969e-7
-0.118, -1.664e-6, -9.637e-7, 7.003e-7
-0.119, -1.663e-6, -9.656e-7, 6.972e-7
-0.120, -1.660e-6, -9.647e-7, 6.951e-7
-0.121, -1.659e-6, -9.622e-7, 6.966e-7
-0.122, -1.658e-6, -9.613e-7, 6.963e-7
-0.123, -1.657e-6, -9.622e-7, 6.945e-7
-0.124, -1.658e-6, -9.616e-7, 6.960e-7
-0.125, -1.655e-6, -9.601e-7, 6.951e-7
-0.126, -1.660e-6, -9.640e-7, 6.963e-7
-0.127, -1.655e-6, -9.598e-7, 6.948e-7
-0.128, -1.650e-6, -9.589e-7, 6.914e-7
-0.129, -1.655e-6, -9.607e-7, 6.942e-7
-0.130, -1.652e-6, -9.598e-7, 6.920e-7
-0.131, -1.649e-6, -9.576e-7, 6.917e-7
-0.132, -1.651e-6, -9.583e-7, 6.923e-7
-0.133, -1.649e-6, -9.589e-7, 6.899e-7
-0.134, -1.655e-6, -9.637e-7, 6.908e-7
-0.135, -1.652e-6, -9.607e-7, 6.911e-7
-0.136, -1.647e-6, -9.567e-7, 6.899e-7
-0.137, -1.652e-6, -9.613e-7, 6.908e-7
-0.138, -1.648e-6, -9.583e-7, 6.893e-7
-0.139, -1.647e-6, -9.576e-7, 6.893e-7
-0.140, -1.650e-6, -9.589e-7, 6.908e-7
-0.141, -1.646e-6, -9.567e-7, 6.890e-7
-0.142, -1.644e-6, -9.549e-7, 6.890e-7
-0.143, -1.646e-6, -9.546e-7, 6.914e-7
-0.144, -1.643e-6, -9.552e-7, 6.878e-7
-0.145, -1.648e-6, -9.604e-7, 6.881e-7
-0.146, -1.644e-6, -9.549e-7, 6.893e-7
-0.147, -1.641e-6, -9.543e-7, 6.872e-7
-0.148, -1.641e-6, -9.540e-7, 6.869e-7
-0.149, -1.641e-6, -9.534e-7, 6.881e-7
-0.150, -1.638e-6, -9.525e-7, 6.853e-7
-0.151, -1.639e-6, -9.537e-7, 6.853e-7
-0.152, -1.637e-6, -9.506e-7, 6.869e-7
-0.153, -1.635e-6, -9.528e-7, 6.823e-7
-0.154, -1.636e-6, -9.528e-7, 6.835e-7
-0.155, -1.635e-6, -9.497e-7, 6.856e-7
-0.156, -1.632e-6, -9.494e-7, 6.829e-7
-0.157, -1.635e-6, -9.515e-7, 6.838e-7
-0.158, -1.633e-6, -9.488e-7, 6.841e-7
-0.159, -1.632e-6, -9.506e-7, 6.817e-7
-0.160, -1.633e-6, -9.500e-7, 6.832e-7
-0.161, -1.629e-6, -9.451e-7, 6.835e-7
-0.162, -1.632e-6, -9.509e-7, 6.814e-7
-0.163, -1.633e-6, -9.509e-7, 6.820e-7
-0.164, -1.629e-6, -9.467e-7, 6.826e-7
-0.165, -1.628e-6, -9.470e-7, 6.811e-7
-0.166, -1.630e-6, -9.460e-7, 6.835e-7
-0.167, -1.629e-6, -9.485e-7, 6.808e-7
-0.168, -1.627e-6, -9.473e-7, 6.801e-7
-0.169, -1.626e-6, -9.451e-7, 6.804e-7
-0.170, -1.623e-6, -9.433e-7, 6.801e-7
-0.171, -1.627e-6, -9.485e-7, 6.783e-7
-0.172, -1.623e-6, -9.439e-7, 6.795e-7
-0.173, -1.623e-6, -9.442e-7, 6.786e-7
-0.174, -1.620e-6, -9.412e-7, 6.789e-7
-0.175, -1.620e-6, -9.424e-7, 6.780e-7
-0.176, -1.620e-6, -9.421e-7, 6.777e-7
-0.177, -1.623e-6, -9.445e-7, 6.783e-7
-0.178, -1.631e-6, -9.537e-7, 6.774e-7
-0.179, -1.616e-6, -9.396e-7, 6.765e-7
-0.180, -1.619e-6, -9.412e-7, 6.783e-7
-0.181, -1.616e-6, -9.390e-7, 6.765e-7
-0.182, -1.616e-6, -9.409e-7, 6.746e-7
-0.183, -1.613e-6, -9.348e-7, 6.780e-7
-0.184, -1.621e-6, -9.445e-7, 6.762e-7
-0.185, -1.614e-6, -9.393e-7, 6.750e-7
-0.186, -1.616e-6, -9.396e-7, 6.768e-7
-0.187, -1.609e-6, -9.357e-7, 6.737e-7
-0.188, -1.612e-6, -9.396e-7, 6.728e-7
-0.189, -1.610e-6, -9.348e-7, 6.750e-7
-0.190, -1.610e-6, -9.366e-7, 6.737e-7
-0.191, -1.614e-6, -9.402e-7, 6.740e-7
-0.192, -1.610e-6, -9.348e-7, 6.753e-7
-0.193, -1.612e-6, -9.393e-7, 6.722e-7
-0.194, -1.608e-6, -9.335e-7, 6.746e-7
-0.195, -1.607e-6, -9.335e-7, 6.737e-7
-0.196, -1.609e-6, -9.366e-7, 6.728e-7
-0.197, -1.609e-6, -9.326e-7, 6.765e-7
-0.198, -1.605e-6, -9.308e-7, 6.737e-7
-0.199, -1.604e-6, -9.314e-7, 6.722e-7
-0.200, -1.606e-6, -9.329e-7, 6.731e-7
-0.201, -1.602e-6, -9.302e-7, 6.719e-7
-0.202, -1.610e-6, -9.378e-7, 6.719e-7
-0.203, -1.602e-6, -9.290e-7, 6.731e-7
-0.204, -1.601e-6, -9.283e-7, 6.722e-7
-0.205, -1.602e-6, -9.293e-7, 6.725e-7
-0.206, -1.604e-6, -9.293e-7, 6.750e-7
-0.207, -1.617e-6, -9.454e-7, 6.716e-7
-0.208, -1.602e-6, -9.305e-7, 6.713e-7
-0.209, -1.601e-6, -9.296e-7, 6.716e-7
-0.210, -1.600e-6, -9.290e-7, 6.710e-7
-0.211, -1.600e-6, -9.290e-7, 6.710e-7
-0.212, -1.600e-6, -9.268e-7, 6.731e-7
-0.213, -1.596e-6, -9.277e-7, 6.685e-7
-0.214, -1.598e-6, -9.277e-7, 6.707e-7
-0.215, -1.599e-6, -9.256e-7, 6.731e-7
-0.216, -1.596e-6, -9.265e-7, 6.695e-7
-0.217, -1.603e-6, -9.317e-7, 6.710e-7
-0.218, -1.598e-6, -9.241e-7, 6.734e-7
-0.219, -1.599e-6, -9.293e-7, 6.701e-7
-0.220, -1.599e-6, -9.259e-7, 6.728e-7
-0.221, -1.593e-6, -9.244e-7, 6.682e-7
-0.222, -1.596e-6, -9.268e-7, 6.692e-7
-0.223, -1.594e-6, -9.235e-7, 6.701e-7
-0.224, -1.593e-6, -9.241e-7, 6.685e-7
-0.225, -1.591e-6, -9.216e-7, 6.695e-7
-0.226, -1.592e-6, -9.213e-7, 6.704e-7
-0.227, -1.587e-6, -9.186e-7, 6.685e-7
-0.228, -1.589e-6, -9.180e-7, 6.707e-7
-0.229, -1.591e-6, -9.222e-7, 6.688e-7
-0.230, -1.586e-6, -9.192e-7, 6.667e-7
-0.231, -1.594e-6, -9.253e-7, 6.688e-7
-0.232, -1.596e-6, -9.277e-7, 6.682e-7
-0.233, -1.587e-6, -9.192e-7, 6.676e-7
-0.234, -1.594e-6, -9.250e-7, 6.695e-7
-0.235, -1.583e-6, -9.180e-7, 6.655e-7
-0.236, -1.583e-6, -9.164e-7, 6.670e-7
-0.237, -1.581e-6, -9.143e-7, 6.667e-7
-0.238, -1.578e-6, -9.143e-7, 6.640e-7
-0.239, -1.579e-6, -9.128e-7, 6.664e-7
-0.240, -1.577e-6, -9.110e-7, 6.661e-7
-0.241, -1.579e-6, -9.158e-7, 6.627e-7
-0.242, -1.580e-6, -9.168e-7, 6.637e-7
-0.243, -1.583e-6, -9.171e-7, 6.661e-7
-0.244, -1.577e-6, -9.128e-7, 6.646e-7
-0.245, -1.572e-6, -9.085e-7, 6.637e-7
-0.246, -1.579e-6, -9.143e-7, 6.649e-7
-0.247, -1.574e-6, -9.113e-7, 6.627e-7
-0.248, -1.574e-6, -9.094e-7, 6.649e-7
-0.249, -1.572e-6, -9.091e-7, 6.631e-7
-0.250, -1.575e-6, -9.131e-7, 6.621e-7
-0.251, -1.573e-6, -9.100e-7, 6.634e-7
-0.252, -1.567e-6, -9.058e-7, 6.615e-7
-0.253, -1.568e-6, -9.076e-7, 6.606e-7
-0.254, -1.565e-6, -9.036e-7, 6.609e-7
-0.255, -1.567e-6, -9.052e-7, 6.615e-7
-0.256, -1.561e-6, -9.033e-7, 6.582e-7
-0.257, -1.563e-6, -9.033e-7, 6.597e-7
-0.258, -1.558e-6, -9.009e-7, 6.569e-7
-0.259, -1.559e-6, -9.006e-7, 6.585e-7
-0.260, -1.560e-6, -9.024e-7, 6.576e-7
-0.261, -1.559e-6, -9.000e-7, 6.588e-7
-0.262, -1.555e-6, -8.975e-7, 6.579e-7
-0.263, -1.559e-6, -9.009e-7, 6.579e-7
-0.264, -1.554e-6, -8.978e-7, 6.563e-7
-0.265, -1.555e-6, -8.987e-7, 6.563e-7
-0.266, -1.557e-6, -9.000e-7, 6.566e-7
-0.267, -1.553e-6, -8.969e-7, 6.563e-7
-0.268, -1.553e-6, -8.957e-7, 6.576e-7
-0.269, -1.556e-6, -9.030e-7, 6.527e-7
-0.270, -1.547e-6, -8.945e-7, 6.527e-7
-0.271, -1.546e-6, -8.929e-7, 6.530e-7
-0.272, -1.549e-6, -8.951e-7, 6.536e-7
-0.273, -1.550e-6, -8.948e-7, 6.551e-7
-0.274, -1.548e-6, -8.926e-7, 6.551e-7
-0.275, -1.551e-6, -8.975e-7, 6.536e-7
-0.276, -1.566e-6, -9.134e-7, 6.524e-7
-0.277, -1.546e-6, -8.923e-7, 6.539e-7
-0.278, -1.545e-6, -8.954e-7, 6.499e-7
-0.279, -1.541e-6, -8.881e-7, 6.533e-7
-0.280, -1.541e-6, -8.887e-7, 6.521e-7
-0.281, -1.543e-6, -8.917e-7, 6.515e-7
-0.282, -1.546e-6, -8.945e-7, 6.515e-7
-0.283, -1.538e-6, -8.865e-7, 6.511e-7
-0.284, -1.543e-6, -8.945e-7, 6.481e-7
-0.285, -1.539e-6, -8.884e-7, 6.508e-7
-0.286, -1.534e-6, -8.829e-7, 6.508e-7
-0.287, -1.539e-6, -8.905e-7, 6.481e-7
-0.288, -1.535e-6, -8.859e-7, 6.487e-7
-0.289, -1.533e-6, -8.850e-7, 6.484e-7
-0.290, -1.540e-6, -8.942e-7, 6.463e-7
-0.291, -1.535e-6, -8.853e-7, 6.496e-7
-0.292, -1.536e-6, -8.896e-7, 6.460e-7
-0.293, -1.550e-6, -9.015e-7, 6.481e-7
-0.294, -1.532e-6, -8.832e-7, 6.484e-7
-0.295, -1.532e-6, -8.847e-7, 6.472e-7
-0.296, -1.529e-6, -8.826e-7, 6.463e-7
-0.297, -1.527e-6, -8.798e-7, 6.475e-7
-0.298, -1.534e-6, -8.893e-7, 6.444e-7
-0.299, -1.528e-6, -8.807e-7, 6.475e-7
-0.300, -1.528e-6, -8.847e-7, 6.429e-7
-0.301, -1.524e-6, -8.807e-7, 6.432e-7
-0.302, -1.525e-6, -8.789e-7, 6.463e-7
-0.303, -1.523e-6, -8.786e-7, 6.447e-7
-0.304, -1.526e-6, -8.823e-7, 6.435e-7
-0.305, -1.527e-6, -8.826e-7, 6.447e-7
-0.306, -1.527e-6, -8.826e-7, 6.441e-7
-0.307, -1.523e-6, -8.804e-7, 6.426e-7
-0.308, -1.529e-6, -8.835e-7, 6.454e-7
-0.309, -1.529e-6, -8.853e-7, 6.438e-7
-0.310, -1.524e-6, -8.820e-7, 6.423e-7
-0.311, -1.522e-6, -8.780e-7, 6.438e-7
-0.312, -1.524e-6, -8.814e-7, 6.426e-7
-0.313, -1.522e-6, -8.798e-7, 6.417e-7
-0.314, -1.516e-6, -8.753e-7, 6.405e-7
-0.315, -1.515e-6, -8.740e-7, 6.408e-7
-0.316, -1.518e-6, -8.756e-7, 6.426e-7
-0.317, -1.517e-6, -8.768e-7, 6.399e-7
-0.318, -1.514e-6, -8.765e-7, 6.380e-7
-0.319, -1.516e-6, -8.759e-7, 6.402e-7
-0.320, -1.514e-6, -8.749e-7, 6.389e-7
-0.321, -1.512e-6, -8.728e-7, 6.392e-7
-0.322, -1.517e-6, -8.753e-7, 6.417e-7
-0.323, -1.507e-6, -8.710e-7, 6.362e-7
-0.324, -1.511e-6, -8.737e-7, 6.368e-7
-0.325, -1.517e-6, -8.792e-7, 6.377e-7
-0.326, -1.507e-6, -8.701e-7, 6.371e-7
-0.327, -1.512e-6, -8.759e-7, 6.362e-7
-0.328, -1.509e-6, -8.731e-7, 6.356e-7
-0.329, -1.503e-6, -8.698e-7, 6.334e-7
-0.330, -1.508e-6, -8.725e-7, 6.353e-7
-0.331, -1.507e-6, -8.719e-7, 6.356e-7
-0.332, -1.502e-6, -8.698e-7, 6.325e-7
-0.333, -1.506e-6, -8.731e-7, 6.328e-7
-0.334, -1.499e-6, -8.652e-7, 6.341e-7
-0.335, -1.499e-6, -8.667e-7, 6.319e-7
-0.336, -1.505e-6, -8.725e-7, 6.322e-7
-0.337, -1.502e-6, -8.704e-7, 6.319e-7
-0.338, -1.501e-6, -8.698e-7, 6.310e-7
-0.339, -1.505e-6, -8.731e-7, 6.319e-7
-0.340, -1.501e-6, -8.698e-7, 6.310e-7
-0.341, -1.497e-6, -8.679e-7, 6.289e-7
-0.342, -1.506e-6, -8.756e-7, 6.301e-7
-0.343, -1.496e-6, -8.679e-7, 6.283e-7
-0.344, -1.496e-6, -8.673e-7, 6.292e-7
-0.345, -1.497e-6, -8.673e-7, 6.295e-7
-0.346, -1.501e-6, -8.719e-7, 6.289e-7
-0.347, -1.495e-6, -8.664e-7, 6.286e-7
-0.348, -1.493e-6, -8.667e-7, 6.261e-7
-0.349, -1.493e-6, -8.667e-7, 6.258e-7
-0.350, -1.501e-6, -8.759e-7, 6.255e-7
-0.351, -1.492e-6, -8.664e-7, 6.255e-7
-0.352, -1.491e-6, -8.670e-7, 6.240e-7
-0.353, -1.490e-6, -8.652e-7, 6.249e-7
-0.354, -1.495e-6, -8.704e-7, 6.246e-7
-0.355, -1.487e-6, -8.655e-7, 6.219e-7
-0.356, -1.492e-6, -8.673e-7, 6.246e-7
-0.357, -1.503e-6, -8.789e-7, 6.237e-7
-0.358, -1.489e-6, -8.664e-7, 6.228e-7
-0.359, -1.485e-6, -8.627e-7, 6.222e-7
-0.360, -1.491e-6, -8.707e-7, 6.206e-7
-0.361, -1.486e-6, -8.640e-7, 6.225e-7
-0.362, -1.486e-6, -8.633e-7, 6.222e-7
-0.363, -1.488e-6, -8.673e-7, 6.203e-7
-0.364, -1.488e-6, -8.664e-7, 6.219e-7
-0.365, -1.483e-6, -8.627e-7, 6.203e-7
-0.366, -1.481e-6, -8.649e-7, 6.164e-7
-0.367, -1.489e-6, -8.673e-7, 6.215e-7
-0.368, -1.486e-6, -8.655e-7, 6.206e-7
-0.369, -1.487e-6, -8.698e-7, 6.173e-7
-0.370, -1.494e-6, -8.749e-7, 6.194e-7
-0.371, -1.489e-6, -8.701e-7, 6.188e-7
-0.372, -1.494e-6, -8.762e-7, 6.176e-7
-0.373, -1.488e-6, -8.676e-7, 6.206e-7
-0.374, -1.482e-6, -8.640e-7, 6.176e-7
-0.375, -1.485e-6, -8.673e-7, 6.176e-7
-0.376, -1.487e-6, -8.685e-7, 6.182e-7
-0.377, -1.483e-6, -8.655e-7, 6.179e-7
-0.378, -1.485e-6, -8.691e-7, 6.154e-7
-0.379, -1.489e-6, -8.698e-7, 6.197e-7
-0.380, -1.485e-6, -8.695e-7, 6.154e-7
-0.381, -1.492e-6, -8.743e-7, 6.173e-7
-0.382, -1.487e-6, -8.725e-7, 6.145e-7
-0.383, -1.489e-6, -8.722e-7, 6.173e-7
-0.384, -1.485e-6, -8.682e-7, 6.164e-7
-0.385, -1.489e-6, -8.710e-7, 6.182e-7
-0.386, -1.483e-6, -8.673e-7, 6.161e-7
-0.387, -1.489e-6, -8.749e-7, 6.145e-7
-0.388, -1.486e-6, -8.731e-7, 6.133e-7
-0.389, -1.492e-6, -8.756e-7, 6.161e-7
-0.390, -1.492e-6, -8.768e-7, 6.154e-7
-0.391, -1.491e-6, -8.756e-7, 6.158e-7
-0.392, -1.490e-6, -8.743e-7, 6.154e-7
-0.393, -1.488e-6, -8.716e-7, 6.161e-7
-0.394, -1.483e-6, -8.685e-7, 6.145e-7
-0.395, -1.492e-6, -8.777e-7, 6.139e-7
-0.396, -1.490e-6, -8.737e-7, 6.161e-7
-0.397, -1.491e-6, -8.768e-7, 6.139e-7
-0.398, -1.489e-6, -8.746e-7, 6.148e-7
-0.399, -1.488e-6, -8.749e-7, 6.130e-7
-0.400, -1.486e-6, -8.725e-7, 6.133e-7
