Mar. 20, 2018   14:14:39
Square Wave Voltammetry
File: c:\users\electrochemist\desktop\2018\20032018_unbufarray_unpap\23_g3_ph6,29_3.txt
Data Source:  Experiment
Instrument Model:  CHI1040A
Header: 
Note: 

Init E (V) = 0.7
Final E (V) = -0.4
Incr E (V) = 0.001
Amplitude (V) = 0.1
Frequency (Hz) = 152
Quiet Time (sec) = 2
Sensitivity (A/V) = 1e-6

Difference:

Forward:

Reverse:

Potential/V, Diff(i/A), For(i/A), Rev(i/A)

0.699, -5.694e-7, -1.615e-7, 4.079e-7
0.698, -7.138e-7, -3.424e-7, 3.713e-7
0.697, -7.168e-7, -3.553e-7, 3.616e-7
0.696, -7.153e-7, -3.565e-7, 3.588e-7
0.695, -7.125e-7, -3.568e-7, 3.558e-7
0.694, -7.101e-7, -3.565e-7, 3.536e-7
0.693, -7.122e-7, -3.586e-7, 3.536e-7
0.692, -7.064e-7, -3.568e-7, 3.497e-7
0.691, -7.074e-7, -3.580e-7, 3.494e-7
0.690, -7.067e-7, -3.568e-7, 3.500e-7
0.689, -7.077e-7, -3.601e-7, 3.475e-7
0.688, -7.080e-7, -3.604e-7, 3.475e-7
0.687, -7.040e-7, -3.589e-7, 3.451e-7
0.686, -7.031e-7, -3.598e-7, 3.433e-7
0.685, -7.043e-7, -3.595e-7, 3.448e-7
0.684, -7.019e-7, -3.601e-7, 3.417e-7
0.683, -7.022e-7, -3.611e-7, 3.411e-7
0.682, -6.997e-7, -3.592e-7, 3.405e-7
0.681, -6.994e-7, -3.592e-7, 3.402e-7
0.680, -7.003e-7, -3.607e-7, 3.396e-7
0.679, -7.009e-7, -3.614e-7, 3.396e-7
0.678, -6.988e-7, -3.611e-7, 3.378e-7
0.677, -6.979e-7, -3.620e-7, 3.359e-7
0.676, -6.967e-7, -3.598e-7, 3.368e-7
0.675, -6.985e-7, -3.617e-7, 3.368e-7
0.674, -7.006e-7, -3.635e-7, 3.372e-7
0.673, -6.976e-7, -3.617e-7, 3.359e-7
0.672, -6.970e-7, -3.623e-7, 3.347e-7
0.671, -6.958e-7, -3.617e-7, 3.341e-7
0.670, -6.952e-7, -3.620e-7, 3.332e-7
0.669, -6.939e-7, -3.614e-7, 3.326e-7
0.668, -6.945e-7, -3.601e-7, 3.344e-7
0.667, -6.936e-7, -3.629e-7, 3.307e-7
0.666, -6.948e-7, -3.638e-7, 3.310e-7
0.665, -6.952e-7, -3.632e-7, 3.320e-7
0.664, -6.936e-7, -3.626e-7, 3.310e-7
0.663, -6.930e-7, -3.644e-7, 3.286e-7
0.662, -6.927e-7, -3.641e-7, 3.286e-7
0.661, -6.903e-7, -3.614e-7, 3.289e-7
0.660, -6.921e-7, -3.632e-7, 3.289e-7
0.659, -6.939e-7, -3.635e-7, 3.304e-7
0.658, -6.900e-7, -3.650e-7, 3.249e-7
0.657, -6.909e-7, -3.644e-7, 3.265e-7
0.656, -6.900e-7, -3.629e-7, 3.271e-7
0.655, -6.869e-7, -3.635e-7, 3.234e-7
0.654, -6.900e-7, -3.647e-7, 3.253e-7
0.653, -6.912e-7, -3.635e-7, 3.277e-7
0.652, -6.906e-7, -3.653e-7, 3.253e-7
0.651, -6.897e-7, -3.650e-7, 3.246e-7
0.650, -6.909e-7, -3.650e-7, 3.259e-7
0.649, -6.875e-7, -3.659e-7, 3.216e-7
0.648, -6.894e-7, -3.656e-7, 3.237e-7
0.647, -6.884e-7, -3.644e-7, 3.240e-7
0.646, -6.881e-7, -3.662e-7, 3.219e-7
0.645, -6.881e-7, -3.656e-7, 3.225e-7
0.644, -6.866e-7, -3.656e-7, 3.210e-7
0.643, -6.866e-7, -3.659e-7, 3.207e-7
0.642, -6.848e-7, -3.638e-7, 3.210e-7
0.641, -6.863e-7, -3.665e-7, 3.198e-7
0.640, -6.854e-7, -3.662e-7, 3.191e-7
0.639, -6.866e-7, -3.665e-7, 3.201e-7
0.638, -6.884e-7, -3.687e-7, 3.198e-7
0.637, -6.866e-7, -3.672e-7, 3.195e-7
0.636, -6.845e-7, -3.653e-7, 3.191e-7
0.635, -6.848e-7, -3.665e-7, 3.182e-7
0.634, -6.863e-7, -3.675e-7, 3.188e-7
0.633, -6.842e-7, -3.662e-7, 3.179e-7
0.632, -6.832e-7, -3.668e-7, 3.164e-7
0.631, -6.839e-7, -3.668e-7, 3.170e-7
0.630, -6.854e-7, -3.672e-7, 3.182e-7
0.629, -6.848e-7, -3.699e-7, 3.149e-7
0.628, -6.863e-7, -3.681e-7, 3.182e-7
0.627, -6.829e-7, -3.681e-7, 3.149e-7
0.626, -6.869e-7, -3.711e-7, 3.158e-7
0.625, -6.863e-7, -3.693e-7, 3.170e-7
0.624, -6.808e-7, -3.662e-7, 3.146e-7
0.623, -6.866e-7, -3.708e-7, 3.158e-7
0.622, -6.869e-7, -3.693e-7, 3.176e-7
0.621, -6.845e-7, -3.705e-7, 3.140e-7
0.620, -6.875e-7, -3.705e-7, 3.170e-7
0.619, -6.842e-7, -3.693e-7, 3.149e-7
0.618, -6.863e-7, -3.730e-7, 3.133e-7
0.617, -6.857e-7, -3.717e-7, 3.140e-7
0.616, -6.845e-7, -3.714e-7, 3.130e-7
0.615, -6.863e-7, -3.730e-7, 3.133e-7
0.614, -6.878e-7, -3.714e-7, 3.164e-7
0.613, -6.872e-7, -3.726e-7, 3.146e-7
0.612, -6.863e-7, -3.736e-7, 3.127e-7
0.611, -6.890e-7, -3.733e-7, 3.158e-7
0.610, -6.863e-7, -3.730e-7, 3.133e-7
0.609, -6.884e-7, -3.745e-7, 3.140e-7
0.608, -6.887e-7, -3.748e-7, 3.140e-7
0.607, -6.848e-7, -3.717e-7, 3.130e-7
0.606, -6.894e-7, -3.769e-7, 3.124e-7
0.605, -6.909e-7, -3.760e-7, 3.149e-7
0.604, -6.897e-7, -3.745e-7, 3.152e-7
0.603, -6.906e-7, -3.763e-7, 3.143e-7
0.602, -6.921e-7, -3.772e-7, 3.149e-7
0.601, -6.894e-7, -3.763e-7, 3.130e-7
0.600, -6.921e-7, -3.784e-7, 3.137e-7
0.599, -6.930e-7, -3.775e-7, 3.155e-7
0.598, -6.884e-7, -3.763e-7, 3.121e-7
0.597, -6.924e-7, -3.775e-7, 3.149e-7
0.596, -6.921e-7, -3.778e-7, 3.143e-7
0.595, -6.933e-7, -3.791e-7, 3.143e-7
0.594, -6.958e-7, -3.797e-7, 3.161e-7
0.593, -6.955e-7, -3.809e-7, 3.146e-7
0.592, -6.924e-7, -3.794e-7, 3.130e-7
0.591, -6.955e-7, -3.806e-7, 3.149e-7
0.590, -6.955e-7, -3.821e-7, 3.133e-7
0.589, -6.970e-7, -3.839e-7, 3.130e-7
0.588, -6.942e-7, -3.800e-7, 3.143e-7
0.587, -6.952e-7, -3.824e-7, 3.127e-7
0.586, -6.955e-7, -3.830e-7, 3.124e-7
0.585, -6.988e-7, -3.818e-7, 3.170e-7
0.584, -6.973e-7, -3.849e-7, 3.124e-7
0.583, -6.964e-7, -3.839e-7, 3.124e-7
0.582, -6.997e-7, -3.827e-7, 3.170e-7
0.581, -6.979e-7, -3.852e-7, 3.127e-7
0.580, -6.982e-7, -3.845e-7, 3.137e-7
0.579, -7.003e-7, -3.861e-7, 3.143e-7
0.578, -7.009e-7, -3.870e-7, 3.140e-7
0.577, -7.013e-7, -3.849e-7, 3.164e-7
0.576, -6.985e-7, -3.864e-7, 3.121e-7
0.575, -6.994e-7, -3.870e-7, 3.124e-7
0.574, -7.000e-7, -3.852e-7, 3.149e-7
0.573, -7.009e-7, -3.873e-7, 3.137e-7
0.572, -7.025e-7, -3.885e-7, 3.140e-7
0.571, -7.022e-7, -3.864e-7, 3.158e-7
0.570, -7.040e-7, -3.888e-7, 3.152e-7
0.569, -7.028e-7, -3.888e-7, 3.140e-7
0.568, -7.040e-7, -3.885e-7, 3.155e-7
0.567, -7.013e-7, -3.888e-7, 3.124e-7
0.566, -7.049e-7, -3.900e-7, 3.149e-7
0.565, -7.049e-7, -3.891e-7, 3.158e-7
0.564, -7.046e-7, -3.907e-7, 3.140e-7
0.563, -7.043e-7, -3.907e-7, 3.137e-7
0.562, -7.043e-7, -3.900e-7, 3.143e-7
0.561, -7.077e-7, -3.922e-7, 3.155e-7
0.560, -7.089e-7, -3.934e-7, 3.155e-7
0.559, -7.064e-7, -3.913e-7, 3.152e-7
0.558, -7.071e-7, -3.934e-7, 3.137e-7
0.557, -7.083e-7, -3.931e-7, 3.152e-7
0.556, -7.067e-7, -3.931e-7, 3.137e-7
0.555, -7.064e-7, -3.934e-7, 3.130e-7
0.554, -7.086e-7, -3.943e-7, 3.143e-7
0.553, -7.080e-7, -3.940e-7, 3.140e-7
0.552, -7.104e-7, -3.952e-7, 3.152e-7
0.551, -7.089e-7, -3.940e-7, 3.149e-7
0.550, -7.074e-7, -3.946e-7, 3.127e-7
0.549, -7.098e-7, -3.955e-7, 3.143e-7
0.548, -7.098e-7, -3.971e-7, 3.127e-7
0.547, -7.101e-7, -3.971e-7, 3.130e-7
0.546, -7.138e-7, -3.986e-7, 3.152e-7
0.545, -7.098e-7, -3.964e-7, 3.133e-7
0.544, -7.116e-7, -3.980e-7, 3.137e-7
0.543, -7.128e-7, -3.977e-7, 3.152e-7
0.542, -7.138e-7, -3.992e-7, 3.146e-7
0.541, -7.135e-7, -3.998e-7, 3.137e-7
0.540, -7.150e-7, -3.986e-7, 3.164e-7
0.539, -7.128e-7, -3.992e-7, 3.137e-7
0.538, -7.153e-7, -4.001e-7, 3.152e-7
0.537, -7.171e-7, -4.016e-7, 3.155e-7
0.536, -7.159e-7, -4.016e-7, 3.143e-7
0.535, -7.199e-7, -4.035e-7, 3.164e-7
0.534, -7.174e-7, -4.013e-7, 3.161e-7
0.533, -7.180e-7, -4.044e-7, 3.137e-7
0.532, -7.205e-7, -4.038e-7, 3.167e-7
0.531, -7.199e-7, -4.035e-7, 3.164e-7
0.530, -7.214e-7, -4.074e-7, 3.140e-7
0.529, -7.235e-7, -4.059e-7, 3.176e-7
0.528, -7.193e-7, -4.032e-7, 3.161e-7
0.527, -7.214e-7, -4.056e-7, 3.158e-7
0.526, -7.241e-7, -4.074e-7, 3.167e-7
0.525, -7.232e-7, -4.062e-7, 3.170e-7
0.524, -7.235e-7, -4.084e-7, 3.152e-7
0.523, -7.269e-7, -4.080e-7, 3.188e-7
0.522, -7.244e-7, -4.090e-7, 3.155e-7
0.521, -7.272e-7, -4.105e-7, 3.167e-7
0.520, -7.293e-7, -4.108e-7, 3.185e-7
0.519, -7.263e-7, -4.096e-7, 3.167e-7
0.518, -7.263e-7, -4.102e-7, 3.161e-7
0.517, -7.293e-7, -4.105e-7, 3.188e-7
0.516, -7.278e-7, -4.111e-7, 3.167e-7
0.515, -7.327e-7, -4.138e-7, 3.188e-7
0.514, -7.299e-7, -4.114e-7, 3.185e-7
0.513, -7.324e-7, -4.145e-7, 3.179e-7
0.512, -7.339e-7, -4.145e-7, 3.195e-7
0.511, -7.324e-7, -4.141e-7, 3.182e-7
0.510, -7.351e-7, -4.166e-7, 3.185e-7
0.509, -7.370e-7, -4.172e-7, 3.198e-7
0.508, -7.363e-7, -4.175e-7, 3.188e-7
0.507, -7.376e-7, -4.178e-7, 3.198e-7
0.506, -7.400e-7, -4.190e-7, 3.210e-7
0.505, -7.406e-7, -4.190e-7, 3.216e-7
0.504, -7.403e-7, -4.196e-7, 3.207e-7
0.503, -7.412e-7, -4.196e-7, 3.216e-7
0.502, -7.397e-7, -4.196e-7, 3.201e-7
0.501, -7.431e-7, -4.224e-7, 3.207e-7
0.500, -7.431e-7, -4.218e-7, 3.213e-7
0.499, -7.437e-7, -4.236e-7, 3.201e-7
0.498, -7.461e-7, -4.233e-7, 3.228e-7
0.497, -7.455e-7, -4.242e-7, 3.213e-7
0.496, -7.458e-7, -4.248e-7, 3.210e-7
0.495, -7.486e-7, -4.251e-7, 3.234e-7
0.494, -7.482e-7, -4.248e-7, 3.234e-7
0.493, -7.513e-7, -4.291e-7, 3.222e-7
0.492, -7.495e-7, -4.254e-7, 3.240e-7
0.491, -7.492e-7, -4.270e-7, 3.222e-7
0.490, -7.504e-7, -4.288e-7, 3.216e-7
0.489, -7.504e-7, -4.267e-7, 3.237e-7
0.488, -7.498e-7, -4.282e-7, 3.216e-7
0.487, -7.525e-7, -4.288e-7, 3.237e-7
0.486, -7.525e-7, -4.288e-7, 3.237e-7
0.485, -7.522e-7, -4.306e-7, 3.216e-7
0.484, -7.550e-7, -4.328e-7, 3.222e-7
0.483, -7.583e-7, -4.315e-7, 3.268e-7
0.482, -7.547e-7, -4.318e-7, 3.228e-7
0.481, -7.577e-7, -4.340e-7, 3.237e-7
0.480, -7.568e-7, -4.325e-7, 3.243e-7
0.479, -7.571e-7, -4.340e-7, 3.231e-7
0.478, -7.601e-7, -4.361e-7, 3.240e-7
0.477, -7.614e-7, -4.343e-7, 3.271e-7
0.476, -7.595e-7, -4.364e-7, 3.231e-7
0.475, -7.629e-7, -4.370e-7, 3.259e-7
0.474, -7.617e-7, -4.361e-7, 3.256e-7
0.473, -7.620e-7, -4.370e-7, 3.249e-7
0.472, -7.647e-7, -4.373e-7, 3.274e-7
0.471, -7.629e-7, -4.370e-7, 3.259e-7
0.470, -7.644e-7, -4.392e-7, 3.252e-7
0.469, -7.650e-7, -4.386e-7, 3.265e-7
0.468, -7.650e-7, -4.404e-7, 3.246e-7
0.467, -7.656e-7, -4.407e-7, 3.249e-7
0.466, -7.672e-7, -4.401e-7, 3.271e-7
0.465, -7.656e-7, -4.416e-7, 3.240e-7
0.464, -7.705e-7, -4.428e-7, 3.277e-7
0.463, -7.693e-7, -4.419e-7, 3.274e-7
0.462, -7.693e-7, -4.438e-7, 3.256e-7
0.461, -7.727e-7, -4.447e-7, 3.280e-7
0.460, -7.708e-7, -4.438e-7, 3.271e-7
0.459, -7.754e-7, -4.471e-7, 3.283e-7
0.458, -7.751e-7, -4.465e-7, 3.286e-7
0.457, -7.717e-7, -4.459e-7, 3.259e-7
0.456, -7.742e-7, -4.474e-7, 3.268e-7
0.455, -7.766e-7, -4.483e-7, 3.283e-7
0.454, -7.748e-7, -4.477e-7, 3.271e-7
0.453, -7.772e-7, -4.499e-7, 3.274e-7
0.452, -7.794e-7, -4.495e-7, 3.298e-7
0.451, -7.748e-7, -4.495e-7, 3.252e-7
0.450, -7.809e-7, -4.517e-7, 3.292e-7
0.449, -7.809e-7, -4.511e-7, 3.298e-7
0.448, -7.824e-7, -4.523e-7, 3.301e-7
0.447, -7.852e-7, -4.535e-7, 3.317e-7
0.446, -7.852e-7, -4.541e-7, 3.310e-7
0.445, -7.861e-7, -4.566e-7, 3.295e-7
0.444, -7.885e-7, -4.560e-7, 3.326e-7
0.443, -7.867e-7, -4.569e-7, 3.298e-7
0.442, -7.888e-7, -4.590e-7, 3.298e-7
0.441, -7.913e-7, -4.584e-7, 3.329e-7
0.440, -7.904e-7, -4.575e-7, 3.329e-7
0.439, -7.913e-7, -4.596e-7, 3.317e-7
0.438, -7.952e-7, -4.614e-7, 3.338e-7
0.437, -7.916e-7, -4.605e-7, 3.310e-7
0.436, -7.946e-7, -4.630e-7, 3.317e-7
0.435, -7.962e-7, -4.624e-7, 3.338e-7
0.434, -7.962e-7, -4.618e-7, 3.344e-7
0.433, -7.971e-7, -4.642e-7, 3.329e-7
0.432, -7.986e-7, -4.648e-7, 3.338e-7
0.431, -7.995e-7, -4.651e-7, 3.344e-7
0.430, -8.013e-7, -4.660e-7, 3.353e-7
0.429, -8.041e-7, -4.682e-7, 3.359e-7
0.428, -8.035e-7, -4.682e-7, 3.353e-7
0.427, -8.065e-7, -4.694e-7, 3.371e-7
0.426, -8.078e-7, -4.709e-7, 3.368e-7
0.425, -8.084e-7, -4.724e-7, 3.359e-7
0.424, -8.093e-7, -4.715e-7, 3.378e-7
0.423, -8.071e-7, -4.715e-7, 3.356e-7
0.422, -8.108e-7, -4.737e-7, 3.371e-7
0.421, -8.126e-7, -4.740e-7, 3.387e-7
0.420, -8.132e-7, -4.752e-7, 3.381e-7
0.419, -8.154e-7, -4.761e-7, 3.393e-7
0.418, -8.169e-7, -4.767e-7, 3.402e-7
0.417, -8.184e-7, -4.788e-7, 3.396e-7
0.416, -8.197e-7, -4.785e-7, 3.411e-7
0.415, -8.197e-7, -4.788e-7, 3.408e-7
0.414, -8.209e-7, -4.807e-7, 3.402e-7
0.413, -8.230e-7, -4.819e-7, 3.411e-7
0.412, -8.221e-7, -4.816e-7, 3.405e-7
0.411, -8.248e-7, -4.837e-7, 3.411e-7
0.410, -8.245e-7, -4.825e-7, 3.420e-7
0.409, -8.251e-7, -4.837e-7, 3.414e-7
0.408, -8.297e-7, -4.865e-7, 3.433e-7
0.407, -8.282e-7, -4.840e-7, 3.442e-7
0.406, -8.282e-7, -4.871e-7, 3.411e-7
0.405, -8.297e-7, -4.883e-7, 3.414e-7
0.404, -8.337e-7, -4.880e-7, 3.457e-7
0.403, -8.334e-7, -4.898e-7, 3.436e-7
0.402, -8.346e-7, -4.911e-7, 3.436e-7
0.401, -8.346e-7, -4.898e-7, 3.448e-7
0.400, -8.346e-7, -4.917e-7, 3.429e-7
0.399, -8.401e-7, -4.938e-7, 3.463e-7
0.398, -8.407e-7, -4.932e-7, 3.475e-7
0.397, -8.395e-7, -4.953e-7, 3.442e-7
0.396, -8.438e-7, -4.962e-7, 3.475e-7
0.395, -8.419e-7, -4.944e-7, 3.475e-7
0.394, -8.416e-7, -4.965e-7, 3.451e-7
0.393, -8.438e-7, -4.972e-7, 3.466e-7
0.392, -8.453e-7, -4.978e-7, 3.475e-7
0.391, -8.438e-7, -4.993e-7, 3.445e-7
0.390, -8.493e-7, -5.002e-7, 3.491e-7
0.389, -8.499e-7, -5.014e-7, 3.484e-7
0.388, -8.499e-7, -5.023e-7, 3.475e-7
0.387, -8.517e-7, -5.023e-7, 3.494e-7
0.386, -8.505e-7, -5.026e-7, 3.478e-7
0.385, -8.529e-7, -5.051e-7, 3.478e-7
0.384, -8.554e-7, -5.054e-7, 3.500e-7
0.383, -8.547e-7, -5.060e-7, 3.487e-7
0.382, -8.578e-7, -5.072e-7, 3.506e-7
0.381, -8.575e-7, -5.066e-7, 3.509e-7
0.380, -8.599e-7, -5.091e-7, 3.509e-7
0.379, -8.612e-7, -5.097e-7, 3.515e-7
0.378, -8.615e-7, -5.094e-7, 3.521e-7
0.377, -8.636e-7, -5.115e-7, 3.521e-7
0.376, -8.651e-7, -5.121e-7, 3.530e-7
0.375, -8.639e-7, -5.121e-7, 3.518e-7
0.374, -8.663e-7, -5.145e-7, 3.518e-7
0.373, -8.700e-7, -5.155e-7, 3.545e-7
0.372, -8.663e-7, -5.142e-7, 3.521e-7
0.371, -8.703e-7, -5.179e-7, 3.524e-7
0.370, -8.746e-7, -5.179e-7, 3.567e-7
0.369, -8.718e-7, -5.188e-7, 3.530e-7
0.368, -8.764e-7, -5.213e-7, 3.552e-7
0.367, -8.773e-7, -5.200e-7, 3.573e-7
0.366, -8.773e-7, -5.225e-7, 3.548e-7
0.365, -8.789e-7, -5.225e-7, 3.564e-7
0.364, -8.789e-7, -5.231e-7, 3.558e-7
0.363, -8.819e-7, -5.261e-7, 3.558e-7
0.362, -8.847e-7, -5.264e-7, 3.582e-7
0.361, -8.847e-7, -5.264e-7, 3.582e-7
0.360, -8.889e-7, -5.298e-7, 3.591e-7
0.359, -8.914e-7, -5.298e-7, 3.616e-7
0.358, -8.871e-7, -5.289e-7, 3.582e-7
0.357, -8.898e-7, -5.319e-7, 3.579e-7
0.356, -8.938e-7, -5.322e-7, 3.616e-7
0.355, -8.953e-7, -5.341e-7, 3.613e-7
0.354, -8.978e-7, -5.374e-7, 3.603e-7
0.353, -8.987e-7, -5.353e-7, 3.634e-7
0.352, -8.972e-7, -5.359e-7, 3.613e-7
0.351, -9.005e-7, -5.393e-7, 3.613e-7
0.350, -9.024e-7, -5.390e-7, 3.634e-7
0.349, -9.039e-7, -5.411e-7, 3.628e-7
0.348, -9.078e-7, -5.426e-7, 3.652e-7
0.347, -9.066e-7, -5.417e-7, 3.649e-7
0.346, -9.063e-7, -5.426e-7, 3.637e-7
0.345, -9.103e-7, -5.445e-7, 3.658e-7
0.344, -9.130e-7, -5.454e-7, 3.677e-7
0.343, -9.155e-7, -5.478e-7, 3.677e-7
0.342, -9.164e-7, -5.487e-7, 3.677e-7
0.341, -9.185e-7, -5.496e-7, 3.689e-7
0.340, -9.188e-7, -5.512e-7, 3.677e-7
0.339, -9.201e-7, -5.509e-7, 3.692e-7
0.338, -9.234e-7, -5.539e-7, 3.695e-7
0.337, -9.258e-7, -5.557e-7, 3.701e-7
0.336, -9.271e-7, -5.554e-7, 3.716e-7
0.335, -9.280e-7, -5.570e-7, 3.710e-7
0.334, -9.301e-7, -5.582e-7, 3.719e-7
0.333, -9.320e-7, -5.591e-7, 3.729e-7
0.332, -9.368e-7, -5.625e-7, 3.744e-7
0.331, -9.359e-7, -5.631e-7, 3.729e-7
0.330, -9.381e-7, -5.628e-7, 3.753e-7
0.329, -9.384e-7, -5.649e-7, 3.735e-7
0.328, -9.432e-7, -5.661e-7, 3.771e-7
0.327, -9.414e-7, -5.661e-7, 3.753e-7
0.326, -9.442e-7, -5.689e-7, 3.753e-7
0.325, -9.481e-7, -5.707e-7, 3.774e-7
0.324, -9.478e-7, -5.698e-7, 3.780e-7
0.323, -9.493e-7, -5.731e-7, 3.762e-7
0.322, -9.527e-7, -5.728e-7, 3.799e-7
0.321, -9.533e-7, -5.744e-7, 3.790e-7
0.320, -9.564e-7, -5.768e-7, 3.796e-7
0.319, -9.573e-7, -5.753e-7, 3.820e-7
0.318, -9.551e-7, -5.765e-7, 3.786e-7
0.317, -9.622e-7, -5.808e-7, 3.814e-7
0.316, -9.628e-7, -5.802e-7, 3.826e-7
0.315, -9.634e-7, -5.823e-7, 3.811e-7
0.314, -9.670e-7, -5.838e-7, 3.832e-7
0.313, -9.664e-7, -5.820e-7, 3.844e-7
0.312, -9.680e-7, -5.857e-7, 3.823e-7
0.311, -9.722e-7, -5.881e-7, 3.841e-7
0.310, -9.722e-7, -5.863e-7, 3.860e-7
0.309, -9.759e-7, -5.908e-7, 3.851e-7
0.308, -9.777e-7, -5.908e-7, 3.869e-7
0.307, -9.747e-7, -5.893e-7, 3.854e-7
0.306, -9.802e-7, -5.933e-7, 3.869e-7
0.305, -9.826e-7, -5.942e-7, 3.884e-7
0.304, -9.811e-7, -5.936e-7, 3.875e-7
0.303, -9.854e-7, -5.966e-7, 3.887e-7
0.302, -9.872e-7, -5.979e-7, 3.893e-7
0.301, -9.875e-7, -5.976e-7, 3.899e-7
0.300, -9.878e-7, -5.982e-7, 3.896e-7
0.299, -9.939e-7, -6.006e-7, 3.933e-7
0.298, -9.933e-7, -6.027e-7, 3.906e-7
0.297, -9.951e-7, -6.037e-7, 3.915e-7
0.296, -9.957e-7, -6.046e-7, 3.912e-7
0.295, -9.985e-7, -6.070e-7, 3.915e-7
0.294, -1.003e-6, -6.088e-7, 3.942e-7
0.293, -1.003e-6, -6.101e-7, 3.927e-7
0.292, -1.004e-6, -6.107e-7, 3.936e-7
0.291, -1.007e-6, -6.104e-7, 3.967e-7
0.290, -1.008e-6, -6.119e-7, 3.957e-7
0.289, -1.012e-6, -6.165e-7, 3.957e-7
0.288, -1.013e-6, -6.153e-7, 3.982e-7
0.287, -1.013e-6, -6.149e-7, 3.979e-7
0.286, -1.017e-6, -6.177e-7, 3.991e-7
0.285, -1.017e-6, -6.183e-7, 3.988e-7
0.284, -1.021e-6, -6.207e-7, 4.003e-7
0.283, -1.020e-6, -6.214e-7, 3.988e-7
0.282, -1.024e-6, -6.229e-7, 4.015e-7
0.281, -1.026e-6, -6.247e-7, 4.009e-7
0.280, -1.030e-6, -6.268e-7, 4.028e-7
0.279, -1.028e-6, -6.256e-7, 4.021e-7
0.278, -1.033e-6, -6.305e-7, 4.021e-7
0.277, -1.036e-6, -6.308e-7, 4.049e-7
0.276, -1.036e-6, -6.305e-7, 4.055e-7
0.275, -1.039e-6, -6.342e-7, 4.052e-7
0.274, -1.041e-6, -6.339e-7, 4.070e-7
0.273, -1.041e-6, -6.342e-7, 4.070e-7
0.272, -1.045e-6, -6.384e-7, 4.067e-7
0.271, -1.049e-6, -6.391e-7, 4.095e-7
0.270, -1.049e-6, -6.397e-7, 4.098e-7
0.269, -1.051e-6, -6.427e-7, 4.086e-7
0.268, -1.054e-6, -6.430e-7, 4.113e-7
0.267, -1.055e-6, -6.427e-7, 4.122e-7
0.266, -1.061e-6, -6.473e-7, 4.134e-7
0.265, -1.060e-6, -6.473e-7, 4.131e-7
0.264, -1.064e-6, -6.491e-7, 4.153e-7
0.263, -1.063e-6, -6.488e-7, 4.147e-7
0.262, -1.070e-6, -6.525e-7, 4.171e-7
0.261, -1.070e-6, -6.537e-7, 4.162e-7
0.260, -1.072e-6, -6.546e-7, 4.177e-7
0.259, -1.073e-6, -6.546e-7, 4.183e-7
0.258, -1.077e-6, -6.586e-7, 4.186e-7
0.257, -1.078e-6, -6.589e-7, 4.186e-7
0.256, -1.082e-6, -6.613e-7, 4.208e-7
0.255, -1.084e-6, -6.619e-7, 4.220e-7
0.254, -1.086e-6, -6.632e-7, 4.232e-7
0.253, -1.088e-6, -6.656e-7, 4.220e-7
0.252, -1.092e-6, -6.677e-7, 4.244e-7
0.251, -1.093e-6, -6.674e-7, 4.259e-7
0.250, -1.096e-6, -6.693e-7, 4.269e-7
0.249, -1.096e-6, -6.699e-7, 4.266e-7
0.248, -1.099e-6, -6.714e-7, 4.275e-7
0.247, -1.103e-6, -6.754e-7, 4.272e-7
0.246, -1.107e-6, -6.757e-7, 4.308e-7
0.245, -1.107e-6, -6.766e-7, 4.308e-7
0.244, -1.108e-6, -6.769e-7, 4.311e-7
0.243, -1.113e-6, -6.793e-7, 4.339e-7
0.242, -1.112e-6, -6.796e-7, 4.327e-7
0.241, -1.114e-6, -6.812e-7, 4.327e-7
0.240, -1.119e-6, -6.842e-7, 4.348e-7
0.239, -1.120e-6, -6.836e-7, 4.366e-7
0.238, -1.120e-6, -6.854e-7, 4.348e-7
0.237, -1.125e-6, -6.873e-7, 4.375e-7
0.236, -1.125e-6, -6.876e-7, 4.372e-7
0.235, -1.129e-6, -6.906e-7, 4.385e-7
0.234, -1.131e-6, -6.897e-7, 4.409e-7
0.233, -1.132e-6, -6.934e-7, 4.382e-7
0.232, -1.134e-6, -6.943e-7, 4.400e-7
0.231, -1.137e-6, -6.931e-7, 4.440e-7
0.230, -1.136e-6, -6.961e-7, 4.403e-7
0.229, -1.143e-6, -6.992e-7, 4.443e-7
0.228, -1.141e-6, -6.967e-7, 4.446e-7
0.227, -1.144e-6, -6.998e-7, 4.443e-7
0.226, -1.148e-6, -7.022e-7, 4.461e-7
0.225, -1.150e-6, -7.019e-7, 4.485e-7
0.224, -1.150e-6, -7.028e-7, 4.470e-7
0.223, -1.155e-6, -7.053e-7, 4.494e-7
0.222, -1.157e-6, -7.059e-7, 4.513e-7
0.221, -1.157e-6, -7.071e-7, 4.494e-7
0.220, -1.158e-6, -7.080e-7, 4.501e-7
0.219, -1.161e-6, -7.102e-7, 4.513e-7
0.218, -1.163e-6, -7.105e-7, 4.522e-7
0.217, -1.165e-6, -7.117e-7, 4.534e-7
0.216, -1.167e-6, -7.126e-7, 4.540e-7
0.215, -1.168e-6, -7.141e-7, 4.540e-7
0.214, -1.170e-6, -7.135e-7, 4.562e-7
0.213, -1.171e-6, -7.156e-7, 4.552e-7
0.212, -1.175e-6, -7.172e-7, 4.574e-7
0.211, -1.176e-6, -7.181e-7, 4.580e-7
0.210, -1.177e-6, -7.196e-7, 4.574e-7
0.209, -1.181e-6, -7.208e-7, 4.598e-7
0.208, -1.181e-6, -7.211e-7, 4.601e-7
0.207, -1.184e-6, -7.236e-7, 4.601e-7
0.206, -1.186e-6, -7.242e-7, 4.617e-7
0.205, -1.185e-6, -7.239e-7, 4.613e-7
0.204, -1.189e-6, -7.257e-7, 4.629e-7
0.203, -1.191e-6, -7.266e-7, 4.647e-7
0.202, -1.191e-6, -7.285e-7, 4.626e-7
0.201, -1.194e-6, -7.285e-7, 4.653e-7
0.200, -1.199e-6, -7.309e-7, 4.678e-7
0.199, -1.198e-6, -7.309e-7, 4.674e-7
0.198, -1.201e-6, -7.327e-7, 4.684e-7
0.197, -1.201e-6, -7.321e-7, 4.687e-7
0.196, -1.203e-6, -7.333e-7, 4.696e-7
0.195, -1.206e-6, -7.346e-7, 4.711e-7
0.194, -1.210e-6, -7.370e-7, 4.726e-7
0.193, -1.211e-6, -7.395e-7, 4.720e-7
0.192, -1.214e-6, -7.382e-7, 4.757e-7
0.191, -1.215e-6, -7.391e-7, 4.754e-7
0.190, -1.218e-6, -7.431e-7, 4.751e-7
0.189, -1.218e-6, -7.419e-7, 4.766e-7
0.188, -1.218e-6, -7.422e-7, 4.763e-7
0.187, -1.222e-6, -7.449e-7, 4.772e-7
0.186, -1.223e-6, -7.437e-7, 4.797e-7
0.185, -1.225e-6, -7.443e-7, 4.806e-7
0.184, -1.226e-6, -7.468e-7, 4.787e-7
0.183, -1.231e-6, -7.480e-7, 4.830e-7
0.182, -1.229e-6, -7.477e-7, 4.818e-7
0.181, -1.233e-6, -7.507e-7, 4.824e-7
0.180, -1.234e-6, -7.498e-7, 4.839e-7
0.179, -1.235e-6, -7.501e-7, 4.848e-7
0.178, -1.238e-6, -7.526e-7, 4.851e-7
0.177, -1.239e-6, -7.523e-7, 4.867e-7
0.176, -1.240e-6, -7.535e-7, 4.870e-7
0.175, -1.243e-6, -7.553e-7, 4.879e-7
0.174, -1.244e-6, -7.550e-7, 4.888e-7
0.173, -1.245e-6, -7.553e-7, 4.900e-7
0.172, -1.249e-6, -7.578e-7, 4.909e-7
0.171, -1.249e-6, -7.581e-7, 4.909e-7
0.170, -1.251e-6, -7.587e-7, 4.922e-7
0.169, -1.253e-6, -7.599e-7, 4.931e-7
0.168, -1.255e-6, -7.608e-7, 4.946e-7
0.167, -1.258e-6, -7.620e-7, 4.955e-7
0.166, -1.259e-6, -7.623e-7, 4.967e-7
0.165, -1.260e-6, -7.636e-7, 4.964e-7
0.164, -1.262e-6, -7.633e-7, 4.986e-7
0.163, -1.263e-6, -7.639e-7, 4.995e-7
0.162, -1.265e-6, -7.654e-7, 4.995e-7
0.161, -1.269e-6, -7.672e-7, 5.022e-7
0.160, -1.268e-6, -7.657e-7, 5.022e-7
0.159, -1.268e-6, -7.672e-7, 5.004e-7
0.158, -1.272e-6, -7.687e-7, 5.032e-7
0.157, -1.273e-6, -7.687e-7, 5.038e-7
0.156, -1.273e-6, -7.694e-7, 5.035e-7
0.155, -1.276e-6, -7.700e-7, 5.056e-7
0.154, -1.275e-6, -7.687e-7, 5.062e-7
0.153, -1.278e-6, -7.712e-7, 5.068e-7
0.152, -1.279e-6, -7.709e-7, 5.083e-7
0.151, -1.280e-6, -7.721e-7, 5.083e-7
0.150, -1.283e-6, -7.748e-7, 5.077e-7
0.149, -1.283e-6, -7.721e-7, 5.114e-7
0.148, -1.284e-6, -7.736e-7, 5.108e-7
0.147, -1.286e-6, -7.752e-7, 5.111e-7
0.146, -1.287e-6, -7.730e-7, 5.138e-7
0.145, -1.286e-6, -7.745e-7, 5.114e-7
0.144, -1.290e-6, -7.767e-7, 5.129e-7
0.143, -1.290e-6, -7.748e-7, 5.151e-7
0.142, -1.292e-6, -7.770e-7, 5.147e-7
0.141, -1.293e-6, -7.773e-7, 5.154e-7
0.140, -1.294e-6, -7.761e-7, 5.175e-7
0.139, -1.294e-6, -7.788e-7, 5.151e-7
0.138, -1.298e-6, -7.788e-7, 5.187e-7
0.137, -1.296e-6, -7.764e-7, 5.199e-7
0.136, -1.295e-6, -7.779e-7, 5.169e-7
0.135, -1.298e-6, -7.791e-7, 5.184e-7
0.134, -1.298e-6, -7.782e-7, 5.193e-7
0.133, -1.300e-6, -7.794e-7, 5.202e-7
0.132, -1.303e-6, -7.810e-7, 5.218e-7
0.131, -1.301e-6, -7.803e-7, 5.205e-7
0.130, -1.300e-6, -7.794e-7, 5.202e-7
0.129, -1.303e-6, -7.794e-7, 5.233e-7
0.128, -1.301e-6, -7.788e-7, 5.221e-7
0.127, -1.303e-6, -7.797e-7, 5.230e-7
0.126, -1.302e-6, -7.788e-7, 5.230e-7
0.125, -1.305e-6, -7.806e-7, 5.242e-7
0.124, -1.305e-6, -7.803e-7, 5.248e-7
0.123, -1.305e-6, -7.794e-7, 5.260e-7
0.122, -1.309e-6, -7.816e-7, 5.270e-7
0.121, -1.307e-6, -7.800e-7, 5.273e-7
0.120, -1.308e-6, -7.813e-7, 5.270e-7
0.119, -1.308e-6, -7.819e-7, 5.263e-7
0.118, -1.310e-6, -7.813e-7, 5.285e-7
0.117, -1.308e-6, -7.803e-7, 5.276e-7
0.116, -1.308e-6, -7.813e-7, 5.270e-7
0.115, -1.311e-6, -7.810e-7, 5.303e-7
0.114, -1.310e-6, -7.819e-7, 5.285e-7
0.113, -1.312e-6, -7.822e-7, 5.300e-7
0.112, -1.314e-6, -7.816e-7, 5.321e-7
0.111, -1.312e-6, -7.816e-7, 5.300e-7
0.110, -1.315e-6, -7.813e-7, 5.334e-7
0.109, -1.312e-6, -7.800e-7, 5.324e-7
0.108, -1.313e-6, -7.810e-7, 5.321e-7
0.107, -1.316e-6, -7.819e-7, 5.346e-7
0.106, -1.311e-6, -7.782e-7, 5.328e-7
0.105, -1.315e-6, -7.810e-7, 5.337e-7
0.104, -1.313e-6, -7.791e-7, 5.343e-7
0.103, -1.311e-6, -7.779e-7, 5.331e-7
0.102, -1.316e-6, -7.813e-7, 5.346e-7
0.101, -1.317e-6, -7.803e-7, 5.364e-7
0.100, -1.315e-6, -7.791e-7, 5.358e-7
0.099, -1.316e-6, -7.797e-7, 5.361e-7
0.098, -1.317e-6, -7.788e-7, 5.382e-7
0.097, -1.316e-6, -7.785e-7, 5.373e-7
0.096, -1.316e-6, -7.797e-7, 5.361e-7
0.095, -1.318e-6, -7.797e-7, 5.382e-7
0.094, -1.315e-6, -7.773e-7, 5.379e-7
0.093, -1.317e-6, -7.794e-7, 5.376e-7
0.092, -1.316e-6, -7.773e-7, 5.392e-7
0.091, -1.316e-6, -7.770e-7, 5.395e-7
0.090, -1.317e-6, -7.779e-7, 5.389e-7
0.089, -1.318e-6, -7.776e-7, 5.404e-7
0.088, -1.318e-6, -7.773e-7, 5.404e-7
0.087, -1.316e-6, -7.761e-7, 5.401e-7
0.086, -1.315e-6, -7.761e-7, 5.389e-7
0.085, -1.316e-6, -7.761e-7, 5.401e-7
0.084, -1.315e-6, -7.736e-7, 5.416e-7
0.083, -1.316e-6, -7.752e-7, 5.407e-7
0.082, -1.317e-6, -7.748e-7, 5.419e-7
0.081, -1.318e-6, -7.745e-7, 5.434e-7
0.080, -1.316e-6, -7.733e-7, 5.428e-7
0.079, -1.314e-6, -7.721e-7, 5.419e-7
0.078, -1.316e-6, -7.733e-7, 5.428e-7
0.077, -1.312e-6, -7.718e-7, 5.404e-7
0.076, -1.316e-6, -7.724e-7, 5.437e-7
0.075, -1.314e-6, -7.709e-7, 5.434e-7
0.074, -1.312e-6, -7.712e-7, 5.404e-7
0.073, -1.313e-6, -7.691e-7, 5.437e-7
0.072, -1.312e-6, -7.687e-7, 5.434e-7
0.071, -1.311e-6, -7.687e-7, 5.422e-7
0.070, -1.312e-6, -7.675e-7, 5.443e-7
0.069, -1.312e-6, -7.663e-7, 5.453e-7
0.068, -1.309e-6, -7.672e-7, 5.419e-7
0.067, -1.310e-6, -7.660e-7, 5.437e-7
0.066, -1.309e-6, -7.657e-7, 5.431e-7
0.065, -1.310e-6, -7.660e-7, 5.443e-7
0.064, -1.307e-6, -7.623e-7, 5.447e-7
0.063, -1.305e-6, -7.620e-7, 5.434e-7
0.062, -1.306e-6, -7.629e-7, 5.428e-7
0.061, -1.304e-6, -7.596e-7, 5.443e-7
0.060, -1.301e-6, -7.611e-7, 5.404e-7
0.059, -1.302e-6, -7.602e-7, 5.419e-7
0.058, -1.302e-6, -7.584e-7, 5.440e-7
0.057, -1.299e-6, -7.578e-7, 5.410e-7
0.056, -1.300e-6, -7.575e-7, 5.422e-7
0.055, -1.298e-6, -7.550e-7, 5.431e-7
0.054, -1.297e-6, -7.553e-7, 5.416e-7
0.053, -1.298e-6, -7.547e-7, 5.428e-7
0.052, -1.293e-6, -7.517e-7, 5.416e-7
0.051, -1.293e-6, -7.520e-7, 5.407e-7
0.050, -1.291e-6, -7.504e-7, 5.410e-7
0.049, -1.290e-6, -7.498e-7, 5.404e-7
0.048, -1.288e-6, -7.495e-7, 5.389e-7
0.047, -1.289e-6, -7.471e-7, 5.416e-7
0.046, -1.285e-6, -7.456e-7, 5.398e-7
0.045, -1.286e-6, -7.465e-7, 5.392e-7
0.044, -1.283e-6, -7.443e-7, 5.392e-7
0.043, -1.282e-6, -7.440e-7, 5.382e-7
0.042, -1.279e-6, -7.419e-7, 5.367e-7
0.041, -1.277e-6, -7.407e-7, 5.367e-7
0.040, -1.278e-6, -7.413e-7, 5.370e-7
0.039, -1.278e-6, -7.404e-7, 5.373e-7
0.038, -1.276e-6, -7.376e-7, 5.379e-7
0.037, -1.273e-6, -7.379e-7, 5.352e-7
0.036, -1.273e-6, -7.355e-7, 5.373e-7
0.035, -1.270e-6, -7.343e-7, 5.355e-7
0.034, -1.269e-6, -7.340e-7, 5.346e-7
0.033, -1.269e-6, -7.321e-7, 5.364e-7
0.032, -1.263e-6, -7.294e-7, 5.340e-7
0.031, -1.262e-6, -7.306e-7, 5.315e-7
0.030, -1.265e-6, -7.294e-7, 5.352e-7
0.029, -1.260e-6, -7.272e-7, 5.324e-7
0.028, -1.259e-6, -7.279e-7, 5.315e-7
0.027, -1.258e-6, -7.251e-7, 5.328e-7
0.026, -1.255e-6, -7.245e-7, 5.309e-7
0.025, -1.255e-6, -7.242e-7, 5.312e-7
0.024, -1.251e-6, -7.214e-7, 5.300e-7
0.023, -1.251e-6, -7.218e-7, 5.294e-7
0.022, -1.251e-6, -7.202e-7, 5.303e-7
0.021, -1.249e-6, -7.178e-7, 5.312e-7
0.020, -1.246e-6, -7.178e-7, 5.279e-7
0.019, -1.246e-6, -7.153e-7, 5.309e-7
0.018, -1.242e-6, -7.138e-7, 5.282e-7
0.017, -1.242e-6, -7.144e-7, 5.279e-7
0.016, -1.240e-6, -7.120e-7, 5.279e-7
0.015, -1.238e-6, -7.111e-7, 5.273e-7
0.014, -1.234e-6, -7.108e-7, 5.233e-7
0.013, -1.236e-6, -7.095e-7, 5.260e-7
0.012, -1.231e-6, -7.062e-7, 5.245e-7
0.011, -1.229e-6, -7.062e-7, 5.230e-7
0.010, -1.231e-6, -7.044e-7, 5.263e-7
0.009, -1.226e-6, -7.028e-7, 5.233e-7
0.008, -1.224e-6, -7.025e-7, 5.215e-7
0.007, -1.226e-6, -7.028e-7, 5.233e-7
0.006, -1.222e-6, -7.013e-7, 5.205e-7
0.005, -1.222e-6, -6.998e-7, 5.221e-7
0.004, -1.218e-6, -6.973e-7, 5.205e-7
0.003, -1.218e-6, -6.976e-7, 5.202e-7
0.002, -1.215e-6, -6.958e-7, 5.193e-7
0.001, -1.213e-6, -6.937e-7, 5.193e-7
0.000, -1.212e-6, -6.937e-7, 5.184e-7
-0.001, -1.212e-6, -6.934e-7, 5.187e-7
-0.002, -1.209e-6, -6.915e-7, 5.172e-7
-0.003, -1.206e-6, -6.906e-7, 5.151e-7
-0.004, -1.208e-6, -6.894e-7, 5.181e-7
-0.005, -1.202e-6, -6.882e-7, 5.138e-7
-0.006, -1.203e-6, -6.885e-7, 5.141e-7
-0.007, -1.199e-6, -6.848e-7, 5.141e-7
-0.008, -1.198e-6, -6.851e-7, 5.129e-7
-0.009, -1.196e-6, -6.833e-7, 5.129e-7
-0.010, -1.193e-6, -6.812e-7, 5.117e-7
-0.011, -1.192e-6, -6.803e-7, 5.117e-7
-0.012, -1.191e-6, -6.803e-7, 5.111e-7
-0.013, -1.188e-6, -6.766e-7, 5.111e-7
-0.014, -1.185e-6, -6.763e-7, 5.089e-7
-0.015, -1.184e-6, -6.754e-7, 5.083e-7
-0.016, -1.181e-6, -6.729e-7, 5.080e-7
-0.017, -1.179e-6, -6.729e-7, 5.056e-7
-0.018, -1.178e-6, -6.714e-7, 5.065e-7
-0.019, -1.175e-6, -6.708e-7, 5.044e-7
-0.020, -1.175e-6, -6.702e-7, 5.053e-7
-0.021, -1.173e-6, -6.671e-7, 5.056e-7
-0.022, -1.168e-6, -6.668e-7, 5.010e-7
-0.023, -1.169e-6, -6.671e-7, 5.022e-7
-0.024, -1.165e-6, -6.629e-7, 5.025e-7
-0.025, -1.162e-6, -6.613e-7, 5.004e-7
-0.026, -1.162e-6, -6.632e-7, 4.992e-7
-0.027, -1.161e-6, -6.601e-7, 5.004e-7
-0.028, -1.157e-6, -6.589e-7, 4.977e-7
-0.029, -1.158e-6, -6.598e-7, 4.983e-7
-0.030, -1.152e-6, -6.555e-7, 4.967e-7
-0.031, -1.150e-6, -6.552e-7, 4.949e-7
-0.032, -1.150e-6, -6.546e-7, 4.958e-7
-0.033, -1.148e-6, -6.537e-7, 4.946e-7
-0.034, -1.146e-6, -6.525e-7, 4.934e-7
-0.035, -1.144e-6, -6.513e-7, 4.931e-7
-0.036, -1.141e-6, -6.491e-7, 4.919e-7
-0.037, -1.140e-6, -6.485e-7, 4.912e-7
-0.038, -1.139e-6, -6.470e-7, 4.922e-7
-0.039, -1.136e-6, -6.467e-7, 4.894e-7
-0.040, -1.134e-6, -6.452e-7, 4.891e-7
-0.041, -1.132e-6, -6.442e-7, 4.879e-7
-0.042, -1.130e-6, -6.436e-7, 4.861e-7
-0.043, -1.127e-6, -6.415e-7, 4.858e-7
-0.044, -1.125e-6, -6.403e-7, 4.842e-7
-0.045, -1.123e-6, -6.406e-7, 4.827e-7
-0.046, -1.123e-6, -6.391e-7, 4.836e-7
-0.047, -1.120e-6, -6.381e-7, 4.821e-7
-0.048, -1.117e-6, -6.357e-7, 4.809e-7
-0.049, -1.116e-6, -6.345e-7, 4.818e-7
-0.050, -1.112e-6, -6.336e-7, 4.787e-7
-0.051, -1.114e-6, -6.336e-7, 4.800e-7
-0.052, -1.111e-6, -6.333e-7, 4.781e-7
-0.053, -1.109e-6, -6.314e-7, 4.775e-7
-0.054, -1.108e-6, -6.317e-7, 4.766e-7
-0.055, -1.105e-6, -6.284e-7, 4.763e-7
-0.056, -1.103e-6, -6.281e-7, 4.745e-7
-0.057, -1.104e-6, -6.290e-7, 4.748e-7
-0.058, -1.100e-6, -6.256e-7, 4.745e-7
-0.059, -1.097e-6, -6.256e-7, 4.717e-7
-0.060, -1.098e-6, -6.262e-7, 4.720e-7
-0.061, -1.095e-6, -6.229e-7, 4.720e-7
-0.062, -1.093e-6, -6.238e-7, 4.696e-7
-0.063, -1.095e-6, -6.241e-7, 4.711e-7
-0.064, -1.091e-6, -6.204e-7, 4.702e-7
-0.065, -1.089e-6, -6.211e-7, 4.684e-7
-0.066, -1.088e-6, -6.204e-7, 4.681e-7
-0.067, -1.086e-6, -6.180e-7, 4.678e-7
-0.068, -1.084e-6, -6.177e-7, 4.659e-7
-0.069, -1.085e-6, -6.168e-7, 4.678e-7
-0.070, -1.083e-6, -6.162e-7, 4.665e-7
-0.071, -1.080e-6, -6.165e-7, 4.635e-7
-0.072, -1.080e-6, -6.143e-7, 4.653e-7
-0.073, -1.078e-6, -6.137e-7, 4.641e-7
-0.074, -1.075e-6, -6.134e-7, 4.620e-7
-0.075, -1.073e-6, -6.104e-7, 4.626e-7
-0.076, -1.072e-6, -6.104e-7, 4.616e-7
-0.077, -1.069e-6, -6.107e-7, 4.583e-7
-0.078, -1.069e-6, -6.088e-7, 4.601e-7
-0.079, -1.068e-6, -6.088e-7, 4.592e-7
-0.080, -1.068e-6, -6.092e-7, 4.592e-7
-0.081, -1.067e-6, -6.085e-7, 4.580e-7
-0.082, -1.063e-6, -6.079e-7, 4.552e-7
-0.083, -1.065e-6, -6.085e-7, 4.565e-7
-0.084, -1.063e-6, -6.061e-7, 4.565e-7
-0.085, -1.061e-6, -6.058e-7, 4.549e-7
-0.086, -1.062e-6, -6.058e-7, 4.559e-7
-0.087, -1.059e-6, -6.037e-7, 4.552e-7
-0.088, -1.058e-6, -6.043e-7, 4.537e-7
-0.089, -1.056e-6, -6.015e-7, 4.543e-7
-0.090, -1.056e-6, -6.027e-7, 4.534e-7
-0.091, -1.055e-6, -6.021e-7, 4.531e-7
-0.092, -1.054e-6, -6.012e-7, 4.525e-7
-0.093, -1.050e-6, -5.994e-7, 4.510e-7
-0.094, -1.051e-6, -6.003e-7, 4.507e-7
-0.095, -1.048e-6, -5.982e-7, 4.501e-7
-0.096, -1.048e-6, -5.997e-7, 4.485e-7
-0.097, -1.047e-6, -5.979e-7, 4.494e-7
-0.098, -1.047e-6, -5.976e-7, 4.491e-7
-0.099, -1.045e-6, -5.982e-7, 4.464e-7
-0.100, -1.046e-6, -5.976e-7, 4.488e-7
-0.101, -1.040e-6, -5.951e-7, 4.449e-7
-0.102, -1.042e-6, -5.966e-7, 4.452e-7
-0.103, -1.042e-6, -5.948e-7, 4.467e-7
-0.104, -1.039e-6, -5.933e-7, 4.455e-7
-0.105, -1.037e-6, -5.936e-7, 4.430e-7
-0.106, -1.035e-6, -5.918e-7, 4.436e-7
-0.107, -1.034e-6, -5.921e-7, 4.421e-7
-0.108, -1.035e-6, -5.924e-7, 4.430e-7
-0.109, -1.032e-6, -5.899e-7, 4.421e-7
-0.110, -1.031e-6, -5.896e-7, 4.412e-7
-0.111, -1.031e-6, -5.908e-7, 4.406e-7
-0.112, -1.031e-6, -5.893e-7, 4.415e-7
-0.113, -1.025e-6, -5.881e-7, 4.372e-7
-0.114, -1.030e-6, -5.887e-7, 4.409e-7
-0.115, -1.025e-6, -5.863e-7, 4.391e-7
-0.116, -1.025e-6, -5.872e-7, 4.375e-7
-0.117, -1.029e-6, -5.887e-7, 4.400e-7
-0.118, -1.024e-6, -5.857e-7, 4.382e-7
-0.119, -1.021e-6, -5.853e-7, 4.354e-7
-0.120, -1.022e-6, -5.857e-7, 4.366e-7
-0.121, -1.021e-6, -5.847e-7, 4.363e-7
-0.122, -1.020e-6, -5.853e-7, 4.342e-7
-0.123, -1.017e-6, -5.829e-7, 4.342e-7
-0.124, -1.018e-6, -5.835e-7, 4.348e-7
-0.125, -1.016e-6, -5.829e-7, 4.336e-7
-0.126, -1.016e-6, -5.817e-7, 4.348e-7
-0.127, -1.014e-6, -5.820e-7, 4.324e-7
-0.128, -1.012e-6, -5.805e-7, 4.311e-7
-0.129, -1.012e-6, -5.802e-7, 4.320e-7
-0.130, -1.012e-6, -5.808e-7, 4.308e-7
-0.131, -1.011e-6, -5.802e-7, 4.305e-7
-0.132, -1.008e-6, -5.786e-7, 4.293e-7
-0.133, -1.009e-6, -5.796e-7, 4.296e-7
-0.134, -1.007e-6, -5.777e-7, 4.290e-7
-0.135, -1.005e-6, -5.768e-7, 4.287e-7
-0.136, -1.009e-6, -5.808e-7, 4.284e-7
-0.137, -1.003e-6, -5.753e-7, 4.281e-7
-0.138, -1.002e-6, -5.747e-7, 4.275e-7
-0.139, -1.004e-6, -5.756e-7, 4.284e-7
-0.140, -1.003e-6, -5.750e-7, 4.278e-7
-0.141, -1.001e-6, -5.747e-7, 4.262e-7
-0.142, -1.001e-6, -5.753e-7, 4.256e-7
-0.143, -1.000e-6, -5.734e-7, 4.269e-7
-0.144, -9.966e-7, -5.725e-7, 4.241e-7
-0.145, -9.976e-7, -5.731e-7, 4.244e-7
-0.146, -9.985e-7, -5.731e-7, 4.253e-7
-0.147, -9.957e-7, -5.728e-7, 4.229e-7
-0.148, -9.957e-7, -5.719e-7, 4.238e-7
-0.149, -9.936e-7, -5.692e-7, 4.244e-7
-0.150, -9.924e-7, -5.707e-7, 4.217e-7
-0.151, -9.915e-7, -5.683e-7, 4.232e-7
-0.152, -9.933e-7, -5.701e-7, 4.232e-7
-0.153, -9.927e-7, -5.707e-7, 4.220e-7
-0.154, -9.930e-7, -5.692e-7, 4.238e-7
-0.155, -9.905e-7, -5.670e-7, 4.235e-7
-0.156, -9.915e-7, -5.704e-7, 4.211e-7
-0.157, -9.912e-7, -5.689e-7, 4.223e-7
-0.158, -9.884e-7, -5.667e-7, 4.217e-7
-0.159, -9.875e-7, -5.670e-7, 4.205e-7
-0.160, -9.875e-7, -5.664e-7, 4.211e-7
-0.161, -9.866e-7, -5.664e-7, 4.201e-7
-0.162, -9.869e-7, -5.670e-7, 4.198e-7
-0.163, -9.869e-7, -5.652e-7, 4.217e-7
-0.164, -9.872e-7, -5.677e-7, 4.195e-7
-0.165, -9.841e-7, -5.634e-7, 4.208e-7
-0.166, -9.832e-7, -5.640e-7, 4.192e-7
-0.167, -9.869e-7, -5.695e-7, 4.174e-7
-0.168, -9.829e-7, -5.637e-7, 4.192e-7
-0.169, -9.805e-7, -5.622e-7, 4.183e-7
-0.170, -9.814e-7, -5.625e-7, 4.189e-7
-0.171, -9.805e-7, -5.612e-7, 4.192e-7
-0.172, -9.777e-7, -5.603e-7, 4.174e-7
-0.173, -9.799e-7, -5.615e-7, 4.183e-7
-0.174, -9.786e-7, -5.603e-7, 4.183e-7
-0.175, -9.777e-7, -5.606e-7, 4.171e-7
-0.176, -9.799e-7, -5.619e-7, 4.180e-7
-0.177, -9.768e-7, -5.588e-7, 4.180e-7
-0.178, -9.774e-7, -5.612e-7, 4.162e-7
-0.179, -9.762e-7, -5.585e-7, 4.177e-7
-0.180, -9.768e-7, -5.582e-7, 4.186e-7
-0.181, -9.753e-7, -5.585e-7, 4.168e-7
-0.182, -9.738e-7, -5.573e-7, 4.165e-7
-0.183, -9.731e-7, -5.570e-7, 4.162e-7
-0.184, -9.725e-7, -5.576e-7, 4.150e-7
-0.185, -9.719e-7, -5.561e-7, 4.159e-7
-0.186, -9.710e-7, -5.561e-7, 4.150e-7
-0.187, -9.710e-7, -5.567e-7, 4.143e-7
-0.188, -9.701e-7, -5.557e-7, 4.143e-7
-0.189, -9.686e-7, -5.542e-7, 4.143e-7
-0.190, -9.741e-7, -5.606e-7, 4.134e-7
-0.191, -9.667e-7, -5.524e-7, 4.143e-7
-0.192, -9.664e-7, -5.530e-7, 4.134e-7
-0.193, -9.655e-7, -5.530e-7, 4.125e-7
-0.194, -9.646e-7, -5.512e-7, 4.134e-7
-0.195, -9.634e-7, -5.512e-7, 4.122e-7
-0.196, -9.634e-7, -5.509e-7, 4.125e-7
-0.197, -9.716e-7, -5.591e-7, 4.125e-7
-0.198, -9.609e-7, -5.493e-7, 4.116e-7
-0.199, -9.612e-7, -5.496e-7, 4.116e-7
-0.200, -9.597e-7, -5.481e-7, 4.116e-7
-0.201, -9.576e-7, -5.475e-7, 4.101e-7
-0.202, -9.582e-7, -5.475e-7, 4.107e-7
-0.203, -9.564e-7, -5.454e-7, 4.110e-7
-0.204, -9.558e-7, -5.451e-7, 4.107e-7
-0.205, -9.567e-7, -5.469e-7, 4.098e-7
-0.206, -9.536e-7, -5.448e-7, 4.089e-7
-0.207, -9.539e-7, -5.451e-7, 4.089e-7
-0.208, -9.530e-7, -5.442e-7, 4.089e-7
-0.209, -9.533e-7, -5.454e-7, 4.079e-7
-0.210, -9.503e-7, -5.432e-7, 4.070e-7
-0.211, -9.548e-7, -5.466e-7, 4.082e-7
-0.212, -9.481e-7, -5.414e-7, 4.067e-7
-0.213, -9.497e-7, -5.426e-7, 4.070e-7
-0.214, -9.481e-7, -5.408e-7, 4.073e-7
-0.215, -9.466e-7, -5.402e-7, 4.064e-7
-0.216, -9.451e-7, -5.393e-7, 4.058e-7
-0.217, -9.463e-7, -5.387e-7, 4.076e-7
-0.218, -9.460e-7, -5.411e-7, 4.049e-7
-0.219, -9.454e-7, -5.377e-7, 4.076e-7
-0.220, -9.429e-7, -5.371e-7, 4.058e-7
-0.221, -9.423e-7, -5.374e-7, 4.049e-7
-0.222, -9.411e-7, -5.359e-7, 4.052e-7
-0.223, -9.390e-7, -5.356e-7, 4.034e-7
-0.224, -9.509e-7, -5.475e-7, 4.034e-7
-0.225, -9.381e-7, -5.347e-7, 4.034e-7
-0.226, -9.353e-7, -5.332e-7, 4.021e-7
-0.227, -9.396e-7, -5.368e-7, 4.028e-7
-0.228, -9.368e-7, -5.326e-7, 4.043e-7
-0.229, -9.362e-7, -5.335e-7, 4.028e-7
-0.230, -9.350e-7, -5.323e-7, 4.028e-7
-0.231, -9.329e-7, -5.313e-7, 4.015e-7
-0.232, -9.313e-7, -5.319e-7, 3.994e-7
-0.233, -9.332e-7, -5.301e-7, 4.031e-7
-0.234, -9.298e-7, -5.292e-7, 4.006e-7
-0.235, -9.298e-7, -5.298e-7, 4.000e-7
-0.236, -9.307e-7, -5.286e-7, 4.021e-7
-0.237, -9.362e-7, -5.353e-7, 4.009e-7
-0.238, -9.268e-7, -5.277e-7, 3.991e-7
-0.239, -9.292e-7, -5.286e-7, 4.006e-7
-0.240, -9.258e-7, -5.268e-7, 3.991e-7
-0.241, -9.246e-7, -5.261e-7, 3.985e-7
-0.242, -9.280e-7, -5.271e-7, 4.009e-7
-0.243, -9.262e-7, -5.271e-7, 3.991e-7
-0.244, -9.240e-7, -5.255e-7, 3.985e-7
-0.245, -9.258e-7, -5.261e-7, 3.997e-7
-0.246, -9.222e-7, -5.258e-7, 3.963e-7
-0.247, -9.225e-7, -5.243e-7, 3.982e-7
-0.248, -9.228e-7, -5.243e-7, 3.985e-7
-0.249, -9.207e-7, -5.243e-7, 3.963e-7
-0.250, -9.216e-7, -5.228e-7, 3.988e-7
-0.251, -9.185e-7, -5.216e-7, 3.970e-7
-0.252, -9.228e-7, -5.268e-7, 3.960e-7
-0.253, -9.173e-7, -5.207e-7, 3.966e-7
-0.254, -9.164e-7, -5.207e-7, 3.957e-7
-0.255, -9.176e-7, -5.219e-7, 3.957e-7
-0.256, -9.182e-7, -5.213e-7, 3.970e-7
-0.257, -9.143e-7, -5.197e-7, 3.945e-7
-0.258, -9.149e-7, -5.204e-7, 3.945e-7
-0.259, -9.149e-7, -5.188e-7, 3.960e-7
-0.260, -9.118e-7, -5.182e-7, 3.936e-7
-0.261, -9.100e-7, -5.173e-7, 3.927e-7
-0.262, -9.118e-7, -5.182e-7, 3.936e-7
-0.263, -9.100e-7, -5.173e-7, 3.927e-7
-0.264, -9.100e-7, -5.158e-7, 3.942e-7
-0.265, -9.063e-7, -5.142e-7, 3.921e-7
-0.266, -9.085e-7, -5.164e-7, 3.921e-7
-0.267, -9.094e-7, -5.158e-7, 3.936e-7
-0.268, -9.051e-7, -5.136e-7, 3.915e-7
-0.269, -9.039e-7, -5.146e-7, 3.893e-7
-0.270, -9.057e-7, -5.130e-7, 3.927e-7
-0.271, -9.057e-7, -5.142e-7, 3.915e-7
-0.272, -9.057e-7, -5.142e-7, 3.915e-7
-0.273, -9.057e-7, -5.142e-7, 3.915e-7
-0.274, -9.020e-7, -5.133e-7, 3.887e-7
-0.275, -9.011e-7, -5.124e-7, 3.887e-7
-0.276, -8.981e-7, -5.106e-7, 3.875e-7
-0.277, -8.987e-7, -5.109e-7, 3.878e-7
-0.278, -9.005e-7, -5.115e-7, 3.890e-7
-0.279, -8.993e-7, -5.097e-7, 3.896e-7
-0.280, -8.962e-7, -5.094e-7, 3.869e-7
-0.281, -8.969e-7, -5.097e-7, 3.872e-7
-0.282, -8.932e-7, -5.069e-7, 3.863e-7
-0.283, -8.941e-7, -5.094e-7, 3.847e-7
-0.284, -8.972e-7, -5.109e-7, 3.863e-7
-0.285, -8.908e-7, -5.048e-7, 3.860e-7
-0.286, -8.905e-7, -5.057e-7, 3.847e-7
-0.287, -8.898e-7, -5.060e-7, 3.838e-7
-0.288, -8.905e-7, -5.069e-7, 3.835e-7
-0.289, -8.908e-7, -5.078e-7, 3.829e-7
-0.290, -8.877e-7, -5.042e-7, 3.835e-7
-0.291, -8.859e-7, -5.033e-7, 3.826e-7
-0.292, -8.874e-7, -5.042e-7, 3.832e-7
-0.293, -8.865e-7, -5.042e-7, 3.823e-7
-0.294, -8.868e-7, -5.042e-7, 3.826e-7
-0.295, -8.856e-7, -5.036e-7, 3.820e-7
-0.296, -8.828e-7, -5.014e-7, 3.814e-7
-0.297, -8.828e-7, -5.042e-7, 3.786e-7
-0.298, -8.825e-7, -5.030e-7, 3.796e-7
-0.299, -8.837e-7, -5.039e-7, 3.799e-7
-0.300, -8.807e-7, -5.036e-7, 3.771e-7
-0.301, -8.773e-7, -4.984e-7, 3.789e-7
-0.302, -8.767e-7, -4.984e-7, 3.783e-7
-0.303, -8.770e-7, -4.999e-7, 3.771e-7
-0.304, -8.773e-7, -4.984e-7, 3.789e-7
-0.305, -8.764e-7, -4.996e-7, 3.768e-7
-0.306, -8.770e-7, -5.005e-7, 3.765e-7
-0.307, -8.789e-7, -5.011e-7, 3.777e-7
-0.308, -8.746e-7, -4.984e-7, 3.762e-7
-0.309, -8.761e-7, -5.002e-7, 3.759e-7
-0.310, -8.761e-7, -5.002e-7, 3.759e-7
-0.311, -8.703e-7, -4.959e-7, 3.744e-7
-0.312, -8.691e-7, -4.953e-7, 3.738e-7
-0.313, -8.694e-7, -4.947e-7, 3.747e-7
-0.314, -8.685e-7, -4.950e-7, 3.735e-7
-0.315, -8.706e-7, -4.953e-7, 3.753e-7
-0.316, -8.670e-7, -4.938e-7, 3.732e-7
-0.317, -8.712e-7, -4.984e-7, 3.728e-7
-0.318, -8.676e-7, -4.944e-7, 3.732e-7
-0.319, -8.801e-7, -5.069e-7, 3.732e-7
-0.320, -8.670e-7, -4.956e-7, 3.713e-7
-0.321, -8.670e-7, -4.938e-7, 3.732e-7
-0.322, -8.630e-7, -4.920e-7, 3.710e-7
-0.323, -8.639e-7, -4.929e-7, 3.710e-7
-0.324, -8.670e-7, -4.972e-7, 3.698e-7
-0.325, -8.633e-7, -4.941e-7, 3.692e-7
-0.326, -8.651e-7, -4.941e-7, 3.710e-7
-0.327, -8.657e-7, -4.956e-7, 3.701e-7
-0.328, -8.609e-7, -4.904e-7, 3.704e-7
-0.329, -8.602e-7, -4.914e-7, 3.689e-7
-0.330, -8.609e-7, -4.920e-7, 3.689e-7
-0.331, -8.621e-7, -4.932e-7, 3.689e-7
-0.332, -8.581e-7, -4.901e-7, 3.680e-7
-0.333, -8.599e-7, -4.914e-7, 3.686e-7
-0.334, -8.639e-7, -4.966e-7, 3.674e-7
-0.335, -8.569e-7, -4.901e-7, 3.667e-7
-0.336, -8.590e-7, -4.929e-7, 3.661e-7
-0.337, -8.569e-7, -4.895e-7, 3.674e-7
-0.338, -8.599e-7, -4.935e-7, 3.664e-7
-0.339, -8.551e-7, -4.901e-7, 3.649e-7
-0.340, -8.560e-7, -4.908e-7, 3.652e-7
-0.341, -8.566e-7, -4.889e-7, 3.677e-7
-0.342, -8.560e-7, -4.901e-7, 3.658e-7
-0.343, -8.566e-7, -4.904e-7, 3.661e-7
-0.344, -8.599e-7, -4.926e-7, 3.674e-7
-0.345, -8.563e-7, -4.917e-7, 3.646e-7
-0.346, -8.554e-7, -4.895e-7, 3.658e-7
-0.347, -8.547e-7, -4.889e-7, 3.658e-7
-0.348, -8.569e-7, -4.929e-7, 3.640e-7
-0.349, -8.529e-7, -4.883e-7, 3.646e-7
-0.350, -8.529e-7, -4.892e-7, 3.637e-7
-0.351, -8.563e-7, -4.926e-7, 3.637e-7
-0.352, -8.508e-7, -4.874e-7, 3.634e-7
-0.353, -8.502e-7, -4.871e-7, 3.631e-7
-0.354, -8.493e-7, -4.877e-7, 3.616e-7
-0.355, -8.508e-7, -4.892e-7, 3.616e-7
-0.356, -8.493e-7, -4.883e-7, 3.609e-7
-0.357, -8.547e-7, -4.935e-7, 3.612e-7
-0.358, -8.468e-7, -4.856e-7, 3.612e-7
-0.359, -8.462e-7, -4.868e-7, 3.594e-7
-0.360, -8.490e-7, -4.889e-7, 3.600e-7
-0.361, -8.480e-7, -4.871e-7, 3.609e-7
-0.362, -8.499e-7, -4.908e-7, 3.591e-7
-0.363, -8.477e-7, -4.877e-7, 3.600e-7
-0.364, -8.541e-7, -4.938e-7, 3.603e-7
-0.365, -8.447e-7, -4.865e-7, 3.582e-7
-0.366, -8.471e-7, -4.883e-7, 3.588e-7
-0.367, -8.474e-7, -4.883e-7, 3.591e-7
-0.368, -8.435e-7, -4.862e-7, 3.573e-7
-0.369, -8.499e-7, -4.923e-7, 3.576e-7
-0.370, -8.483e-7, -4.908e-7, 3.576e-7
-0.371, -8.435e-7, -4.880e-7, 3.555e-7
-0.372, -8.450e-7, -4.886e-7, 3.564e-7
-0.373, -8.422e-7, -4.856e-7, 3.567e-7
-0.374, -8.432e-7, -4.871e-7, 3.561e-7
-0.375, -8.477e-7, -4.923e-7, 3.555e-7
-0.376, -8.413e-7, -4.868e-7, 3.545e-7
-0.377, -8.432e-7, -4.877e-7, 3.555e-7
-0.378, -8.432e-7, -4.880e-7, 3.551e-7
-0.379, -8.419e-7, -4.886e-7, 3.533e-7
-0.380, -8.395e-7, -4.868e-7, 3.527e-7
-0.381, -8.383e-7, -4.840e-7, 3.542e-7
-0.382, -8.398e-7, -4.871e-7, 3.527e-7
-0.383, -8.435e-7, -4.892e-7, 3.542e-7
-0.384, -8.499e-7, -4.972e-7, 3.527e-7
-0.385, -8.392e-7, -4.880e-7, 3.512e-7
-0.386, -8.358e-7, -4.846e-7, 3.512e-7
-0.387, -8.374e-7, -4.859e-7, 3.515e-7
-0.388, -8.374e-7, -4.865e-7, 3.509e-7
-0.389, -8.361e-7, -4.846e-7, 3.515e-7
-0.390, -8.355e-7, -4.853e-7, 3.503e-7
-0.391, -8.364e-7, -4.868e-7, 3.497e-7
-0.392, -8.413e-7, -4.889e-7, 3.524e-7
-0.393, -8.355e-7, -4.865e-7, 3.490e-7
-0.394, -8.386e-7, -4.883e-7, 3.503e-7
-0.395, -8.377e-7, -4.883e-7, 3.493e-7
-0.396, -8.367e-7, -4.892e-7, 3.475e-7
-0.397, -8.374e-7, -4.877e-7, 3.497e-7
-0.398, -8.374e-7, -4.874e-7, 3.500e-7
-0.399, -8.355e-7, -4.886e-7, 3.469e-7
-0.400, -8.444e-7, -4.947e-7, 3.497e-7
