Feb. 28, 2018   11:50:50
Square Wave Voltammetry
File: c:\users\electrochemist\desktop\2018\28022018_unbuffered_9,2\24_e6_9,2_0118_ph6,29_2.txt
Data Source:  Experiment
Instrument Model:  CHI1040A
Header: 
Note: 

Init E (V) = 0.5
Final E (V) = -0.05
Incr E (V) = 0.001
Amplitude (V) = 0.1
Frequency (Hz) = 150
Quiet Time (sec) = 0
Sensitivity (A/V) = 1e-6

Difference:

Forward:

Reverse:

Potential/V, Diff(i/A), For(i/A), Rev(i/A)

0.499, -7.705e-7, -1.947e-7, 5.758e-7
0.498, -9.423e-7, -4.529e-7, 4.894e-7
0.497, -9.371e-7, -4.715e-7, 4.656e-7
0.496, -9.237e-7, -4.724e-7, 4.513e-7
0.495, -9.167e-7, -4.773e-7, 4.394e-7
0.494, -9.136e-7, -4.816e-7, 4.321e-7
0.493, -9.066e-7, -4.798e-7, 4.269e-7
0.492, -9.027e-7, -4.822e-7, 4.205e-7
0.491, -9.008e-7, -4.840e-7, 4.168e-7
0.490, -8.984e-7, -4.840e-7, 4.144e-7
0.489, -8.941e-7, -4.859e-7, 4.083e-7
0.488, -8.938e-7, -4.853e-7, 4.086e-7
0.487, -8.898e-7, -4.853e-7, 4.046e-7
0.486, -8.892e-7, -4.880e-7, 4.012e-7
0.485, -8.865e-7, -4.877e-7, 3.988e-7
0.484, -8.877e-7, -4.874e-7, 4.003e-7
0.483, -8.828e-7, -4.880e-7, 3.948e-7
0.482, -8.840e-7, -4.901e-7, 3.939e-7
0.481, -8.831e-7, -4.892e-7, 3.939e-7
0.480, -8.819e-7, -4.904e-7, 3.915e-7
0.479, -8.837e-7, -4.923e-7, 3.915e-7
0.478, -8.804e-7, -4.901e-7, 3.902e-7
0.477, -8.782e-7, -4.898e-7, 3.884e-7
0.476, -8.813e-7, -4.929e-7, 3.884e-7
0.475, -8.779e-7, -4.904e-7, 3.875e-7
0.474, -8.779e-7, -4.920e-7, 3.860e-7
0.473, -8.798e-7, -4.953e-7, 3.844e-7
0.472, -8.786e-7, -4.929e-7, 3.857e-7
0.471, -8.770e-7, -4.941e-7, 3.829e-7
0.470, -8.810e-7, -4.972e-7, 3.838e-7
0.469, -8.773e-7, -4.941e-7, 3.832e-7
0.468, -8.767e-7, -4.965e-7, 3.802e-7
0.467, -8.773e-7, -4.962e-7, 3.811e-7
0.466, -8.792e-7, -4.956e-7, 3.835e-7
0.465, -8.755e-7, -4.975e-7, 3.780e-7
0.464, -8.773e-7, -4.987e-7, 3.787e-7
0.463, -8.770e-7, -4.978e-7, 3.793e-7
0.462, -8.755e-7, -4.990e-7, 3.765e-7
0.461, -8.776e-7, -5.002e-7, 3.774e-7
0.460, -8.782e-7, -5.002e-7, 3.780e-7
0.459, -8.752e-7, -4.996e-7, 3.756e-7
0.458, -8.782e-7, -5.014e-7, 3.768e-7
0.457, -8.789e-7, -5.008e-7, 3.780e-7
0.456, -8.782e-7, -5.020e-7, 3.762e-7
0.455, -8.819e-7, -5.045e-7, 3.774e-7
0.454, -8.770e-7, -5.023e-7, 3.747e-7
0.453, -8.767e-7, -5.033e-7, 3.735e-7
0.452, -8.786e-7, -5.045e-7, 3.741e-7
0.451, -8.795e-7, -5.039e-7, 3.756e-7
0.450, -8.786e-7, -5.051e-7, 3.735e-7
0.449, -8.819e-7, -5.078e-7, 3.741e-7
0.448, -8.792e-7, -5.048e-7, 3.744e-7
0.447, -8.813e-7, -5.094e-7, 3.719e-7
0.446, -8.813e-7, -5.084e-7, 3.729e-7
0.445, -8.840e-7, -5.094e-7, 3.747e-7
0.444, -8.828e-7, -5.106e-7, 3.722e-7
0.443, -8.840e-7, -5.103e-7, 3.738e-7
0.442, -8.843e-7, -5.100e-7, 3.744e-7
0.441, -8.819e-7, -5.118e-7, 3.701e-7
0.440, -8.856e-7, -5.124e-7, 3.732e-7
0.439, -8.850e-7, -5.115e-7, 3.735e-7
0.438, -8.847e-7, -5.136e-7, 3.710e-7
0.437, -8.880e-7, -5.155e-7, 3.725e-7
0.436, -8.850e-7, -5.121e-7, 3.729e-7
0.435, -8.843e-7, -5.142e-7, 3.701e-7
0.434, -8.874e-7, -5.167e-7, 3.707e-7
0.433, -8.883e-7, -5.158e-7, 3.725e-7
0.432, -8.877e-7, -5.170e-7, 3.707e-7
0.431, -8.911e-7, -5.182e-7, 3.729e-7
0.430, -8.905e-7, -5.176e-7, 3.729e-7
0.429, -8.908e-7, -5.200e-7, 3.707e-7
0.428, -8.920e-7, -5.207e-7, 3.713e-7
0.427, -8.935e-7, -5.203e-7, 3.732e-7
0.426, -8.938e-7, -5.222e-7, 3.716e-7
0.425, -8.956e-7, -5.240e-7, 3.716e-7
0.424, -8.938e-7, -5.219e-7, 3.719e-7
0.423, -8.956e-7, -5.246e-7, 3.710e-7
0.422, -8.956e-7, -5.243e-7, 3.713e-7
0.421, -8.975e-7, -5.234e-7, 3.741e-7
0.420, -8.956e-7, -5.249e-7, 3.707e-7
0.419, -8.999e-7, -5.280e-7, 3.719e-7
0.418, -8.981e-7, -5.258e-7, 3.722e-7
0.417, -8.978e-7, -5.271e-7, 3.707e-7
0.416, -9.024e-7, -5.304e-7, 3.719e-7
0.415, -9.020e-7, -5.286e-7, 3.735e-7
0.414, -9.005e-7, -5.298e-7, 3.707e-7
0.413, -9.036e-7, -5.319e-7, 3.716e-7
0.412, -9.039e-7, -5.304e-7, 3.735e-7
0.411, -9.066e-7, -5.338e-7, 3.729e-7
0.410, -9.063e-7, -5.344e-7, 3.719e-7
0.409, -9.075e-7, -5.329e-7, 3.747e-7
0.408, -9.057e-7, -5.350e-7, 3.707e-7
0.407, -9.103e-7, -5.377e-7, 3.725e-7
0.406, -9.094e-7, -5.359e-7, 3.735e-7
0.405, -9.115e-7, -5.374e-7, 3.741e-7
0.404, -9.118e-7, -5.383e-7, 3.735e-7
0.403, -9.127e-7, -5.390e-7, 3.738e-7
0.402, -9.097e-7, -5.390e-7, 3.707e-7
0.401, -9.146e-7, -5.411e-7, 3.735e-7
0.400, -9.164e-7, -5.411e-7, 3.753e-7
0.399, -9.136e-7, -5.414e-7, 3.722e-7
0.398, -9.182e-7, -5.448e-7, 3.735e-7
0.397, -9.185e-7, -5.438e-7, 3.747e-7
0.396, -9.176e-7, -5.445e-7, 3.732e-7
0.395, -9.207e-7, -5.478e-7, 3.729e-7
0.394, -9.216e-7, -5.457e-7, 3.759e-7
0.393, -9.228e-7, -5.484e-7, 3.744e-7
0.392, -9.255e-7, -5.503e-7, 3.753e-7
0.391, -9.231e-7, -5.475e-7, 3.756e-7
0.390, -9.237e-7, -5.496e-7, 3.741e-7
0.389, -9.271e-7, -5.518e-7, 3.753e-7
0.388, -9.274e-7, -5.515e-7, 3.759e-7
0.387, -9.286e-7, -5.536e-7, 3.750e-7
0.386, -9.307e-7, -5.548e-7, 3.759e-7
0.385, -9.329e-7, -5.542e-7, 3.787e-7
0.384, -9.295e-7, -5.554e-7, 3.741e-7
0.383, -9.347e-7, -5.585e-7, 3.762e-7
0.382, -9.341e-7, -5.560e-7, 3.780e-7
0.381, -9.365e-7, -5.603e-7, 3.762e-7
0.380, -9.387e-7, -5.612e-7, 3.774e-7
0.379, -9.356e-7, -5.579e-7, 3.777e-7
0.378, -9.387e-7, -5.618e-7, 3.768e-7
0.377, -9.414e-7, -5.640e-7, 3.774e-7
0.376, -9.429e-7, -5.628e-7, 3.802e-7
0.375, -9.405e-7, -5.634e-7, 3.771e-7
0.374, -9.472e-7, -5.673e-7, 3.799e-7
0.373, -9.475e-7, -5.673e-7, 3.802e-7
0.372, -9.490e-7, -5.695e-7, 3.796e-7
0.371, -9.506e-7, -5.698e-7, 3.808e-7
0.370, -9.515e-7, -5.695e-7, 3.820e-7
0.369, -9.512e-7, -5.704e-7, 3.808e-7
0.368, -9.545e-7, -5.734e-7, 3.811e-7
0.367, -9.530e-7, -5.710e-7, 3.820e-7
0.366, -9.545e-7, -5.750e-7, 3.796e-7
0.365, -9.567e-7, -5.753e-7, 3.814e-7
0.364, -9.570e-7, -5.750e-7, 3.820e-7
0.363, -9.582e-7, -5.774e-7, 3.808e-7
0.362, -9.606e-7, -5.783e-7, 3.823e-7
0.361, -9.616e-7, -5.774e-7, 3.841e-7
0.360, -9.616e-7, -5.805e-7, 3.811e-7
0.359, -9.677e-7, -5.829e-7, 3.848e-7
0.358, -9.683e-7, -5.829e-7, 3.854e-7
0.357, -9.680e-7, -5.832e-7, 3.848e-7
0.356, -9.707e-7, -5.856e-7, 3.851e-7
0.355, -9.713e-7, -5.856e-7, 3.857e-7
0.354, -9.713e-7, -5.875e-7, 3.838e-7
0.353, -9.750e-7, -5.887e-7, 3.863e-7
0.352, -9.756e-7, -5.887e-7, 3.869e-7
0.351, -9.762e-7, -5.893e-7, 3.869e-7
0.350, -9.799e-7, -5.927e-7, 3.872e-7
0.349, -9.814e-7, -5.918e-7, 3.896e-7
0.348, -9.796e-7, -5.930e-7, 3.866e-7
0.347, -9.829e-7, -5.948e-7, 3.881e-7
0.346, -9.847e-7, -5.951e-7, 3.896e-7
0.345, -9.854e-7, -5.966e-7, 3.887e-7
0.344, -9.893e-7, -5.991e-7, 3.902e-7
0.343, -9.878e-7, -5.979e-7, 3.899e-7
0.342, -9.899e-7, -6.009e-7, 3.890e-7
0.341, -9.908e-7, -6.015e-7, 3.893e-7
0.340, -9.927e-7, -6.012e-7, 3.915e-7
0.339, -9.939e-7, -6.043e-7, 3.896e-7
0.338, -9.982e-7, -6.058e-7, 3.924e-7
0.337, -9.979e-7, -6.052e-7, 3.927e-7
0.336, -9.979e-7, -6.067e-7, 3.912e-7
0.335, -1.004e-6, -6.095e-7, 3.942e-7
0.334, -1.003e-6, -6.088e-7, 3.942e-7
0.333, -1.005e-6, -6.116e-7, 3.930e-7
0.332, -1.006e-6, -6.128e-7, 3.930e-7
0.331, -1.008e-6, -6.128e-7, 3.954e-7
0.330, -1.007e-6, -6.140e-7, 3.933e-7
0.329, -1.011e-6, -6.156e-7, 3.954e-7
0.328, -1.012e-6, -6.156e-7, 3.967e-7
0.327, -1.013e-6, -6.180e-7, 3.954e-7
0.326, -1.019e-6, -6.204e-7, 3.982e-7
0.325, -1.019e-6, -6.201e-7, 3.988e-7
0.324, -1.018e-6, -6.220e-7, 3.960e-7
0.323, -1.024e-6, -6.253e-7, 3.982e-7
0.322, -1.022e-6, -6.226e-7, 3.991e-7
0.321, -1.024e-6, -6.262e-7, 3.976e-7
0.320, -1.026e-6, -6.272e-7, 3.991e-7
0.319, -1.026e-6, -6.253e-7, 4.009e-7
0.318, -1.030e-6, -6.287e-7, 4.009e-7
0.317, -1.033e-6, -6.311e-7, 4.015e-7
0.316, -1.032e-6, -6.308e-7, 4.009e-7
0.315, -1.037e-6, -6.339e-7, 4.028e-7
0.314, -1.037e-6, -6.351e-7, 4.021e-7
0.313, -1.036e-6, -6.323e-7, 4.040e-7
0.312, -1.036e-6, -6.354e-7, 4.009e-7
0.311, -1.044e-6, -6.387e-7, 4.049e-7
0.310, -1.045e-6, -6.384e-7, 4.064e-7
0.309, -1.044e-6, -6.397e-7, 4.046e-7
0.308, -1.049e-6, -6.427e-7, 4.064e-7
0.307, -1.048e-6, -6.421e-7, 4.058e-7
0.306, -1.051e-6, -6.449e-7, 4.061e-7
0.305, -1.054e-6, -6.458e-7, 4.079e-7
0.304, -1.053e-6, -6.445e-7, 4.086e-7
0.303, -1.055e-6, -6.488e-7, 4.061e-7
0.302, -1.057e-6, -6.488e-7, 4.082e-7
0.301, -1.059e-6, -6.488e-7, 4.098e-7
0.300, -1.059e-6, -6.513e-7, 4.079e-7
0.299, -1.064e-6, -6.528e-7, 4.113e-7
0.298, -1.063e-6, -6.522e-7, 4.107e-7
0.297, -1.066e-6, -6.543e-7, 4.116e-7
0.296, -1.070e-6, -6.574e-7, 4.122e-7
0.295, -1.070e-6, -6.564e-7, 4.140e-7
0.294, -1.071e-6, -6.595e-7, 4.116e-7
0.293, -1.076e-6, -6.619e-7, 4.140e-7
0.292, -1.074e-6, -6.607e-7, 4.137e-7
0.291, -1.077e-6, -6.629e-7, 4.137e-7
0.290, -1.081e-6, -6.650e-7, 4.162e-7
0.289, -1.081e-6, -6.653e-7, 4.162e-7
0.288, -1.083e-6, -6.671e-7, 4.156e-7
0.287, -1.085e-6, -6.680e-7, 4.174e-7
0.286, -1.086e-6, -6.677e-7, 4.186e-7
0.285, -1.088e-6, -6.708e-7, 4.171e-7
0.284, -1.092e-6, -6.729e-7, 4.186e-7
0.283, -1.092e-6, -6.729e-7, 4.186e-7
0.282, -1.092e-6, -6.738e-7, 4.183e-7
0.281, -1.096e-6, -6.760e-7, 4.202e-7
0.280, -1.099e-6, -6.760e-7, 4.226e-7
0.279, -1.101e-6, -6.796e-7, 4.214e-7
0.278, -1.103e-6, -6.799e-7, 4.235e-7
0.277, -1.102e-6, -6.787e-7, 4.229e-7
0.276, -1.105e-6, -6.827e-7, 4.223e-7
0.275, -1.111e-6, -6.842e-7, 4.266e-7
0.274, -1.112e-6, -6.848e-7, 4.272e-7
0.273, -1.111e-6, -6.857e-7, 4.250e-7
0.272, -1.113e-6, -6.876e-7, 4.256e-7
0.271, -1.114e-6, -6.882e-7, 4.263e-7
0.270, -1.115e-6, -6.894e-7, 4.253e-7
0.269, -1.117e-6, -6.903e-7, 4.269e-7
0.268, -1.121e-6, -6.922e-7, 4.287e-7
0.267, -1.122e-6, -6.937e-7, 4.287e-7
0.266, -1.123e-6, -6.931e-7, 4.296e-7
0.265, -1.126e-6, -6.949e-7, 4.311e-7
0.264, -1.128e-6, -6.979e-7, 4.305e-7
0.263, -1.129e-6, -6.979e-7, 4.311e-7
0.262, -1.131e-6, -6.989e-7, 4.317e-7
0.261, -1.133e-6, -7.013e-7, 4.321e-7
0.260, -1.137e-6, -7.037e-7, 4.333e-7
0.259, -1.136e-6, -7.013e-7, 4.351e-7
0.258, -1.137e-6, -7.041e-7, 4.327e-7
0.257, -1.142e-6, -7.065e-7, 4.354e-7
0.256, -1.142e-6, -7.053e-7, 4.363e-7
0.255, -1.144e-6, -7.086e-7, 4.354e-7
0.254, -1.147e-6, -7.086e-7, 4.382e-7
0.253, -1.149e-6, -7.105e-7, 4.385e-7
0.252, -1.148e-6, -7.117e-7, 4.366e-7
0.251, -1.153e-6, -7.132e-7, 4.394e-7
0.250, -1.153e-6, -7.138e-7, 4.391e-7
0.249, -1.152e-6, -7.138e-7, 4.385e-7
0.248, -1.156e-6, -7.160e-7, 4.403e-7
0.247, -1.159e-6, -7.172e-7, 4.421e-7
0.246, -1.160e-6, -7.190e-7, 4.409e-7
0.245, -1.164e-6, -7.208e-7, 4.433e-7
0.244, -1.163e-6, -7.202e-7, 4.430e-7
0.243, -1.164e-6, -7.208e-7, 4.436e-7
0.242, -1.169e-6, -7.242e-7, 4.446e-7
0.241, -1.171e-6, -7.245e-7, 4.464e-7
0.240, -1.168e-6, -7.242e-7, 4.443e-7
0.239, -1.172e-6, -7.263e-7, 4.455e-7
0.238, -1.175e-6, -7.269e-7, 4.485e-7
0.237, -1.178e-6, -7.300e-7, 4.482e-7
0.236, -1.179e-6, -7.309e-7, 4.482e-7
0.235, -1.182e-6, -7.309e-7, 4.510e-7
0.234, -1.180e-6, -7.315e-7, 4.485e-7
0.233, -1.184e-6, -7.330e-7, 4.507e-7
0.232, -1.187e-6, -7.346e-7, 4.525e-7
0.231, -1.186e-6, -7.352e-7, 4.510e-7
0.230, -1.188e-6, -7.358e-7, 4.519e-7
0.229, -1.191e-6, -7.367e-7, 4.543e-7
0.228, -1.191e-6, -7.388e-7, 4.525e-7
0.227, -1.197e-6, -7.410e-7, 4.562e-7
0.226, -1.199e-6, -7.416e-7, 4.577e-7
0.225, -1.198e-6, -7.416e-7, 4.565e-7
0.224, -1.202e-6, -7.443e-7, 4.577e-7
0.223, -1.201e-6, -7.431e-7, 4.583e-7
0.222, -1.204e-6, -7.456e-7, 4.586e-7
0.221, -1.207e-6, -7.465e-7, 4.604e-7
0.220, -1.204e-6, -7.449e-7, 4.592e-7
0.219, -1.207e-6, -7.483e-7, 4.589e-7
0.218, -1.212e-6, -7.495e-7, 4.626e-7
0.217, -1.215e-6, -7.507e-7, 4.638e-7
0.216, -1.214e-6, -7.498e-7, 4.644e-7
0.215, -1.215e-6, -7.523e-7, 4.626e-7
0.214, -1.217e-6, -7.526e-7, 4.644e-7
0.213, -1.216e-6, -7.532e-7, 4.626e-7
0.212, -1.219e-6, -7.538e-7, 4.650e-7
0.211, -1.221e-6, -7.538e-7, 4.674e-7
0.210, -1.222e-6, -7.559e-7, 4.665e-7
0.209, -1.225e-6, -7.565e-7, 4.684e-7
0.208, -1.226e-6, -7.581e-7, 4.678e-7
0.207, -1.226e-6, -7.590e-7, 4.674e-7
0.206, -1.230e-6, -7.608e-7, 4.693e-7
0.205, -1.230e-6, -7.599e-7, 4.705e-7
0.204, -1.231e-6, -7.599e-7, 4.711e-7
0.203, -1.235e-6, -7.633e-7, 4.720e-7
0.202, -1.236e-6, -7.626e-7, 4.729e-7
0.201, -1.236e-6, -7.633e-7, 4.729e-7
0.200, -1.239e-6, -7.651e-7, 4.742e-7
0.199, -1.239e-6, -7.642e-7, 4.751e-7
0.198, -1.241e-6, -7.657e-7, 4.751e-7
0.197, -1.243e-6, -7.675e-7, 4.751e-7
0.196, -1.243e-6, -7.663e-7, 4.766e-7
0.195, -1.242e-6, -7.675e-7, 4.745e-7
0.194, -1.249e-6, -7.697e-7, 4.794e-7
0.193, -1.248e-6, -7.691e-7, 4.794e-7
0.192, -1.250e-6, -7.703e-7, 4.794e-7
0.191, -1.253e-6, -7.718e-7, 4.812e-7
0.190, -1.253e-6, -7.697e-7, 4.830e-7
0.189, -1.253e-6, -7.712e-7, 4.815e-7
0.188, -1.256e-6, -7.733e-7, 4.824e-7
0.187, -1.257e-6, -7.733e-7, 4.836e-7
0.186, -1.255e-6, -7.733e-7, 4.821e-7
0.185, -1.259e-6, -7.745e-7, 4.845e-7
0.184, -1.259e-6, -7.730e-7, 4.861e-7
0.183, -1.259e-6, -7.748e-7, 4.839e-7
0.182, -1.262e-6, -7.755e-7, 4.864e-7
0.181, -1.264e-6, -7.761e-7, 4.876e-7
0.180, -1.263e-6, -7.764e-7, 4.864e-7
0.179, -1.267e-6, -7.773e-7, 4.894e-7
0.178, -1.267e-6, -7.785e-7, 4.885e-7
0.177, -1.267e-6, -7.782e-7, 4.888e-7
0.176, -1.270e-6, -7.788e-7, 4.909e-7
0.175, -1.269e-6, -7.779e-7, 4.909e-7
0.174, -1.269e-6, -7.797e-7, 4.897e-7
0.173, -1.271e-6, -7.803e-7, 4.906e-7
0.172, -1.272e-6, -7.791e-7, 4.925e-7
0.171, -1.274e-6, -7.813e-7, 4.931e-7
0.170, -1.276e-6, -7.819e-7, 4.937e-7
0.169, -1.277e-6, -7.819e-7, 4.952e-7
0.168, -1.274e-6, -7.813e-7, 4.925e-7
0.167, -1.278e-6, -7.819e-7, 4.961e-7
0.166, -1.277e-6, -7.816e-7, 4.958e-7
0.165, -1.280e-6, -7.834e-7, 4.961e-7
0.164, -1.282e-6, -7.840e-7, 4.980e-7
0.163, -1.281e-6, -7.822e-7, 4.989e-7
0.162, -1.281e-6, -7.843e-7, 4.970e-7
0.161, -1.287e-6, -7.852e-7, 5.022e-7
0.160, -1.285e-6, -7.843e-7, 5.007e-7
0.159, -1.284e-6, -7.843e-7, 5.001e-7
0.158, -1.287e-6, -7.852e-7, 5.013e-7
0.157, -1.286e-6, -7.849e-7, 5.013e-7
0.156, -1.285e-6, -7.855e-7, 4.998e-7
0.155, -1.290e-6, -7.858e-7, 5.041e-7
0.154, -1.290e-6, -7.858e-7, 5.041e-7
0.153, -1.288e-6, -7.861e-7, 5.019e-7
0.152, -1.289e-6, -7.864e-7, 5.025e-7
0.151, -1.288e-6, -7.846e-7, 5.035e-7
0.150, -1.291e-6, -7.864e-7, 5.047e-7
0.149, -1.291e-6, -7.849e-7, 5.062e-7
0.148, -1.293e-6, -7.846e-7, 5.080e-7
0.147, -1.293e-6, -7.877e-7, 5.056e-7
0.146, -1.294e-6, -7.871e-7, 5.065e-7
0.145, -1.292e-6, -7.831e-7, 5.090e-7
0.144, -1.295e-6, -7.849e-7, 5.105e-7
0.143, -1.298e-6, -7.871e-7, 5.114e-7
0.142, -1.296e-6, -7.846e-7, 5.111e-7
0.141, -1.295e-6, -7.861e-7, 5.093e-7
0.140, -1.297e-6, -7.868e-7, 5.099e-7
0.139, -1.295e-6, -7.846e-7, 5.108e-7
0.138, -1.297e-6, -7.861e-7, 5.105e-7
0.137, -1.297e-6, -7.861e-7, 5.105e-7
0.136, -1.297e-6, -7.846e-7, 5.123e-7
0.135, -1.298e-6, -7.858e-7, 5.120e-7
0.134, -1.297e-6, -7.837e-7, 5.132e-7
0.133, -1.298e-6, -7.843e-7, 5.141e-7
0.132, -1.297e-6, -7.837e-7, 5.132e-7
0.131, -1.299e-6, -7.843e-7, 5.147e-7
0.130, -1.298e-6, -7.837e-7, 5.141e-7
0.129, -1.300e-6, -7.834e-7, 5.166e-7
0.128, -1.300e-6, -7.840e-7, 5.163e-7
0.127, -1.298e-6, -7.813e-7, 5.166e-7
0.126, -1.298e-6, -7.837e-7, 5.138e-7
0.125, -1.301e-6, -7.834e-7, 5.172e-7
0.124, -1.299e-6, -7.810e-7, 5.181e-7
0.123, -1.300e-6, -7.828e-7, 5.169e-7
0.122, -1.301e-6, -7.828e-7, 5.178e-7
0.121, -1.298e-6, -7.794e-7, 5.187e-7
0.120, -1.300e-6, -7.819e-7, 5.181e-7
0.119, -1.301e-6, -7.819e-7, 5.187e-7
0.118, -1.298e-6, -7.788e-7, 5.196e-7
0.117, -1.299e-6, -7.803e-7, 5.190e-7
0.116, -1.300e-6, -7.785e-7, 5.212e-7
0.115, -1.297e-6, -7.782e-7, 5.187e-7
0.114, -1.298e-6, -7.785e-7, 5.196e-7
0.113, -1.298e-6, -7.782e-7, 5.193e-7
0.112, -1.297e-6, -7.770e-7, 5.202e-7
0.111, -1.297e-6, -7.773e-7, 5.199e-7
0.110, -1.297e-6, -7.767e-7, 5.199e-7
0.109, -1.296e-6, -7.758e-7, 5.205e-7
0.108, -1.292e-6, -7.748e-7, 5.175e-7
0.107, -1.296e-6, -7.748e-7, 5.212e-7
0.106, -1.295e-6, -7.733e-7, 5.218e-7
0.105, -1.296e-6, -7.736e-7, 5.227e-7
0.104, -1.298e-6, -7.745e-7, 5.230e-7
0.103, -1.296e-6, -7.724e-7, 5.233e-7
0.102, -1.294e-6, -7.727e-7, 5.209e-7
0.101, -1.295e-6, -7.730e-7, 5.221e-7
0.100, -1.294e-6, -7.703e-7, 5.233e-7
0.099, -1.291e-6, -7.700e-7, 5.215e-7
0.098, -1.295e-6, -7.703e-7, 5.251e-7
0.097, -1.294e-6, -7.687e-7, 5.254e-7
0.096, -1.293e-6, -7.697e-7, 5.233e-7
0.095, -1.291e-6, -7.678e-7, 5.230e-7
0.094, -1.291e-6, -7.651e-7, 5.263e-7
0.093, -1.290e-6, -7.678e-7, 5.224e-7
0.092, -1.291e-6, -7.663e-7, 5.242e-7
0.091, -1.287e-6, -7.642e-7, 5.233e-7
0.090, -1.288e-6, -7.645e-7, 5.233e-7
0.089, -1.289e-6, -7.648e-7, 5.242e-7
0.088, -1.287e-6, -7.623e-7, 5.248e-7
0.087, -1.284e-6, -7.605e-7, 5.233e-7
0.086, -1.285e-6, -7.608e-7, 5.245e-7
0.085, -1.284e-6, -7.587e-7, 5.254e-7
0.084, -1.283e-6, -7.596e-7, 5.236e-7
0.083, -1.284e-6, -7.587e-7, 5.254e-7
0.082, -1.283e-6, -7.578e-7, 5.251e-7
0.081, -1.281e-6, -7.562e-7, 5.245e-7
0.080, -1.280e-6, -7.562e-7, 5.239e-7
0.079, -1.280e-6, -7.547e-7, 5.251e-7
0.078, -1.278e-6, -7.550e-7, 5.233e-7
0.077, -1.277e-6, -7.535e-7, 5.233e-7
0.076, -1.279e-6, -7.547e-7, 5.242e-7
0.075, -1.276e-6, -7.532e-7, 5.227e-7
0.074, -1.274e-6, -7.510e-7, 5.230e-7
0.073, -1.273e-6, -7.495e-7, 5.239e-7
0.072, -1.273e-6, -7.498e-7, 5.230e-7
0.071, -1.273e-6, -7.486e-7, 5.242e-7
0.070, -1.271e-6, -7.465e-7, 5.242e-7
0.069, -1.269e-6, -7.471e-7, 5.218e-7
0.068, -1.267e-6, -7.462e-7, 5.212e-7
0.067, -1.267e-6, -7.446e-7, 5.224e-7
0.066, -1.265e-6, -7.449e-7, 5.205e-7
0.065, -1.266e-6, -7.434e-7, 5.224e-7
0.064, -1.262e-6, -7.410e-7, 5.212e-7
0.063, -1.262e-6, -7.419e-7, 5.199e-7
0.062, -1.262e-6, -7.407e-7, 5.212e-7
0.061, -1.260e-6, -7.391e-7, 5.209e-7
0.060, -1.259e-6, -7.385e-7, 5.209e-7
0.059, -1.259e-6, -7.388e-7, 5.202e-7
0.058, -1.257e-6, -7.373e-7, 5.193e-7
0.057, -1.255e-6, -7.367e-7, 5.187e-7
0.056, -1.254e-6, -7.343e-7, 5.196e-7
0.055, -1.253e-6, -7.340e-7, 5.193e-7
0.054, -1.252e-6, -7.340e-7, 5.184e-7
0.053, -1.252e-6, -7.327e-7, 5.193e-7
0.052, -1.249e-6, -7.309e-7, 5.181e-7
0.051, -1.249e-6, -7.312e-7, 5.178e-7
0.050, -1.247e-6, -7.297e-7, 5.175e-7
0.049, -1.245e-6, -7.282e-7, 5.172e-7
0.048, -1.245e-6, -7.291e-7, 5.163e-7
0.047, -1.245e-6, -7.269e-7, 5.178e-7
0.046, -1.240e-6, -7.245e-7, 5.154e-7
0.045, -1.240e-6, -7.251e-7, 5.147e-7
0.044, -1.240e-6, -7.242e-7, 5.163e-7
0.043, -1.237e-6, -7.224e-7, 5.141e-7
0.042, -1.235e-6, -7.205e-7, 5.147e-7
0.041, -1.234e-6, -7.208e-7, 5.135e-7
0.040, -1.233e-6, -7.196e-7, 5.135e-7
0.039, -1.233e-6, -7.190e-7, 5.141e-7
0.038, -1.235e-6, -7.193e-7, 5.154e-7
0.037, -1.227e-6, -7.147e-7, 5.120e-7
0.036, -1.228e-6, -7.163e-7, 5.114e-7
0.035, -1.226e-6, -7.153e-7, 5.108e-7
0.034, -1.225e-6, -7.135e-7, 5.111e-7
0.033, -1.223e-6, -7.135e-7, 5.096e-7
0.032, -1.222e-6, -7.126e-7, 5.099e-7
0.031, -1.223e-6, -7.114e-7, 5.117e-7
0.030, -1.220e-6, -7.114e-7, 5.086e-7
0.029, -1.218e-6, -7.099e-7, 5.080e-7
0.028, -1.216e-6, -7.068e-7, 5.096e-7
0.027, -1.216e-6, -7.086e-7, 5.071e-7
0.026, -1.215e-6, -7.077e-7, 5.071e-7
0.025, -1.214e-6, -7.056e-7, 5.080e-7
0.024, -1.210e-6, -7.059e-7, 5.044e-7
0.023, -1.210e-6, -7.041e-7, 5.062e-7
0.022, -1.208e-6, -7.028e-7, 5.050e-7
0.021, -1.208e-6, -7.031e-7, 5.047e-7
0.020, -1.205e-6, -7.004e-7, 5.047e-7
0.019, -1.204e-6, -7.010e-7, 5.035e-7
0.018, -1.202e-6, -6.995e-7, 5.025e-7
0.017, -1.201e-6, -6.989e-7, 5.019e-7
0.016, -1.200e-6, -6.967e-7, 5.035e-7
0.015, -1.199e-6, -6.976e-7, 5.013e-7
0.014, -1.199e-6, -6.976e-7, 5.013e-7
0.013, -1.195e-6, -6.943e-7, 5.010e-7
0.012, -1.194e-6, -6.955e-7, 4.989e-7
0.011, -1.193e-6, -6.940e-7, 4.989e-7
0.010, -1.190e-6, -6.918e-7, 4.983e-7
0.009, -1.190e-6, -6.928e-7, 4.974e-7
0.008, -1.190e-6, -6.915e-7, 4.980e-7
0.007, -1.190e-6, -6.912e-7, 4.986e-7
0.006, -1.183e-6, -6.894e-7, 4.940e-7
0.005, -1.185e-6, -6.903e-7, 4.949e-7
0.004, -1.184e-6, -6.888e-7, 4.952e-7
0.003, -1.183e-6, -6.879e-7, 4.955e-7
0.002, -1.182e-6, -6.870e-7, 4.946e-7
0.001, -1.181e-6, -6.848e-7, 4.958e-7
-0.000, -1.179e-6, -6.848e-7, 4.937e-7
-0.001, -1.179e-6, -6.860e-7, 4.928e-7
-0.002, -1.175e-6, -6.827e-7, 4.919e-7
-0.003, -1.174e-6, -6.833e-7, 4.909e-7
-0.004, -1.172e-6, -6.818e-7, 4.903e-7
-0.005, -1.172e-6, -6.824e-7, 4.900e-7
-0.006, -1.171e-6, -6.821e-7, 4.888e-7
-0.007, -1.169e-6, -6.799e-7, 4.894e-7
-0.008, -1.169e-6, -6.803e-7, 4.888e-7
-0.009, -1.166e-6, -6.790e-7, 4.873e-7
-0.010, -1.165e-6, -6.766e-7, 4.885e-7
-0.011, -1.165e-6, -6.781e-7, 4.873e-7
-0.012, -1.164e-6, -6.772e-7, 4.867e-7
-0.013, -1.162e-6, -6.763e-7, 4.858e-7
-0.014, -1.161e-6, -6.760e-7, 4.851e-7
-0.015, -1.159e-6, -6.751e-7, 4.836e-7
-0.016, -1.160e-6, -6.745e-7, 4.858e-7
-0.017, -1.157e-6, -6.732e-7, 4.842e-7
-0.018, -1.155e-6, -6.726e-7, 4.827e-7
-0.019, -1.153e-6, -6.726e-7, 4.809e-7
-0.020, -1.154e-6, -6.714e-7, 4.830e-7
-0.021, -1.152e-6, -6.720e-7, 4.797e-7
-0.022, -1.152e-6, -6.711e-7, 4.806e-7
-0.023, -1.149e-6, -6.690e-7, 4.797e-7
-0.024, -1.149e-6, -6.705e-7, 4.787e-7
-0.025, -1.149e-6, -6.696e-7, 4.797e-7
-0.026, -1.148e-6, -6.690e-7, 4.793e-7
-0.027, -1.146e-6, -6.687e-7, 4.778e-7
-0.028, -1.146e-6, -6.671e-7, 4.784e-7
-0.029, -1.145e-6, -6.671e-7, 4.775e-7
-0.030, -1.145e-6, -6.687e-7, 4.763e-7
-0.031, -1.143e-6, -6.674e-7, 4.757e-7
-0.032, -1.142e-6, -6.659e-7, 4.757e-7
-0.033, -1.141e-6, -6.665e-7, 4.748e-7
-0.034, -1.139e-6, -6.653e-7, 4.739e-7
-0.035, -1.136e-6, -6.635e-7, 4.729e-7
-0.036, -1.137e-6, -6.656e-7, 4.717e-7
-0.037, -1.139e-6, -6.644e-7, 4.742e-7
-0.038, -1.137e-6, -6.638e-7, 4.732e-7
-0.039, -1.136e-6, -6.635e-7, 4.723e-7
-0.040, -1.135e-6, -6.635e-7, 4.720e-7
-0.041, -1.132e-6, -6.616e-7, 4.705e-7
-0.042, -1.134e-6, -6.626e-7, 4.711e-7
-0.043, -1.129e-6, -6.607e-7, 4.687e-7
-0.044, -1.131e-6, -6.613e-7, 4.696e-7
-0.045, -1.128e-6, -6.610e-7, 4.671e-7
-0.046, -1.128e-6, -6.595e-7, 4.684e-7
-0.047, -1.128e-6, -6.598e-7, 4.687e-7
-0.048, -1.128e-6, -6.613e-7, 4.668e-7
-0.049, -1.128e-6, -6.601e-7, 4.681e-7
-0.050, -1.125e-6, -6.580e-7, 4.671e-7
