Feb. 28, 2018   11:51:04
Square Wave Voltammetry
File: c:\users\electrochemist\desktop\2018\28022018_unbuffered_9,2\24_e6_9,2_0118_ph6,29_5.txt
Data Source:  Experiment
Instrument Model:  CHI1040A
Header: 
Note: 

Init E (V) = 0.5
Final E (V) = -0.05
Incr E (V) = 0.001
Amplitude (V) = 0.1
Frequency (Hz) = 150
Quiet Time (sec) = 0
Sensitivity (A/V) = 1e-6

Difference:

Forward:

Reverse:

Potential/V, Diff(i/A), For(i/A), Rev(i/A)

0.499, -7.571e-7, -1.954e-7, 5.617e-7
0.498, -9.255e-7, -4.468e-7, 4.787e-7
0.497, -9.173e-7, -4.645e-7, 4.528e-7
0.496, -9.118e-7, -4.721e-7, 4.397e-7
0.495, -9.042e-7, -4.743e-7, 4.299e-7
0.494, -8.999e-7, -4.767e-7, 4.232e-7
0.493, -8.947e-7, -4.782e-7, 4.165e-7
0.492, -8.898e-7, -4.791e-7, 4.107e-7
0.491, -8.862e-7, -4.810e-7, 4.052e-7
0.490, -8.850e-7, -4.804e-7, 4.046e-7
0.489, -8.804e-7, -4.804e-7, 4.000e-7
0.488, -8.807e-7, -4.834e-7, 3.973e-7
0.487, -8.816e-7, -4.834e-7, 3.982e-7
0.486, -8.758e-7, -4.822e-7, 3.936e-7
0.485, -8.770e-7, -4.846e-7, 3.924e-7
0.484, -8.779e-7, -4.856e-7, 3.924e-7
0.483, -8.734e-7, -4.849e-7, 3.884e-7
0.482, -8.743e-7, -4.862e-7, 3.881e-7
0.481, -8.734e-7, -4.856e-7, 3.878e-7
0.480, -8.715e-7, -4.862e-7, 3.854e-7
0.479, -8.724e-7, -4.892e-7, 3.832e-7
0.478, -8.715e-7, -4.874e-7, 3.841e-7
0.477, -8.703e-7, -4.877e-7, 3.826e-7
0.476, -8.703e-7, -4.898e-7, 3.805e-7
0.475, -8.679e-7, -4.886e-7, 3.793e-7
0.474, -8.703e-7, -4.895e-7, 3.808e-7
0.473, -8.673e-7, -4.898e-7, 3.774e-7
0.472, -8.666e-7, -4.889e-7, 3.777e-7
0.471, -8.663e-7, -4.907e-7, 3.756e-7
0.470, -8.688e-7, -4.929e-7, 3.759e-7
0.469, -8.670e-7, -4.920e-7, 3.750e-7
0.468, -8.666e-7, -4.920e-7, 3.747e-7
0.467, -8.685e-7, -4.938e-7, 3.747e-7
0.466, -8.703e-7, -4.947e-7, 3.756e-7
0.465, -8.670e-7, -4.935e-7, 3.735e-7
0.464, -8.682e-7, -4.944e-7, 3.738e-7
0.463, -8.682e-7, -4.944e-7, 3.738e-7
0.462, -8.685e-7, -4.941e-7, 3.744e-7
0.461, -8.682e-7, -4.968e-7, 3.713e-7
0.460, -8.691e-7, -4.962e-7, 3.729e-7
0.459, -8.679e-7, -4.947e-7, 3.732e-7
0.458, -8.697e-7, -4.996e-7, 3.701e-7
0.457, -8.700e-7, -4.987e-7, 3.713e-7
0.456, -8.694e-7, -4.993e-7, 3.701e-7
0.455, -8.706e-7, -5.002e-7, 3.704e-7
0.454, -8.718e-7, -5.002e-7, 3.716e-7
0.453, -8.682e-7, -4.999e-7, 3.683e-7
0.452, -8.712e-7, -5.017e-7, 3.695e-7
0.451, -8.703e-7, -5.014e-7, 3.689e-7
0.450, -8.712e-7, -5.008e-7, 3.704e-7
0.449, -8.728e-7, -5.048e-7, 3.680e-7
0.448, -8.728e-7, -5.030e-7, 3.698e-7
0.447, -8.712e-7, -5.042e-7, 3.671e-7
0.446, -8.718e-7, -5.039e-7, 3.680e-7
0.445, -8.728e-7, -5.033e-7, 3.695e-7
0.444, -8.731e-7, -5.051e-7, 3.680e-7
0.443, -8.737e-7, -5.087e-7, 3.649e-7
0.442, -8.749e-7, -5.078e-7, 3.671e-7
0.441, -8.734e-7, -5.057e-7, 3.677e-7
0.440, -8.761e-7, -5.087e-7, 3.674e-7
0.439, -8.773e-7, -5.084e-7, 3.689e-7
0.438, -8.767e-7, -5.091e-7, 3.677e-7
0.437, -8.776e-7, -5.106e-7, 3.671e-7
0.436, -8.792e-7, -5.103e-7, 3.689e-7
0.435, -8.789e-7, -5.112e-7, 3.677e-7
0.434, -8.795e-7, -5.136e-7, 3.658e-7
0.433, -8.819e-7, -5.139e-7, 3.680e-7
0.432, -8.798e-7, -5.136e-7, 3.661e-7
0.431, -8.816e-7, -5.155e-7, 3.661e-7
0.430, -8.822e-7, -5.158e-7, 3.664e-7
0.429, -8.828e-7, -5.161e-7, 3.667e-7
0.428, -8.822e-7, -5.155e-7, 3.667e-7
0.427, -8.859e-7, -5.173e-7, 3.686e-7
0.426, -8.862e-7, -5.185e-7, 3.677e-7
0.425, -8.843e-7, -5.185e-7, 3.658e-7
0.424, -8.883e-7, -5.207e-7, 3.677e-7
0.423, -8.868e-7, -5.194e-7, 3.674e-7
0.422, -8.889e-7, -5.228e-7, 3.661e-7
0.421, -8.895e-7, -5.210e-7, 3.686e-7
0.420, -8.889e-7, -5.210e-7, 3.680e-7
0.419, -8.880e-7, -5.240e-7, 3.640e-7
0.418, -8.926e-7, -5.243e-7, 3.683e-7
0.417, -8.926e-7, -5.252e-7, 3.674e-7
0.416, -8.932e-7, -5.277e-7, 3.655e-7
0.415, -8.923e-7, -5.249e-7, 3.674e-7
0.414, -8.950e-7, -5.264e-7, 3.686e-7
0.413, -8.953e-7, -5.277e-7, 3.677e-7
0.412, -8.978e-7, -5.292e-7, 3.686e-7
0.411, -8.969e-7, -5.295e-7, 3.674e-7
0.410, -8.972e-7, -5.304e-7, 3.667e-7
0.409, -8.984e-7, -5.301e-7, 3.683e-7
0.408, -9.011e-7, -5.326e-7, 3.686e-7
0.407, -9.024e-7, -5.344e-7, 3.680e-7
0.406, -9.033e-7, -5.338e-7, 3.695e-7
0.405, -9.011e-7, -5.329e-7, 3.683e-7
0.404, -9.048e-7, -5.365e-7, 3.683e-7
0.403, -9.051e-7, -5.350e-7, 3.701e-7
0.402, -9.057e-7, -5.368e-7, 3.689e-7
0.401, -9.075e-7, -5.383e-7, 3.692e-7
0.400, -9.094e-7, -5.393e-7, 3.701e-7
0.399, -9.072e-7, -5.383e-7, 3.689e-7
0.398, -9.121e-7, -5.411e-7, 3.710e-7
0.397, -9.139e-7, -5.423e-7, 3.716e-7
0.396, -9.115e-7, -5.417e-7, 3.698e-7
0.395, -9.133e-7, -5.435e-7, 3.698e-7
0.394, -9.152e-7, -5.435e-7, 3.716e-7
0.393, -9.139e-7, -5.432e-7, 3.707e-7
0.392, -9.179e-7, -5.466e-7, 3.713e-7
0.391, -9.191e-7, -5.466e-7, 3.725e-7
0.390, -9.197e-7, -5.466e-7, 3.732e-7
0.389, -9.201e-7, -5.487e-7, 3.713e-7
0.388, -9.213e-7, -5.493e-7, 3.719e-7
0.387, -9.219e-7, -5.503e-7, 3.716e-7
0.386, -9.228e-7, -5.506e-7, 3.722e-7
0.385, -9.262e-7, -5.530e-7, 3.732e-7
0.384, -9.258e-7, -5.533e-7, 3.725e-7
0.383, -9.277e-7, -5.542e-7, 3.735e-7
0.382, -9.307e-7, -5.557e-7, 3.750e-7
0.381, -9.310e-7, -5.557e-7, 3.753e-7
0.380, -9.295e-7, -5.567e-7, 3.729e-7
0.379, -9.335e-7, -5.576e-7, 3.759e-7
0.378, -9.316e-7, -5.564e-7, 3.753e-7
0.377, -9.341e-7, -5.597e-7, 3.744e-7
0.376, -9.371e-7, -5.618e-7, 3.753e-7
0.375, -9.356e-7, -5.609e-7, 3.747e-7
0.374, -9.374e-7, -5.637e-7, 3.738e-7
0.373, -9.405e-7, -5.649e-7, 3.756e-7
0.372, -9.411e-7, -5.646e-7, 3.765e-7
0.371, -9.402e-7, -5.649e-7, 3.753e-7
0.370, -9.439e-7, -5.664e-7, 3.774e-7
0.369, -9.435e-7, -5.670e-7, 3.765e-7
0.368, -9.472e-7, -5.695e-7, 3.777e-7
0.367, -9.466e-7, -5.689e-7, 3.777e-7
0.366, -9.490e-7, -5.713e-7, 3.777e-7
0.365, -9.497e-7, -5.728e-7, 3.768e-7
0.364, -9.530e-7, -5.728e-7, 3.802e-7
0.363, -9.493e-7, -5.731e-7, 3.762e-7
0.362, -9.539e-7, -5.750e-7, 3.790e-7
0.361, -9.561e-7, -5.753e-7, 3.808e-7
0.360, -9.548e-7, -5.750e-7, 3.799e-7
0.359, -9.579e-7, -5.786e-7, 3.793e-7
0.358, -9.612e-7, -5.792e-7, 3.820e-7
0.357, -9.606e-7, -5.799e-7, 3.808e-7
0.356, -9.658e-7, -5.838e-7, 3.820e-7
0.355, -9.619e-7, -5.802e-7, 3.817e-7
0.354, -9.655e-7, -5.835e-7, 3.820e-7
0.353, -9.670e-7, -5.844e-7, 3.826e-7
0.352, -9.683e-7, -5.850e-7, 3.832e-7
0.351, -9.686e-7, -5.860e-7, 3.826e-7
0.350, -9.710e-7, -5.878e-7, 3.832e-7
0.349, -9.725e-7, -5.878e-7, 3.848e-7
0.348, -9.744e-7, -5.905e-7, 3.838e-7
0.347, -9.759e-7, -5.927e-7, 3.832e-7
0.346, -9.811e-7, -5.936e-7, 3.875e-7
0.345, -9.774e-7, -5.936e-7, 3.838e-7
0.344, -9.823e-7, -5.963e-7, 3.860e-7
0.343, -9.829e-7, -5.960e-7, 3.869e-7
0.342, -9.841e-7, -5.972e-7, 3.869e-7
0.341, -9.851e-7, -5.988e-7, 3.863e-7
0.340, -9.893e-7, -6.003e-7, 3.890e-7
0.339, -9.890e-7, -6.003e-7, 3.887e-7
0.338, -9.896e-7, -6.024e-7, 3.872e-7
0.337, -9.924e-7, -6.027e-7, 3.896e-7
0.336, -9.924e-7, -6.030e-7, 3.893e-7
0.335, -9.945e-7, -6.064e-7, 3.881e-7
0.334, -9.985e-7, -6.067e-7, 3.918e-7
0.333, -9.963e-7, -6.067e-7, 3.896e-7
0.332, -9.997e-7, -6.101e-7, 3.896e-7
0.331, -1.002e-6, -6.098e-7, 3.924e-7
0.330, -1.003e-6, -6.101e-7, 3.927e-7
0.329, -1.003e-6, -6.131e-7, 3.899e-7
0.328, -1.007e-6, -6.128e-7, 3.939e-7
0.327, -1.008e-6, -6.156e-7, 3.921e-7
0.326, -1.009e-6, -6.168e-7, 3.924e-7
0.325, -1.011e-6, -6.177e-7, 3.933e-7
0.324, -1.013e-6, -6.177e-7, 3.951e-7
0.323, -1.016e-6, -6.204e-7, 3.954e-7
0.322, -1.018e-6, -6.214e-7, 3.970e-7
0.321, -1.018e-6, -6.226e-7, 3.951e-7
0.320, -1.020e-6, -6.235e-7, 3.960e-7
0.319, -1.020e-6, -6.244e-7, 3.954e-7
0.318, -1.024e-6, -6.262e-7, 3.973e-7
0.317, -1.026e-6, -6.278e-7, 3.979e-7
0.316, -1.028e-6, -6.293e-7, 3.985e-7
0.315, -1.027e-6, -6.290e-7, 3.979e-7
0.314, -1.029e-6, -6.311e-7, 3.979e-7
0.313, -1.033e-6, -6.323e-7, 4.006e-7
0.312, -1.032e-6, -6.326e-7, 3.997e-7
0.311, -1.036e-6, -6.360e-7, 3.997e-7
0.310, -1.038e-6, -6.369e-7, 4.009e-7
0.309, -1.041e-6, -6.378e-7, 4.028e-7
0.308, -1.040e-6, -6.391e-7, 4.006e-7
0.307, -1.044e-6, -6.387e-7, 4.049e-7
0.306, -1.044e-6, -6.418e-7, 4.025e-7
0.305, -1.046e-6, -6.424e-7, 4.040e-7
0.304, -1.046e-6, -6.418e-7, 4.040e-7
0.303, -1.050e-6, -6.455e-7, 4.049e-7
0.302, -1.052e-6, -6.467e-7, 4.058e-7
0.301, -1.054e-6, -6.476e-7, 4.061e-7
0.300, -1.054e-6, -6.485e-7, 4.055e-7
0.299, -1.056e-6, -6.516e-7, 4.049e-7
0.298, -1.059e-6, -6.500e-7, 4.086e-7
0.297, -1.060e-6, -6.522e-7, 4.082e-7
0.296, -1.063e-6, -6.549e-7, 4.079e-7
0.295, -1.066e-6, -6.555e-7, 4.104e-7
0.294, -1.065e-6, -6.555e-7, 4.092e-7
0.293, -1.068e-6, -6.586e-7, 4.098e-7
0.292, -1.070e-6, -6.577e-7, 4.122e-7
0.291, -1.070e-6, -6.586e-7, 4.119e-7
0.290, -1.073e-6, -6.619e-7, 4.107e-7
0.289, -1.076e-6, -6.629e-7, 4.131e-7
0.288, -1.077e-6, -6.632e-7, 4.140e-7
0.287, -1.079e-6, -6.662e-7, 4.128e-7
0.286, -1.082e-6, -6.665e-7, 4.159e-7
0.285, -1.082e-6, -6.674e-7, 4.150e-7
0.284, -1.086e-6, -6.699e-7, 4.159e-7
0.283, -1.086e-6, -6.708e-7, 4.153e-7
0.282, -1.087e-6, -6.708e-7, 4.165e-7
0.281, -1.093e-6, -6.741e-7, 4.192e-7
0.280, -1.092e-6, -6.741e-7, 4.180e-7
0.279, -1.093e-6, -6.757e-7, 4.174e-7
0.278, -1.098e-6, -6.787e-7, 4.192e-7
0.277, -1.099e-6, -6.784e-7, 4.211e-7
0.276, -1.100e-6, -6.787e-7, 4.211e-7
0.275, -1.103e-6, -6.815e-7, 4.214e-7
0.274, -1.106e-6, -6.818e-7, 4.241e-7
0.273, -1.106e-6, -6.836e-7, 4.223e-7
0.272, -1.109e-6, -6.857e-7, 4.229e-7
0.271, -1.110e-6, -6.857e-7, 4.247e-7
0.270, -1.110e-6, -6.870e-7, 4.232e-7
0.269, -1.112e-6, -6.894e-7, 4.226e-7
0.268, -1.117e-6, -6.906e-7, 4.263e-7
0.267, -1.116e-6, -6.909e-7, 4.250e-7
0.266, -1.118e-6, -6.915e-7, 4.263e-7
0.265, -1.121e-6, -6.928e-7, 4.284e-7
0.264, -1.120e-6, -6.937e-7, 4.266e-7
0.263, -1.125e-6, -6.961e-7, 4.293e-7
0.262, -1.126e-6, -6.958e-7, 4.302e-7
0.261, -1.129e-6, -6.995e-7, 4.299e-7
0.260, -1.129e-6, -7.007e-7, 4.287e-7
0.259, -1.133e-6, -7.007e-7, 4.324e-7
0.258, -1.132e-6, -7.001e-7, 4.314e-7
0.257, -1.134e-6, -7.034e-7, 4.308e-7
0.256, -1.140e-6, -7.053e-7, 4.348e-7
0.255, -1.139e-6, -7.062e-7, 4.327e-7
0.254, -1.140e-6, -7.071e-7, 4.330e-7
0.253, -1.143e-6, -7.077e-7, 4.354e-7
0.252, -1.147e-6, -7.095e-7, 4.372e-7
0.251, -1.147e-6, -7.111e-7, 4.357e-7
0.250, -1.150e-6, -7.132e-7, 4.366e-7
0.249, -1.151e-6, -7.126e-7, 4.385e-7
0.248, -1.153e-6, -7.150e-7, 4.375e-7
0.247, -1.156e-6, -7.153e-7, 4.403e-7
0.246, -1.156e-6, -7.166e-7, 4.391e-7
0.245, -1.160e-6, -7.196e-7, 4.400e-7
0.244, -1.162e-6, -7.196e-7, 4.424e-7
0.243, -1.160e-6, -7.193e-7, 4.403e-7
0.242, -1.164e-6, -7.224e-7, 4.415e-7
0.241, -1.167e-6, -7.227e-7, 4.443e-7
0.240, -1.166e-6, -7.242e-7, 4.421e-7
0.239, -1.169e-6, -7.263e-7, 4.424e-7
0.238, -1.172e-6, -7.254e-7, 4.467e-7
0.237, -1.172e-6, -7.254e-7, 4.461e-7
0.236, -1.177e-6, -7.300e-7, 4.473e-7
0.235, -1.175e-6, -7.288e-7, 4.464e-7
0.234, -1.177e-6, -7.309e-7, 4.458e-7
0.233, -1.183e-6, -7.343e-7, 4.485e-7
0.232, -1.182e-6, -7.321e-7, 4.501e-7
0.231, -1.183e-6, -7.321e-7, 4.507e-7
0.230, -1.186e-6, -7.361e-7, 4.494e-7
0.229, -1.188e-6, -7.358e-7, 4.519e-7
0.228, -1.188e-6, -7.370e-7, 4.513e-7
0.227, -1.192e-6, -7.388e-7, 4.534e-7
0.226, -1.193e-6, -7.391e-7, 4.534e-7
0.225, -1.194e-6, -7.404e-7, 4.540e-7
0.224, -1.196e-6, -7.422e-7, 4.540e-7
0.223, -1.199e-6, -7.425e-7, 4.562e-7
0.222, -1.200e-6, -7.440e-7, 4.565e-7
0.221, -1.202e-6, -7.452e-7, 4.568e-7
0.220, -1.204e-6, -7.449e-7, 4.589e-7
0.219, -1.204e-6, -7.456e-7, 4.580e-7
0.218, -1.206e-6, -7.474e-7, 4.583e-7
0.217, -1.210e-6, -7.495e-7, 4.604e-7
0.216, -1.210e-6, -7.486e-7, 4.617e-7
0.215, -1.213e-6, -7.526e-7, 4.607e-7
0.214, -1.213e-6, -7.507e-7, 4.626e-7
0.213, -1.215e-6, -7.523e-7, 4.632e-7
0.212, -1.219e-6, -7.556e-7, 4.638e-7
0.211, -1.220e-6, -7.547e-7, 4.656e-7
0.210, -1.222e-6, -7.559e-7, 4.659e-7
0.209, -1.221e-6, -7.562e-7, 4.644e-7
0.208, -1.224e-6, -7.571e-7, 4.668e-7
0.207, -1.225e-6, -7.571e-7, 4.674e-7
0.206, -1.227e-6, -7.599e-7, 4.668e-7
0.205, -1.229e-6, -7.596e-7, 4.690e-7
0.204, -1.228e-6, -7.599e-7, 4.684e-7
0.203, -1.233e-6, -7.623e-7, 4.708e-7
0.202, -1.235e-6, -7.620e-7, 4.726e-7
0.201, -1.235e-6, -7.633e-7, 4.717e-7
0.200, -1.239e-6, -7.654e-7, 4.732e-7
0.199, -1.235e-6, -7.639e-7, 4.714e-7
0.198, -1.239e-6, -7.651e-7, 4.739e-7
0.197, -1.242e-6, -7.672e-7, 4.745e-7
0.196, -1.243e-6, -7.669e-7, 4.760e-7
0.195, -1.244e-6, -7.675e-7, 4.760e-7
0.194, -1.245e-6, -7.697e-7, 4.757e-7
0.193, -1.249e-6, -7.697e-7, 4.797e-7
0.192, -1.247e-6, -7.703e-7, 4.772e-7
0.191, -1.251e-6, -7.721e-7, 4.790e-7
0.190, -1.253e-6, -7.712e-7, 4.821e-7
0.189, -1.252e-6, -7.721e-7, 4.797e-7
0.188, -1.254e-6, -7.739e-7, 4.797e-7
0.187, -1.255e-6, -7.727e-7, 4.824e-7
0.186, -1.255e-6, -7.733e-7, 4.818e-7
0.185, -1.259e-6, -7.764e-7, 4.830e-7
0.184, -1.258e-6, -7.752e-7, 4.824e-7
0.183, -1.259e-6, -7.752e-7, 4.836e-7
0.182, -1.260e-6, -7.764e-7, 4.839e-7
0.181, -1.262e-6, -7.764e-7, 4.861e-7
0.180, -1.263e-6, -7.773e-7, 4.861e-7
0.179, -1.265e-6, -7.797e-7, 4.851e-7
0.178, -1.267e-6, -7.776e-7, 4.891e-7
0.177, -1.268e-6, -7.797e-7, 4.882e-7
0.176, -1.269e-6, -7.794e-7, 4.891e-7
0.175, -1.273e-6, -7.813e-7, 4.916e-7
0.174, -1.269e-6, -7.800e-7, 4.888e-7
0.173, -1.271e-6, -7.803e-7, 4.909e-7
0.172, -1.273e-6, -7.819e-7, 4.916e-7
0.171, -1.274e-6, -7.825e-7, 4.913e-7
0.170, -1.276e-6, -7.834e-7, 4.925e-7
0.169, -1.276e-6, -7.828e-7, 4.931e-7
0.168, -1.277e-6, -7.834e-7, 4.940e-7
0.167, -1.279e-6, -7.852e-7, 4.934e-7
0.166, -1.279e-6, -7.828e-7, 4.958e-7
0.165, -1.279e-6, -7.837e-7, 4.952e-7
0.164, -1.280e-6, -7.840e-7, 4.961e-7
0.163, -1.282e-6, -7.840e-7, 4.980e-7
0.162, -1.284e-6, -7.858e-7, 4.980e-7
0.161, -1.283e-6, -7.858e-7, 4.977e-7
0.160, -1.284e-6, -7.852e-7, 4.989e-7
0.159, -1.287e-6, -7.868e-7, 4.998e-7
0.158, -1.287e-6, -7.864e-7, 5.001e-7
0.157, -1.287e-6, -7.864e-7, 5.004e-7
0.156, -1.288e-6, -7.868e-7, 5.016e-7
0.155, -1.287e-6, -7.868e-7, 5.004e-7
0.154, -1.289e-6, -7.861e-7, 5.032e-7
0.153, -1.291e-6, -7.880e-7, 5.025e-7
0.152, -1.293e-6, -7.889e-7, 5.041e-7
0.151, -1.292e-6, -7.880e-7, 5.038e-7
0.150, -1.292e-6, -7.868e-7, 5.050e-7
0.149, -1.295e-6, -7.892e-7, 5.062e-7
0.148, -1.294e-6, -7.864e-7, 5.071e-7
0.147, -1.294e-6, -7.874e-7, 5.065e-7
0.146, -1.295e-6, -7.880e-7, 5.068e-7
0.145, -1.299e-6, -7.889e-7, 5.099e-7
0.144, -1.298e-6, -7.889e-7, 5.086e-7
0.143, -1.297e-6, -7.886e-7, 5.086e-7
0.142, -1.299e-6, -7.877e-7, 5.111e-7
0.141, -1.297e-6, -7.883e-7, 5.086e-7
0.140, -1.301e-6, -7.898e-7, 5.111e-7
0.139, -1.300e-6, -7.880e-7, 5.120e-7
0.138, -1.300e-6, -7.883e-7, 5.117e-7
0.137, -1.298e-6, -7.874e-7, 5.105e-7
0.136, -1.300e-6, -7.877e-7, 5.126e-7
0.135, -1.303e-6, -7.880e-7, 5.147e-7
0.134, -1.302e-6, -7.874e-7, 5.147e-7
0.133, -1.301e-6, -7.858e-7, 5.151e-7
0.132, -1.301e-6, -7.874e-7, 5.132e-7
0.131, -1.303e-6, -7.892e-7, 5.138e-7
0.130, -1.303e-6, -7.861e-7, 5.169e-7
0.129, -1.303e-6, -7.864e-7, 5.166e-7
0.128, -1.303e-6, -7.877e-7, 5.154e-7
0.127, -1.303e-6, -7.861e-7, 5.166e-7
0.126, -1.302e-6, -7.855e-7, 5.169e-7
0.125, -1.305e-6, -7.874e-7, 5.178e-7
0.124, -1.304e-6, -7.852e-7, 5.190e-7
0.123, -1.303e-6, -7.837e-7, 5.190e-7
0.122, -1.305e-6, -7.871e-7, 5.175e-7
0.121, -1.305e-6, -7.846e-7, 5.209e-7
0.120, -1.304e-6, -7.840e-7, 5.199e-7
0.119, -1.303e-6, -7.846e-7, 5.187e-7
0.118, -1.304e-6, -7.831e-7, 5.209e-7
0.117, -1.303e-6, -7.831e-7, 5.196e-7
0.116, -1.303e-6, -7.834e-7, 5.193e-7
0.115, -1.303e-6, -7.813e-7, 5.215e-7
0.114, -1.302e-6, -7.816e-7, 5.209e-7
0.113, -1.304e-6, -7.831e-7, 5.209e-7
0.112, -1.305e-6, -7.813e-7, 5.233e-7
0.111, -1.301e-6, -7.803e-7, 5.212e-7
0.110, -1.302e-6, -7.806e-7, 5.212e-7
0.109, -1.304e-6, -7.800e-7, 5.242e-7
0.108, -1.302e-6, -7.779e-7, 5.239e-7
0.107, -1.301e-6, -7.794e-7, 5.215e-7
0.106, -1.302e-6, -7.776e-7, 5.242e-7
0.105, -1.299e-6, -7.761e-7, 5.233e-7
0.104, -1.300e-6, -7.767e-7, 5.236e-7
0.103, -1.300e-6, -7.761e-7, 5.236e-7
0.102, -1.300e-6, -7.758e-7, 5.245e-7
0.101, -1.301e-6, -7.764e-7, 5.245e-7
0.100, -1.302e-6, -7.764e-7, 5.257e-7
0.099, -1.298e-6, -7.739e-7, 5.242e-7
0.098, -1.302e-6, -7.748e-7, 5.273e-7
0.097, -1.298e-6, -7.730e-7, 5.251e-7
0.096, -1.297e-6, -7.724e-7, 5.245e-7
0.095, -1.297e-6, -7.718e-7, 5.248e-7
0.094, -1.298e-6, -7.709e-7, 5.270e-7
0.093, -1.296e-6, -7.706e-7, 5.254e-7
0.092, -1.296e-6, -7.706e-7, 5.257e-7
0.091, -1.295e-6, -7.684e-7, 5.266e-7
0.090, -1.294e-6, -7.684e-7, 5.257e-7
0.089, -1.293e-6, -7.672e-7, 5.260e-7
0.088, -1.294e-6, -7.663e-7, 5.282e-7
0.087, -1.291e-6, -7.648e-7, 5.263e-7
0.086, -1.291e-6, -7.660e-7, 5.245e-7
0.085, -1.293e-6, -7.645e-7, 5.282e-7
0.084, -1.287e-6, -7.626e-7, 5.248e-7
0.083, -1.289e-6, -7.629e-7, 5.260e-7
0.082, -1.287e-6, -7.614e-7, 5.260e-7
0.081, -1.287e-6, -7.608e-7, 5.257e-7
0.080, -1.286e-6, -7.608e-7, 5.248e-7
0.079, -1.286e-6, -7.590e-7, 5.266e-7
0.078, -1.283e-6, -7.578e-7, 5.248e-7
0.077, -1.283e-6, -7.575e-7, 5.260e-7
0.076, -1.283e-6, -7.578e-7, 5.257e-7
0.075, -1.282e-6, -7.565e-7, 5.251e-7
0.074, -1.280e-6, -7.559e-7, 5.245e-7
0.073, -1.281e-6, -7.544e-7, 5.270e-7
0.072, -1.279e-6, -7.535e-7, 5.251e-7
0.071, -1.279e-6, -7.529e-7, 5.257e-7
0.070, -1.279e-6, -7.514e-7, 5.273e-7
0.069, -1.276e-6, -7.504e-7, 5.257e-7
0.068, -1.276e-6, -7.510e-7, 5.245e-7
0.067, -1.276e-6, -7.498e-7, 5.260e-7
0.066, -1.271e-6, -7.480e-7, 5.230e-7
0.065, -1.274e-6, -7.495e-7, 5.242e-7
0.064, -1.272e-6, -7.465e-7, 5.254e-7
0.063, -1.269e-6, -7.449e-7, 5.245e-7
0.062, -1.268e-6, -7.465e-7, 5.215e-7
0.061, -1.266e-6, -7.428e-7, 5.233e-7
0.060, -1.265e-6, -7.422e-7, 5.230e-7
0.059, -1.263e-6, -7.422e-7, 5.212e-7
0.058, -1.264e-6, -7.410e-7, 5.233e-7
0.057, -1.261e-6, -7.382e-7, 5.227e-7
0.056, -1.260e-6, -7.385e-7, 5.212e-7
0.055, -1.259e-6, -7.370e-7, 5.221e-7
0.054, -1.258e-6, -7.370e-7, 5.205e-7
0.053, -1.257e-6, -7.361e-7, 5.212e-7
0.052, -1.256e-6, -7.349e-7, 5.209e-7
0.051, -1.253e-6, -7.327e-7, 5.199e-7
0.050, -1.253e-6, -7.343e-7, 5.190e-7
0.049, -1.251e-6, -7.309e-7, 5.199e-7
0.048, -1.250e-6, -7.315e-7, 5.187e-7
0.047, -1.248e-6, -7.309e-7, 5.172e-7
0.046, -1.248e-6, -7.288e-7, 5.193e-7
0.045, -1.246e-6, -7.282e-7, 5.175e-7
0.044, -1.244e-6, -7.269e-7, 5.172e-7
0.043, -1.246e-6, -7.266e-7, 5.190e-7
0.042, -1.244e-6, -7.257e-7, 5.181e-7
0.041, -1.242e-6, -7.254e-7, 5.166e-7
0.040, -1.239e-6, -7.224e-7, 5.166e-7
0.039, -1.237e-6, -7.224e-7, 5.151e-7
0.038, -1.237e-6, -7.214e-7, 5.151e-7
0.037, -1.235e-6, -7.190e-7, 5.160e-7
0.036, -1.234e-6, -7.193e-7, 5.147e-7
0.035, -1.233e-6, -7.181e-7, 5.144e-7
0.034, -1.232e-6, -7.175e-7, 5.144e-7
0.033, -1.229e-6, -7.169e-7, 5.126e-7
0.032, -1.226e-6, -7.144e-7, 5.114e-7
0.031, -1.229e-6, -7.153e-7, 5.132e-7
0.030, -1.224e-6, -7.129e-7, 5.108e-7
0.029, -1.225e-6, -7.141e-7, 5.111e-7
0.028, -1.222e-6, -7.102e-7, 5.114e-7
0.027, -1.222e-6, -7.099e-7, 5.120e-7
0.026, -1.221e-6, -7.108e-7, 5.099e-7
0.025, -1.219e-6, -7.086e-7, 5.102e-7
0.024, -1.217e-6, -7.071e-7, 5.096e-7
0.023, -1.216e-6, -7.071e-7, 5.086e-7
0.022, -1.216e-6, -7.062e-7, 5.096e-7
0.021, -1.211e-6, -7.044e-7, 5.071e-7
0.020, -1.209e-6, -7.041e-7, 5.053e-7
0.019, -1.208e-6, -7.025e-7, 5.059e-7
0.018, -1.207e-6, -7.013e-7, 5.056e-7
0.017, -1.207e-6, -7.025e-7, 5.041e-7
0.016, -1.204e-6, -6.992e-7, 5.050e-7
0.015, -1.204e-6, -7.010e-7, 5.035e-7
0.014, -1.203e-6, -6.998e-7, 5.028e-7
0.013, -1.200e-6, -6.964e-7, 5.041e-7
0.012, -1.200e-6, -6.973e-7, 5.032e-7
0.011, -1.198e-6, -6.967e-7, 5.013e-7
0.010, -1.193e-6, -6.943e-7, 4.989e-7
0.009, -1.191e-6, -6.931e-7, 4.983e-7
0.008, -1.196e-6, -6.949e-7, 5.010e-7
0.007, -1.190e-6, -6.906e-7, 4.995e-7
0.006, -1.188e-6, -6.909e-7, 4.974e-7
0.005, -1.190e-6, -6.928e-7, 4.974e-7
0.004, -1.187e-6, -6.894e-7, 4.977e-7
0.003, -1.185e-6, -6.885e-7, 4.964e-7
0.002, -1.186e-6, -6.882e-7, 4.983e-7
0.001, -1.184e-6, -6.879e-7, 4.961e-7
-0.000, -1.182e-6, -6.870e-7, 4.949e-7
-0.001, -1.183e-6, -6.876e-7, 4.955e-7
-0.002, -1.182e-6, -6.873e-7, 4.952e-7
-0.003, -1.176e-6, -6.836e-7, 4.925e-7
-0.004, -1.177e-6, -6.845e-7, 4.925e-7
-0.005, -1.175e-6, -6.821e-7, 4.925e-7
-0.006, -1.173e-6, -6.815e-7, 4.916e-7
-0.007, -1.174e-6, -6.824e-7, 4.912e-7
-0.008, -1.171e-6, -6.799e-7, 4.906e-7
-0.009, -1.170e-6, -6.803e-7, 4.900e-7
-0.010, -1.169e-6, -6.806e-7, 4.885e-7
-0.011, -1.170e-6, -6.803e-7, 4.894e-7
-0.012, -1.167e-6, -6.778e-7, 4.888e-7
-0.013, -1.166e-6, -6.784e-7, 4.873e-7
-0.014, -1.164e-6, -6.769e-7, 4.873e-7
-0.015, -1.161e-6, -6.754e-7, 4.858e-7
-0.016, -1.162e-6, -6.754e-7, 4.867e-7
-0.017, -1.160e-6, -6.748e-7, 4.855e-7
-0.018, -1.157e-6, -6.738e-7, 4.836e-7
-0.019, -1.157e-6, -6.735e-7, 4.836e-7
-0.020, -1.156e-6, -6.720e-7, 4.842e-7
-0.021, -1.157e-6, -6.729e-7, 4.836e-7
-0.022, -1.153e-6, -6.720e-7, 4.815e-7
-0.023, -1.153e-6, -6.717e-7, 4.812e-7
-0.024, -1.153e-6, -6.708e-7, 4.824e-7
-0.025, -1.151e-6, -6.705e-7, 4.809e-7
-0.026, -1.151e-6, -6.696e-7, 4.815e-7
-0.027, -1.149e-6, -6.690e-7, 4.797e-7
-0.028, -1.148e-6, -6.693e-7, 4.790e-7
-0.029, -1.147e-6, -6.680e-7, 4.793e-7
-0.030, -1.146e-6, -6.680e-7, 4.775e-7
-0.031, -1.146e-6, -6.680e-7, 4.781e-7
-0.032, -1.144e-6, -6.671e-7, 4.772e-7
-0.033, -1.143e-6, -6.665e-7, 4.760e-7
-0.034, -1.142e-6, -6.665e-7, 4.757e-7
-0.035, -1.140e-6, -6.650e-7, 4.748e-7
-0.036, -1.138e-6, -6.650e-7, 4.732e-7
-0.037, -1.140e-6, -6.659e-7, 4.739e-7
-0.038, -1.138e-6, -6.635e-7, 4.748e-7
-0.039, -1.136e-6, -6.647e-7, 4.717e-7
-0.040, -1.138e-6, -6.638e-7, 4.739e-7
-0.041, -1.137e-6, -6.632e-7, 4.736e-7
-0.042, -1.135e-6, -6.632e-7, 4.723e-7
-0.043, -1.133e-6, -6.632e-7, 4.696e-7
-0.044, -1.134e-6, -6.619e-7, 4.723e-7
-0.045, -1.130e-6, -6.604e-7, 4.699e-7
-0.046, -1.130e-6, -6.607e-7, 4.696e-7
-0.047, -1.129e-6, -6.607e-7, 4.687e-7
-0.048, -1.128e-6, -6.595e-7, 4.687e-7
-0.049, -1.126e-6, -6.586e-7, 4.678e-7
-0.050, -1.124e-6, -6.555e-7, 4.681e-7
