Feb. 28, 2018   11:50:45
Square Wave Voltammetry
File: c:\users\electrochemist\desktop\2018\28022018_unbuffered_9,2\24_e6_9,2_0118_ph6,29_1.txt
Data Source:  Experiment
Instrument Model:  CHI1040A
Header: 
Note: 

Init E (V) = 0.5
Final E (V) = -0.05
Incr E (V) = 0.001
Amplitude (V) = 0.1
Frequency (Hz) = 150
Quiet Time (sec) = 0
Sensitivity (A/V) = 1e-6

Difference:

Forward:

Reverse:
Ep = 0.035V
ip = 2.440e-10A
Ah = 2.649e-11VA

Potential/V, Diff(i/A), For(i/A), Rev(i/A)

0.499, -8.197e-7, -1.972e-7, 6.225e-7
0.498, -9.823e-7, -4.544e-7, 5.279e-7
0.497, -9.658e-7, -4.715e-7, 4.943e-7
0.496, -9.533e-7, -4.773e-7, 4.760e-7
0.495, -9.426e-7, -4.816e-7, 4.610e-7
0.494, -9.338e-7, -4.831e-7, 4.507e-7
0.493, -9.277e-7, -4.831e-7, 4.446e-7
0.492, -9.240e-7, -4.865e-7, 4.375e-7
0.491, -9.194e-7, -4.874e-7, 4.321e-7
0.490, -9.130e-7, -4.856e-7, 4.275e-7
0.489, -9.106e-7, -4.883e-7, 4.223e-7
0.488, -9.103e-7, -4.910e-7, 4.192e-7
0.487, -9.033e-7, -4.880e-7, 4.153e-7
0.486, -9.017e-7, -4.898e-7, 4.119e-7
0.485, -9.014e-7, -4.898e-7, 4.116e-7
0.484, -8.981e-7, -4.904e-7, 4.076e-7
0.483, -8.944e-7, -4.904e-7, 4.040e-7
0.482, -8.953e-7, -4.904e-7, 4.049e-7
0.481, -8.929e-7, -4.914e-7, 4.015e-7
0.480, -8.938e-7, -4.938e-7, 4.000e-7
0.479, -8.929e-7, -4.941e-7, 3.988e-7
0.478, -8.923e-7, -4.932e-7, 3.991e-7
0.477, -8.898e-7, -4.932e-7, 3.967e-7
0.476, -8.871e-7, -4.944e-7, 3.927e-7
0.475, -8.889e-7, -4.938e-7, 3.951e-7
0.474, -8.880e-7, -4.959e-7, 3.921e-7
0.473, -8.877e-7, -4.959e-7, 3.918e-7
0.472, -8.868e-7, -4.956e-7, 3.912e-7
0.471, -8.877e-7, -4.978e-7, 3.899e-7
0.470, -8.871e-7, -4.981e-7, 3.890e-7
0.469, -8.859e-7, -4.981e-7, 3.878e-7
0.468, -8.837e-7, -4.984e-7, 3.854e-7
0.467, -8.853e-7, -4.993e-7, 3.860e-7
0.466, -8.856e-7, -4.993e-7, 3.863e-7
0.465, -8.840e-7, -4.987e-7, 3.854e-7
0.464, -8.853e-7, -5.008e-7, 3.844e-7
0.463, -8.853e-7, -5.002e-7, 3.851e-7
0.462, -8.834e-7, -5.014e-7, 3.820e-7
0.461, -8.859e-7, -5.023e-7, 3.835e-7
0.460, -8.822e-7, -4.996e-7, 3.826e-7
0.459, -8.837e-7, -5.026e-7, 3.811e-7
0.458, -8.862e-7, -5.045e-7, 3.817e-7
0.457, -8.856e-7, -5.048e-7, 3.808e-7
0.456, -8.847e-7, -5.042e-7, 3.805e-7
0.455, -8.865e-7, -5.069e-7, 3.796e-7
0.454, -8.862e-7, -5.054e-7, 3.808e-7
0.453, -8.837e-7, -5.060e-7, 3.777e-7
0.452, -8.871e-7, -5.084e-7, 3.787e-7
0.451, -8.853e-7, -5.057e-7, 3.796e-7
0.450, -8.862e-7, -5.078e-7, 3.783e-7
0.449, -8.883e-7, -5.103e-7, 3.780e-7
0.448, -8.862e-7, -5.078e-7, 3.783e-7
0.447, -8.886e-7, -5.109e-7, 3.777e-7
0.446, -8.889e-7, -5.100e-7, 3.790e-7
0.445, -8.886e-7, -5.094e-7, 3.793e-7
0.444, -8.886e-7, -5.115e-7, 3.771e-7
0.443, -8.886e-7, -5.127e-7, 3.759e-7
0.442, -8.886e-7, -5.133e-7, 3.753e-7
0.441, -8.868e-7, -5.118e-7, 3.750e-7
0.440, -8.895e-7, -5.133e-7, 3.762e-7
0.439, -8.895e-7, -5.133e-7, 3.762e-7
0.438, -8.926e-7, -5.167e-7, 3.759e-7
0.437, -8.892e-7, -5.152e-7, 3.741e-7
0.436, -8.917e-7, -5.155e-7, 3.762e-7
0.435, -8.911e-7, -5.155e-7, 3.756e-7
0.434, -8.932e-7, -5.194e-7, 3.738e-7
0.433, -8.941e-7, -5.182e-7, 3.759e-7
0.432, -8.929e-7, -5.194e-7, 3.735e-7
0.431, -8.962e-7, -5.200e-7, 3.762e-7
0.430, -8.956e-7, -5.207e-7, 3.750e-7
0.429, -8.956e-7, -5.210e-7, 3.747e-7
0.428, -8.975e-7, -5.231e-7, 3.744e-7
0.427, -8.984e-7, -5.225e-7, 3.759e-7
0.426, -8.959e-7, -5.225e-7, 3.735e-7
0.425, -8.978e-7, -5.237e-7, 3.741e-7
0.424, -8.990e-7, -5.234e-7, 3.756e-7
0.423, -8.993e-7, -5.261e-7, 3.732e-7
0.422, -9.011e-7, -5.258e-7, 3.753e-7
0.421, -9.027e-7, -5.261e-7, 3.765e-7
0.420, -9.008e-7, -5.268e-7, 3.741e-7
0.419, -9.027e-7, -5.283e-7, 3.744e-7
0.418, -9.030e-7, -5.286e-7, 3.744e-7
0.417, -9.024e-7, -5.292e-7, 3.732e-7
0.416, -9.063e-7, -5.316e-7, 3.747e-7
0.415, -9.042e-7, -5.292e-7, 3.750e-7
0.414, -9.060e-7, -5.319e-7, 3.741e-7
0.413, -9.066e-7, -5.322e-7, 3.744e-7
0.412, -9.088e-7, -5.329e-7, 3.759e-7
0.411, -9.078e-7, -5.341e-7, 3.738e-7
0.410, -9.118e-7, -5.371e-7, 3.747e-7
0.409, -9.106e-7, -5.359e-7, 3.747e-7
0.408, -9.109e-7, -5.365e-7, 3.744e-7
0.407, -9.136e-7, -5.380e-7, 3.756e-7
0.406, -9.121e-7, -5.362e-7, 3.759e-7
0.405, -9.136e-7, -5.393e-7, 3.744e-7
0.404, -9.182e-7, -5.411e-7, 3.771e-7
0.403, -9.158e-7, -5.405e-7, 3.753e-7
0.402, -9.158e-7, -5.420e-7, 3.738e-7
0.401, -9.207e-7, -5.454e-7, 3.753e-7
0.400, -9.201e-7, -5.435e-7, 3.765e-7
0.399, -9.210e-7, -5.451e-7, 3.759e-7
0.398, -9.249e-7, -5.472e-7, 3.777e-7
0.397, -9.240e-7, -5.460e-7, 3.780e-7
0.396, -9.231e-7, -5.460e-7, 3.771e-7
0.395, -9.255e-7, -5.484e-7, 3.771e-7
0.394, -9.262e-7, -5.493e-7, 3.768e-7
0.393, -9.258e-7, -5.490e-7, 3.768e-7
0.392, -9.274e-7, -5.499e-7, 3.774e-7
0.391, -9.283e-7, -5.515e-7, 3.768e-7
0.390, -9.277e-7, -5.515e-7, 3.762e-7
0.389, -9.313e-7, -5.530e-7, 3.783e-7
0.388, -9.329e-7, -5.545e-7, 3.783e-7
0.387, -9.310e-7, -5.545e-7, 3.765e-7
0.386, -9.359e-7, -5.564e-7, 3.796e-7
0.385, -9.350e-7, -5.557e-7, 3.793e-7
0.384, -9.378e-7, -5.585e-7, 3.793e-7
0.383, -9.402e-7, -5.594e-7, 3.808e-7
0.382, -9.371e-7, -5.582e-7, 3.790e-7
0.381, -9.396e-7, -5.609e-7, 3.787e-7
0.380, -9.423e-7, -5.631e-7, 3.793e-7
0.379, -9.439e-7, -5.625e-7, 3.814e-7
0.378, -9.439e-7, -5.640e-7, 3.799e-7
0.377, -9.451e-7, -5.652e-7, 3.799e-7
0.376, -9.463e-7, -5.658e-7, 3.805e-7
0.375, -9.454e-7, -5.652e-7, 3.802e-7
0.374, -9.478e-7, -5.676e-7, 3.802e-7
0.373, -9.493e-7, -5.683e-7, 3.811e-7
0.372, -9.530e-7, -5.698e-7, 3.832e-7
0.371, -9.536e-7, -5.707e-7, 3.829e-7
0.370, -9.536e-7, -5.698e-7, 3.838e-7
0.369, -9.548e-7, -5.728e-7, 3.820e-7
0.368, -9.567e-7, -5.734e-7, 3.832e-7
0.367, -9.561e-7, -5.728e-7, 3.832e-7
0.366, -9.588e-7, -5.747e-7, 3.841e-7
0.365, -9.588e-7, -5.759e-7, 3.829e-7
0.364, -9.606e-7, -5.768e-7, 3.838e-7
0.363, -9.637e-7, -5.786e-7, 3.851e-7
0.362, -9.652e-7, -5.799e-7, 3.854e-7
0.361, -9.655e-7, -5.795e-7, 3.860e-7
0.360, -9.658e-7, -5.802e-7, 3.857e-7
0.359, -9.689e-7, -5.835e-7, 3.854e-7
0.358, -9.698e-7, -5.835e-7, 3.863e-7
0.357, -9.719e-7, -5.856e-7, 3.863e-7
0.356, -9.744e-7, -5.881e-7, 3.863e-7
0.355, -9.741e-7, -5.863e-7, 3.878e-7
0.354, -9.768e-7, -5.887e-7, 3.881e-7
0.353, -9.783e-7, -5.890e-7, 3.893e-7
0.352, -9.789e-7, -5.911e-7, 3.878e-7
0.351, -9.789e-7, -5.914e-7, 3.875e-7
0.350, -9.811e-7, -5.921e-7, 3.890e-7
0.349, -9.838e-7, -5.930e-7, 3.909e-7
0.348, -9.847e-7, -5.954e-7, 3.893e-7
0.347, -9.863e-7, -5.954e-7, 3.909e-7
0.346, -9.866e-7, -5.954e-7, 3.912e-7
0.345, -9.912e-7, -5.994e-7, 3.918e-7
0.344, -9.927e-7, -5.997e-7, 3.930e-7
0.343, -9.912e-7, -6.003e-7, 3.909e-7
0.342, -9.936e-7, -6.021e-7, 3.915e-7
0.341, -9.957e-7, -6.033e-7, 3.924e-7
0.340, -9.991e-7, -6.052e-7, 3.939e-7
0.339, -9.948e-7, -6.043e-7, 3.906e-7
0.338, -9.997e-7, -6.067e-7, 3.930e-7
0.337, -1.002e-6, -6.067e-7, 3.954e-7
0.336, -1.002e-6, -6.088e-7, 3.927e-7
0.335, -1.004e-6, -6.091e-7, 3.948e-7
0.334, -1.008e-6, -6.113e-7, 3.963e-7
0.333, -1.006e-6, -6.107e-7, 3.951e-7
0.332, -1.009e-6, -6.128e-7, 3.967e-7
0.331, -1.009e-6, -6.125e-7, 3.970e-7
0.330, -1.010e-6, -6.134e-7, 3.963e-7
0.329, -1.014e-6, -6.168e-7, 3.970e-7
0.328, -1.016e-6, -6.168e-7, 3.997e-7
0.327, -1.018e-6, -6.192e-7, 3.985e-7
0.326, -1.020e-6, -6.217e-7, 3.988e-7
0.325, -1.019e-6, -6.204e-7, 3.988e-7
0.324, -1.023e-6, -6.235e-7, 3.994e-7
0.323, -1.027e-6, -6.244e-7, 4.025e-7
0.322, -1.027e-6, -6.253e-7, 4.015e-7
0.321, -1.025e-6, -6.253e-7, 3.997e-7
0.320, -1.028e-6, -6.278e-7, 4.003e-7
0.319, -1.029e-6, -6.284e-7, 4.009e-7
0.318, -1.032e-6, -6.308e-7, 4.015e-7
0.317, -1.036e-6, -6.320e-7, 4.037e-7
0.316, -1.036e-6, -6.320e-7, 4.037e-7
0.315, -1.035e-6, -6.329e-7, 4.025e-7
0.314, -1.039e-6, -6.342e-7, 4.049e-7
0.313, -1.040e-6, -6.357e-7, 4.040e-7
0.312, -1.039e-6, -6.363e-7, 4.031e-7
0.311, -1.044e-6, -6.397e-7, 4.046e-7
0.310, -1.045e-6, -6.387e-7, 4.064e-7
0.309, -1.048e-6, -6.412e-7, 4.064e-7
0.308, -1.050e-6, -6.427e-7, 4.070e-7
0.307, -1.051e-6, -6.430e-7, 4.082e-7
0.306, -1.052e-6, -6.433e-7, 4.086e-7
0.305, -1.055e-6, -6.479e-7, 4.073e-7
0.304, -1.057e-6, -6.479e-7, 4.092e-7
0.303, -1.060e-6, -6.500e-7, 4.098e-7
0.302, -1.059e-6, -6.497e-7, 4.095e-7
0.301, -1.060e-6, -6.494e-7, 4.101e-7
0.300, -1.063e-6, -6.534e-7, 4.098e-7
0.299, -1.064e-6, -6.534e-7, 4.110e-7
0.298, -1.066e-6, -6.537e-7, 4.122e-7
0.297, -1.068e-6, -6.552e-7, 4.125e-7
0.296, -1.073e-6, -6.595e-7, 4.137e-7
0.295, -1.073e-6, -6.586e-7, 4.147e-7
0.294, -1.074e-6, -6.595e-7, 4.140e-7
0.293, -1.077e-6, -6.610e-7, 4.159e-7
0.292, -1.077e-6, -6.610e-7, 4.159e-7
0.291, -1.081e-6, -6.644e-7, 4.165e-7
0.290, -1.081e-6, -6.650e-7, 4.165e-7
0.289, -1.084e-6, -6.668e-7, 4.168e-7
0.288, -1.085e-6, -6.680e-7, 4.165e-7
0.287, -1.089e-6, -6.705e-7, 4.183e-7
0.286, -1.089e-6, -6.699e-7, 4.189e-7
0.285, -1.090e-6, -6.717e-7, 4.183e-7
0.284, -1.092e-6, -6.711e-7, 4.208e-7
0.283, -1.096e-6, -6.735e-7, 4.223e-7
0.282, -1.094e-6, -6.741e-7, 4.202e-7
0.281, -1.099e-6, -6.775e-7, 4.217e-7
0.280, -1.097e-6, -6.763e-7, 4.211e-7
0.279, -1.100e-6, -6.781e-7, 4.220e-7
0.278, -1.104e-6, -6.806e-7, 4.235e-7
0.277, -1.105e-6, -6.802e-7, 4.244e-7
0.276, -1.106e-6, -6.818e-7, 4.244e-7
0.275, -1.110e-6, -6.845e-7, 4.250e-7
0.274, -1.110e-6, -6.839e-7, 4.266e-7
0.273, -1.110e-6, -6.845e-7, 4.250e-7
0.272, -1.113e-6, -6.867e-7, 4.263e-7
0.271, -1.117e-6, -6.888e-7, 4.287e-7
0.270, -1.118e-6, -6.900e-7, 4.281e-7
0.269, -1.121e-6, -6.918e-7, 4.287e-7
0.268, -1.121e-6, -6.915e-7, 4.293e-7
0.267, -1.122e-6, -6.940e-7, 4.284e-7
0.266, -1.125e-6, -6.943e-7, 4.302e-7
0.265, -1.127e-6, -6.949e-7, 4.317e-7
0.264, -1.128e-6, -6.973e-7, 4.302e-7
0.263, -1.131e-6, -6.992e-7, 4.317e-7
0.262, -1.132e-6, -6.992e-7, 4.327e-7
0.261, -1.134e-6, -7.013e-7, 4.330e-7
0.260, -1.136e-6, -7.019e-7, 4.339e-7
0.259, -1.137e-6, -7.010e-7, 4.363e-7
0.258, -1.136e-6, -7.031e-7, 4.333e-7
0.257, -1.139e-6, -7.053e-7, 4.342e-7
0.256, -1.144e-6, -7.062e-7, 4.378e-7
0.255, -1.144e-6, -7.080e-7, 4.363e-7
0.254, -1.147e-6, -7.089e-7, 4.385e-7
0.253, -1.149e-6, -7.089e-7, 4.403e-7
0.252, -1.149e-6, -7.111e-7, 4.375e-7
0.251, -1.154e-6, -7.132e-7, 4.406e-7
0.250, -1.154e-6, -7.120e-7, 4.421e-7
0.249, -1.155e-6, -7.156e-7, 4.397e-7
0.248, -1.158e-6, -7.160e-7, 4.424e-7
0.247, -1.160e-6, -7.169e-7, 4.427e-7
0.246, -1.161e-6, -7.181e-7, 4.427e-7
0.245, -1.163e-6, -7.199e-7, 4.430e-7
0.244, -1.166e-6, -7.202e-7, 4.455e-7
0.243, -1.166e-6, -7.214e-7, 4.446e-7
0.242, -1.168e-6, -7.233e-7, 4.446e-7
0.241, -1.170e-6, -7.236e-7, 4.467e-7
0.240, -1.170e-6, -7.248e-7, 4.452e-7
0.239, -1.174e-6, -7.263e-7, 4.479e-7
0.238, -1.174e-6, -7.260e-7, 4.482e-7
0.237, -1.176e-6, -7.285e-7, 4.473e-7
0.236, -1.179e-6, -7.300e-7, 4.488e-7
0.235, -1.180e-6, -7.297e-7, 4.507e-7
0.234, -1.182e-6, -7.321e-7, 4.494e-7
0.233, -1.186e-6, -7.333e-7, 4.525e-7
0.232, -1.186e-6, -7.327e-7, 4.528e-7
0.231, -1.186e-6, -7.340e-7, 4.519e-7
0.230, -1.190e-6, -7.364e-7, 4.531e-7
0.229, -1.191e-6, -7.364e-7, 4.549e-7
0.228, -1.192e-6, -7.376e-7, 4.546e-7
0.227, -1.195e-6, -7.391e-7, 4.562e-7
0.226, -1.197e-6, -7.391e-7, 4.577e-7
0.225, -1.198e-6, -7.410e-7, 4.568e-7
0.224, -1.199e-6, -7.416e-7, 4.577e-7
0.223, -1.201e-6, -7.422e-7, 4.586e-7
0.222, -1.202e-6, -7.440e-7, 4.577e-7
0.221, -1.206e-6, -7.456e-7, 4.604e-7
0.220, -1.208e-6, -7.456e-7, 4.620e-7
0.219, -1.211e-6, -7.480e-7, 4.626e-7
0.218, -1.209e-6, -7.468e-7, 4.623e-7
0.217, -1.211e-6, -7.486e-7, 4.623e-7
0.216, -1.212e-6, -7.504e-7, 4.620e-7
0.215, -1.214e-6, -7.495e-7, 4.647e-7
0.214, -1.216e-6, -7.507e-7, 4.653e-7
0.213, -1.219e-6, -7.532e-7, 4.656e-7
0.212, -1.220e-6, -7.538e-7, 4.665e-7
0.211, -1.220e-6, -7.529e-7, 4.671e-7
0.210, -1.220e-6, -7.550e-7, 4.653e-7
0.209, -1.222e-6, -7.550e-7, 4.674e-7
0.208, -1.225e-6, -7.550e-7, 4.696e-7
0.207, -1.226e-6, -7.575e-7, 4.690e-7
0.206, -1.228e-6, -7.575e-7, 4.708e-7
0.205, -1.228e-6, -7.568e-7, 4.711e-7
0.204, -1.231e-6, -7.593e-7, 4.720e-7
0.203, -1.232e-6, -7.599e-7, 4.720e-7
0.202, -1.233e-6, -7.605e-7, 4.720e-7
0.201, -1.235e-6, -7.611e-7, 4.739e-7
0.200, -1.236e-6, -7.617e-7, 4.745e-7
0.199, -1.237e-6, -7.626e-7, 4.748e-7
0.198, -1.237e-6, -7.629e-7, 4.739e-7
0.197, -1.241e-6, -7.648e-7, 4.763e-7
0.196, -1.241e-6, -7.639e-7, 4.772e-7
0.195, -1.242e-6, -7.654e-7, 4.763e-7
0.194, -1.244e-6, -7.654e-7, 4.790e-7
0.193, -1.245e-6, -7.663e-7, 4.790e-7
0.192, -1.246e-6, -7.675e-7, 4.781e-7
0.191, -1.248e-6, -7.691e-7, 4.790e-7
0.190, -1.250e-6, -7.681e-7, 4.818e-7
0.189, -1.248e-6, -7.687e-7, 4.797e-7
0.188, -1.250e-6, -7.694e-7, 4.809e-7
0.187, -1.253e-6, -7.697e-7, 4.836e-7
0.186, -1.253e-6, -7.709e-7, 4.818e-7
0.185, -1.257e-6, -7.715e-7, 4.855e-7
0.184, -1.255e-6, -7.721e-7, 4.833e-7
0.183, -1.258e-6, -7.724e-7, 4.851e-7
0.182, -1.260e-6, -7.733e-7, 4.867e-7
0.181, -1.261e-6, -7.730e-7, 4.876e-7
0.180, -1.261e-6, -7.742e-7, 4.867e-7
0.179, -1.263e-6, -7.745e-7, 4.882e-7
0.178, -1.265e-6, -7.752e-7, 4.900e-7
0.177, -1.263e-6, -7.752e-7, 4.882e-7
0.176, -1.265e-6, -7.755e-7, 4.897e-7
0.175, -1.265e-6, -7.755e-7, 4.894e-7
0.174, -1.265e-6, -7.773e-7, 4.882e-7
0.173, -1.269e-6, -7.767e-7, 4.925e-7
0.172, -1.270e-6, -7.776e-7, 4.925e-7
0.171, -1.269e-6, -7.773e-7, 4.913e-7
0.170, -1.274e-6, -7.794e-7, 4.943e-7
0.169, -1.273e-6, -7.785e-7, 4.946e-7
0.168, -1.274e-6, -7.806e-7, 4.931e-7
0.167, -1.275e-6, -7.797e-7, 4.949e-7
0.166, -1.275e-6, -7.782e-7, 4.964e-7
0.165, -1.275e-6, -7.791e-7, 4.961e-7
0.164, -1.275e-6, -7.791e-7, 4.958e-7
0.163, -1.278e-6, -7.800e-7, 4.980e-7
0.162, -1.278e-6, -7.803e-7, 4.980e-7
0.161, -1.280e-6, -7.813e-7, 4.986e-7
0.160, -1.280e-6, -7.800e-7, 4.995e-7
0.159, -1.281e-6, -7.825e-7, 4.983e-7
0.158, -1.282e-6, -7.803e-7, 5.019e-7
0.157, -1.281e-6, -7.803e-7, 5.010e-7
0.156, -1.280e-6, -7.816e-7, 4.986e-7
0.155, -1.282e-6, -7.813e-7, 5.010e-7
0.154, -1.282e-6, -7.800e-7, 5.022e-7
0.153, -1.284e-6, -7.822e-7, 5.016e-7
0.152, -1.283e-6, -7.810e-7, 5.025e-7
0.151, -1.287e-6, -7.825e-7, 5.044e-7
0.150, -1.286e-6, -7.816e-7, 5.041e-7
0.149, -1.287e-6, -7.816e-7, 5.056e-7
0.148, -1.287e-6, -7.813e-7, 5.062e-7
0.147, -1.287e-6, -7.840e-7, 5.035e-7
0.146, -1.289e-6, -7.828e-7, 5.059e-7
0.145, -1.288e-6, -7.803e-7, 5.080e-7
0.144, -1.288e-6, -7.819e-7, 5.062e-7
0.143, -1.289e-6, -7.828e-7, 5.065e-7
0.142, -1.290e-6, -7.816e-7, 5.080e-7
0.141, -1.291e-6, -7.822e-7, 5.083e-7
0.140, -1.292e-6, -7.828e-7, 5.096e-7
0.139, -1.290e-6, -7.794e-7, 5.108e-7
0.138, -1.291e-6, -7.822e-7, 5.093e-7
0.137, -1.291e-6, -7.813e-7, 5.096e-7
0.136, -1.292e-6, -7.806e-7, 5.114e-7
0.135, -1.291e-6, -7.803e-7, 5.105e-7
0.134, -1.293e-6, -7.816e-7, 5.117e-7
0.133, -1.291e-6, -7.797e-7, 5.117e-7
0.132, -1.292e-6, -7.797e-7, 5.126e-7
0.131, -1.292e-6, -7.800e-7, 5.123e-7
0.130, -1.292e-6, -7.791e-7, 5.132e-7
0.129, -1.293e-6, -7.806e-7, 5.120e-7
0.128, -1.293e-6, -7.791e-7, 5.135e-7
0.127, -1.293e-6, -7.779e-7, 5.151e-7
0.126, -1.293e-6, -7.794e-7, 5.132e-7
0.125, -1.294e-6, -7.788e-7, 5.147e-7
0.124, -1.294e-6, -7.770e-7, 5.169e-7
0.123, -1.293e-6, -7.782e-7, 5.151e-7
0.122, -1.293e-6, -7.773e-7, 5.157e-7
0.121, -1.292e-6, -7.761e-7, 5.157e-7
0.120, -1.292e-6, -7.767e-7, 5.157e-7
0.119, -1.293e-6, -7.764e-7, 5.166e-7
0.118, -1.292e-6, -7.742e-7, 5.181e-7
0.117, -1.292e-6, -7.752e-7, 5.169e-7
0.116, -1.294e-6, -7.758e-7, 5.178e-7
0.115, -1.292e-6, -7.745e-7, 5.178e-7
0.114, -1.293e-6, -7.748e-7, 5.178e-7
0.113, -1.291e-6, -7.736e-7, 5.169e-7
0.112, -1.290e-6, -7.724e-7, 5.178e-7
0.111, -1.291e-6, -7.733e-7, 5.175e-7
0.110, -1.290e-6, -7.715e-7, 5.181e-7
0.109, -1.289e-6, -7.709e-7, 5.184e-7
0.108, -1.291e-6, -7.709e-7, 5.199e-7
0.107, -1.292e-6, -7.721e-7, 5.202e-7
0.106, -1.288e-6, -7.694e-7, 5.190e-7
0.105, -1.286e-6, -7.684e-7, 5.175e-7
0.104, -1.290e-6, -7.697e-7, 5.199e-7
0.103, -1.288e-6, -7.681e-7, 5.196e-7
0.102, -1.287e-6, -7.669e-7, 5.202e-7
0.101, -1.289e-6, -7.675e-7, 5.218e-7
0.100, -1.287e-6, -7.666e-7, 5.205e-7
0.099, -1.287e-6, -7.663e-7, 5.202e-7
0.098, -1.285e-6, -7.654e-7, 5.193e-7
0.097, -1.286e-6, -7.645e-7, 5.212e-7
0.096, -1.286e-6, -7.654e-7, 5.209e-7
0.095, -1.283e-6, -7.620e-7, 5.212e-7
0.094, -1.284e-6, -7.629e-7, 5.212e-7
0.093, -1.282e-6, -7.626e-7, 5.196e-7
0.092, -1.283e-6, -7.614e-7, 5.221e-7
0.091, -1.282e-6, -7.611e-7, 5.205e-7
0.090, -1.279e-6, -7.593e-7, 5.193e-7
0.089, -1.280e-6, -7.596e-7, 5.205e-7
0.088, -1.280e-6, -7.572e-7, 5.224e-7
0.087, -1.277e-6, -7.575e-7, 5.196e-7
0.086, -1.281e-6, -7.587e-7, 5.221e-7
0.085, -1.276e-6, -7.550e-7, 5.215e-7
0.084, -1.278e-6, -7.572e-7, 5.209e-7
0.083, -1.276e-6, -7.544e-7, 5.215e-7
0.082, -1.276e-6, -7.535e-7, 5.224e-7
0.081, -1.272e-6, -7.535e-7, 5.184e-7
0.080, -1.275e-6, -7.529e-7, 5.221e-7
0.079, -1.272e-6, -7.523e-7, 5.196e-7
0.078, -1.270e-6, -7.492e-7, 5.212e-7
0.077, -1.270e-6, -7.486e-7, 5.215e-7
0.076, -1.271e-6, -7.498e-7, 5.212e-7
0.075, -1.268e-6, -7.486e-7, 5.190e-7
0.074, -1.270e-6, -7.489e-7, 5.209e-7
0.073, -1.267e-6, -7.462e-7, 5.212e-7
0.072, -1.266e-6, -7.480e-7, 5.178e-7
0.071, -1.264e-6, -7.446e-7, 5.196e-7
0.070, -1.263e-6, -7.431e-7, 5.196e-7
0.069, -1.262e-6, -7.428e-7, 5.196e-7
0.068, -1.262e-6, -7.425e-7, 5.196e-7
0.067, -1.262e-6, -7.428e-7, 5.187e-7
0.066, -1.260e-6, -7.407e-7, 5.190e-7
0.065, -1.258e-6, -7.395e-7, 5.190e-7
0.064, -1.259e-6, -7.395e-7, 5.193e-7
0.063, -1.256e-6, -7.379e-7, 5.181e-7
0.062, -1.255e-6, -7.373e-7, 5.178e-7
0.061, -1.254e-6, -7.370e-7, 5.169e-7
0.060, -1.252e-6, -7.352e-7, 5.169e-7
0.059, -1.253e-6, -7.352e-7, 5.175e-7
0.058, -1.252e-6, -7.340e-7, 5.178e-7
0.057, -1.250e-6, -7.330e-7, 5.169e-7
0.056, -1.248e-6, -7.324e-7, 5.160e-7
0.055, -1.246e-6, -7.306e-7, 5.157e-7
0.054, -1.246e-6, -7.309e-7, 5.154e-7
0.053, -1.244e-6, -7.294e-7, 5.147e-7
0.052, -1.242e-6, -7.282e-7, 5.141e-7
0.051, -1.242e-6, -7.269e-7, 5.151e-7
0.050, -1.240e-6, -7.266e-7, 5.132e-7
0.049, -1.239e-6, -7.248e-7, 5.144e-7
0.048, -1.237e-6, -7.245e-7, 5.123e-7
0.047, -1.237e-6, -7.239e-7, 5.132e-7
0.046, -1.236e-6, -7.227e-7, 5.132e-7
0.045, -1.233e-6, -7.221e-7, 5.114e-7
0.044, -1.234e-6, -7.214e-7, 5.126e-7
0.043, -1.233e-6, -7.208e-7, 5.123e-7
0.042, -1.230e-6, -7.187e-7, 5.114e-7
0.041, -1.228e-6, -7.178e-7, 5.102e-7
0.040, -1.229e-6, -7.181e-7, 5.108e-7
0.039, -1.225e-6, -7.156e-7, 5.089e-7
0.038, -1.226e-6, -7.160e-7, 5.099e-7
0.037, -1.222e-6, -7.132e-7, 5.083e-7
0.036, -1.222e-6, -7.135e-7, 5.083e-7
0.035, -1.223e-6, -7.135e-7, 5.093e-7
0.034, -1.219e-6, -7.120e-7, 5.071e-7
0.033, -1.218e-6, -7.114e-7, 5.068e-7
0.032, -1.219e-6, -7.114e-7, 5.074e-7
0.031, -1.215e-6, -7.089e-7, 5.062e-7
0.030, -1.214e-6, -7.080e-7, 5.056e-7
0.029, -1.213e-6, -7.071e-7, 5.059e-7
0.028, -1.211e-6, -7.059e-7, 5.053e-7
0.027, -1.210e-6, -7.065e-7, 5.038e-7
0.026, -1.211e-6, -7.050e-7, 5.056e-7
0.025, -1.208e-6, -7.041e-7, 5.038e-7
0.024, -1.208e-6, -7.037e-7, 5.047e-7
0.023, -1.205e-6, -7.025e-7, 5.025e-7
0.022, -1.203e-6, -7.004e-7, 5.025e-7
0.021, -1.203e-6, -7.028e-7, 5.004e-7
0.020, -1.200e-6, -6.998e-7, 5.007e-7
0.019, -1.200e-6, -6.986e-7, 5.016e-7
0.018, -1.198e-6, -6.986e-7, 4.998e-7
0.017, -1.199e-6, -6.992e-7, 5.001e-7
0.016, -1.195e-6, -6.958e-7, 4.992e-7
0.015, -1.195e-6, -6.970e-7, 4.980e-7
0.014, -1.193e-6, -6.946e-7, 4.989e-7
0.013, -1.192e-6, -6.937e-7, 4.986e-7
0.012, -1.191e-6, -6.940e-7, 4.967e-7
0.011, -1.190e-6, -6.931e-7, 4.967e-7
0.010, -1.187e-6, -6.909e-7, 4.958e-7
0.009, -1.185e-6, -6.903e-7, 4.949e-7
0.008, -1.184e-6, -6.903e-7, 4.940e-7
0.007, -1.184e-6, -6.894e-7, 4.949e-7
0.006, -1.184e-6, -6.894e-7, 4.943e-7
0.005, -1.183e-6, -6.894e-7, 4.937e-7
0.004, -1.179e-6, -6.864e-7, 4.928e-7
0.003, -1.179e-6, -6.864e-7, 4.925e-7
0.002, -1.179e-6, -6.857e-7, 4.928e-7
0.001, -1.180e-6, -6.870e-7, 4.928e-7
-0.000, -1.176e-6, -6.860e-7, 4.903e-7
-0.001, -1.175e-6, -6.836e-7, 4.909e-7
-0.002, -1.173e-6, -6.830e-7, 4.900e-7
-0.003, -1.169e-6, -6.821e-7, 4.873e-7
-0.004, -1.171e-6, -6.830e-7, 4.876e-7
-0.005, -1.167e-6, -6.803e-7, 4.867e-7
-0.006, -1.169e-6, -6.815e-7, 4.876e-7
-0.007, -1.168e-6, -6.793e-7, 4.882e-7
-0.008, -1.165e-6, -6.787e-7, 4.867e-7
-0.009, -1.164e-6, -6.787e-7, 4.851e-7
-0.010, -1.164e-6, -6.784e-7, 4.855e-7
-0.011, -1.163e-6, -6.781e-7, 4.848e-7
-0.012, -1.161e-6, -6.769e-7, 4.845e-7
-0.013, -1.160e-6, -6.763e-7, 4.836e-7
-0.014, -1.160e-6, -6.754e-7, 4.842e-7
-0.015, -1.157e-6, -6.754e-7, 4.815e-7
-0.016, -1.157e-6, -6.738e-7, 4.833e-7
-0.017, -1.155e-6, -6.729e-7, 4.824e-7
-0.018, -1.155e-6, -6.738e-7, 4.809e-7
-0.019, -1.154e-6, -6.735e-7, 4.809e-7
-0.020, -1.153e-6, -6.723e-7, 4.809e-7
-0.021, -1.149e-6, -6.702e-7, 4.790e-7
-0.022, -1.151e-6, -6.720e-7, 4.790e-7
-0.023, -1.151e-6, -6.708e-7, 4.800e-7
-0.024, -1.145e-6, -6.693e-7, 4.757e-7
-0.025, -1.147e-6, -6.693e-7, 4.781e-7
-0.026, -1.146e-6, -6.687e-7, 4.775e-7
-0.027, -1.146e-6, -6.690e-7, 4.772e-7
-0.028, -1.145e-6, -6.687e-7, 4.763e-7
-0.029, -1.145e-6, -6.680e-7, 4.766e-7
-0.030, -1.143e-6, -6.680e-7, 4.751e-7
-0.031, -1.142e-6, -6.668e-7, 4.754e-7
-0.032, -1.141e-6, -6.662e-7, 4.751e-7
-0.033, -1.139e-6, -6.653e-7, 4.736e-7
-0.034, -1.139e-6, -6.656e-7, 4.739e-7
-0.035, -1.138e-6, -6.644e-7, 4.739e-7
-0.036, -1.138e-6, -6.653e-7, 4.723e-7
-0.037, -1.136e-6, -6.638e-7, 4.720e-7
-0.038, -1.134e-6, -6.629e-7, 4.711e-7
-0.039, -1.137e-6, -6.656e-7, 4.714e-7
-0.040, -1.135e-6, -6.638e-7, 4.708e-7
-0.041, -1.134e-6, -6.635e-7, 4.705e-7
-0.042, -1.133e-6, -6.635e-7, 4.696e-7
-0.043, -1.131e-6, -6.616e-7, 4.693e-7
-0.044, -1.131e-6, -6.622e-7, 4.687e-7
-0.045, -1.128e-6, -6.610e-7, 4.665e-7
-0.046, -1.131e-6, -6.626e-7, 4.687e-7
-0.047, -1.126e-6, -6.592e-7, 4.671e-7
-0.048, -1.127e-6, -6.616e-7, 4.656e-7
-0.049, -1.130e-6, -6.626e-7, 4.674e-7
-0.050, -1.127e-6, -6.589e-7, 4.684e-7
