Mar. 20, 2018   14:15:53
Square Wave Voltammetry
File: c:\users\electrochemist\desktop\2018\20032018_unbufarray_unpap\24_g4_ph6,29_1.txt
Data Source:  Experiment
Instrument Model:  CHI1040A
Header: 
Note: 

Init E (V) = 0.7
Final E (V) = -0.4
Incr E (V) = 0.001
Amplitude (V) = 0.1
Frequency (Hz) = 152
Quiet Time (sec) = 2
Sensitivity (A/V) = 1e-6

Difference:

Forward:

Reverse:
Ep = -0.116V
ip = 3.054e-10A
Ah = 7.673e-10VA

Potential/V, Diff(i/A), For(i/A), Rev(i/A)

0.699, -7.464e-7, -1.990e-7, 5.474e-7
0.698, -9.365e-7, -4.318e-7, 5.047e-7
0.697, -9.374e-7, -4.441e-7, 4.934e-7
0.696, -9.356e-7, -4.465e-7, 4.891e-7
0.695, -9.362e-7, -4.492e-7, 4.870e-7
0.694, -9.320e-7, -4.486e-7, 4.833e-7
0.693, -9.292e-7, -4.492e-7, 4.800e-7
0.692, -9.274e-7, -4.486e-7, 4.787e-7
0.691, -9.271e-7, -4.480e-7, 4.791e-7
0.690, -9.249e-7, -4.495e-7, 4.754e-7
0.689, -9.234e-7, -4.502e-7, 4.733e-7
0.688, -9.204e-7, -4.489e-7, 4.714e-7
0.687, -9.213e-7, -4.511e-7, 4.702e-7
0.686, -9.207e-7, -4.489e-7, 4.717e-7
0.685, -9.158e-7, -4.474e-7, 4.684e-7
0.684, -9.179e-7, -4.499e-7, 4.681e-7
0.683, -9.167e-7, -4.486e-7, 4.681e-7
0.682, -9.161e-7, -4.505e-7, 4.656e-7
0.681, -9.136e-7, -4.499e-7, 4.638e-7
0.680, -9.106e-7, -4.468e-7, 4.638e-7
0.679, -9.115e-7, -4.508e-7, 4.607e-7
0.678, -9.115e-7, -4.489e-7, 4.626e-7
0.677, -9.097e-7, -4.486e-7, 4.610e-7
0.676, -9.072e-7, -4.486e-7, 4.586e-7
0.675, -9.100e-7, -4.489e-7, 4.610e-7
0.674, -9.054e-7, -4.465e-7, 4.589e-7
0.673, -9.075e-7, -4.514e-7, 4.562e-7
0.672, -9.063e-7, -4.483e-7, 4.580e-7
0.671, -9.014e-7, -4.465e-7, 4.549e-7
0.670, -9.036e-7, -4.499e-7, 4.537e-7
0.669, -9.042e-7, -4.489e-7, 4.552e-7
0.668, -9.008e-7, -4.480e-7, 4.528e-7
0.667, -9.017e-7, -4.505e-7, 4.513e-7
0.666, -9.017e-7, -4.492e-7, 4.525e-7
0.665, -8.987e-7, -4.483e-7, 4.504e-7
0.664, -8.987e-7, -4.486e-7, 4.501e-7
0.663, -8.996e-7, -4.486e-7, 4.510e-7
0.662, -8.978e-7, -4.471e-7, 4.507e-7
0.661, -8.987e-7, -4.495e-7, 4.491e-7
0.660, -8.966e-7, -4.486e-7, 4.479e-7
0.659, -8.978e-7, -4.508e-7, 4.470e-7
0.658, -8.975e-7, -4.495e-7, 4.479e-7
0.657, -8.950e-7, -4.492e-7, 4.458e-7
0.656, -8.972e-7, -4.505e-7, 4.467e-7
0.655, -8.981e-7, -4.502e-7, 4.479e-7
0.654, -8.959e-7, -4.495e-7, 4.464e-7
0.653, -8.929e-7, -4.492e-7, 4.437e-7
0.652, -8.962e-7, -4.508e-7, 4.455e-7
0.651, -8.932e-7, -4.492e-7, 4.440e-7
0.650, -8.972e-7, -4.520e-7, 4.452e-7
0.649, -8.941e-7, -4.492e-7, 4.449e-7
0.648, -8.929e-7, -4.505e-7, 4.424e-7
0.647, -8.929e-7, -4.505e-7, 4.424e-7
0.646, -8.932e-7, -4.502e-7, 4.430e-7
0.645, -8.914e-7, -4.502e-7, 4.412e-7
0.644, -8.914e-7, -4.495e-7, 4.418e-7
0.643, -8.905e-7, -4.486e-7, 4.418e-7
0.642, -8.923e-7, -4.517e-7, 4.406e-7
0.641, -8.944e-7, -4.514e-7, 4.430e-7
0.640, -8.889e-7, -4.486e-7, 4.403e-7
0.639, -8.914e-7, -4.526e-7, 4.388e-7
0.638, -8.908e-7, -4.499e-7, 4.409e-7
0.637, -8.895e-7, -4.505e-7, 4.391e-7
0.636, -8.901e-7, -4.517e-7, 4.385e-7
0.635, -8.895e-7, -4.492e-7, 4.403e-7
0.634, -8.862e-7, -4.505e-7, 4.357e-7
0.633, -8.880e-7, -4.514e-7, 4.366e-7
0.632, -8.880e-7, -4.505e-7, 4.375e-7
0.631, -8.856e-7, -4.511e-7, 4.345e-7
0.630, -8.886e-7, -4.526e-7, 4.360e-7
0.629, -8.865e-7, -4.486e-7, 4.379e-7
0.628, -8.850e-7, -4.514e-7, 4.336e-7
0.627, -8.868e-7, -4.508e-7, 4.360e-7
0.626, -8.874e-7, -4.505e-7, 4.369e-7
0.625, -8.871e-7, -4.526e-7, 4.345e-7
0.624, -8.865e-7, -4.514e-7, 4.351e-7
0.623, -8.859e-7, -4.508e-7, 4.351e-7
0.622, -8.862e-7, -4.526e-7, 4.336e-7
0.621, -8.856e-7, -4.517e-7, 4.339e-7
0.620, -8.840e-7, -4.495e-7, 4.345e-7
0.619, -8.831e-7, -4.511e-7, 4.321e-7
0.618, -8.840e-7, -4.502e-7, 4.339e-7
0.617, -8.813e-7, -4.495e-7, 4.318e-7
0.616, -8.837e-7, -4.526e-7, 4.311e-7
0.615, -8.825e-7, -4.505e-7, 4.321e-7
0.614, -8.801e-7, -4.499e-7, 4.302e-7
0.613, -8.825e-7, -4.511e-7, 4.314e-7
0.612, -8.825e-7, -4.511e-7, 4.314e-7
0.611, -8.825e-7, -4.532e-7, 4.293e-7
0.610, -8.801e-7, -4.505e-7, 4.296e-7
0.609, -8.807e-7, -4.495e-7, 4.311e-7
0.608, -8.801e-7, -4.520e-7, 4.281e-7
0.607, -8.810e-7, -4.508e-7, 4.302e-7
0.606, -8.792e-7, -4.508e-7, 4.284e-7
0.605, -8.795e-7, -4.508e-7, 4.287e-7
0.604, -8.813e-7, -4.532e-7, 4.281e-7
0.603, -8.807e-7, -4.511e-7, 4.296e-7
0.602, -8.792e-7, -4.517e-7, 4.275e-7
0.601, -8.795e-7, -4.520e-7, 4.275e-7
0.600, -8.813e-7, -4.529e-7, 4.284e-7
0.599, -8.810e-7, -4.520e-7, 4.290e-7
0.598, -8.798e-7, -4.514e-7, 4.284e-7
0.597, -8.776e-7, -4.502e-7, 4.275e-7
0.596, -8.792e-7, -4.517e-7, 4.275e-7
0.595, -8.810e-7, -4.523e-7, 4.287e-7
0.594, -8.792e-7, -4.523e-7, 4.269e-7
0.593, -8.807e-7, -4.532e-7, 4.275e-7
0.592, -8.764e-7, -4.505e-7, 4.260e-7
0.591, -8.798e-7, -4.538e-7, 4.260e-7
0.590, -8.804e-7, -4.526e-7, 4.278e-7
0.589, -8.792e-7, -4.520e-7, 4.272e-7
0.588, -8.779e-7, -4.532e-7, 4.247e-7
0.587, -8.819e-7, -4.538e-7, 4.281e-7
0.586, -8.770e-7, -4.520e-7, 4.250e-7
0.585, -8.813e-7, -4.557e-7, 4.256e-7
0.584, -8.828e-7, -4.544e-7, 4.284e-7
0.583, -8.789e-7, -4.526e-7, 4.263e-7
0.582, -8.804e-7, -4.557e-7, 4.247e-7
0.581, -8.822e-7, -4.550e-7, 4.272e-7
0.580, -8.807e-7, -4.547e-7, 4.260e-7
0.579, -8.792e-7, -4.544e-7, 4.247e-7
0.578, -8.825e-7, -4.553e-7, 4.272e-7
0.577, -8.807e-7, -4.538e-7, 4.269e-7
0.576, -8.801e-7, -4.550e-7, 4.250e-7
0.575, -8.798e-7, -4.550e-7, 4.247e-7
0.574, -8.810e-7, -4.553e-7, 4.256e-7
0.573, -8.828e-7, -4.569e-7, 4.260e-7
0.572, -8.804e-7, -4.550e-7, 4.253e-7
0.571, -8.837e-7, -4.575e-7, 4.263e-7
0.570, -8.847e-7, -4.581e-7, 4.266e-7
0.569, -8.816e-7, -4.566e-7, 4.250e-7
0.568, -8.831e-7, -4.584e-7, 4.247e-7
0.567, -8.831e-7, -4.587e-7, 4.244e-7
0.566, -8.837e-7, -4.578e-7, 4.260e-7
0.565, -8.862e-7, -4.602e-7, 4.260e-7
0.564, -8.828e-7, -4.563e-7, 4.266e-7
0.563, -8.831e-7, -4.587e-7, 4.244e-7
0.562, -8.859e-7, -4.602e-7, 4.256e-7
0.561, -8.843e-7, -4.587e-7, 4.256e-7
0.560, -8.837e-7, -4.587e-7, 4.250e-7
0.559, -8.883e-7, -4.611e-7, 4.272e-7
0.558, -8.840e-7, -4.581e-7, 4.260e-7
0.557, -8.831e-7, -4.599e-7, 4.232e-7
0.556, -8.865e-7, -4.602e-7, 4.263e-7
0.555, -8.819e-7, -4.572e-7, 4.247e-7
0.554, -8.859e-7, -4.614e-7, 4.244e-7
0.553, -8.865e-7, -4.605e-7, 4.260e-7
0.552, -8.840e-7, -4.605e-7, 4.235e-7
0.551, -8.871e-7, -4.633e-7, 4.238e-7
0.550, -8.865e-7, -4.593e-7, 4.272e-7
0.549, -8.840e-7, -4.608e-7, 4.232e-7
0.548, -8.886e-7, -4.627e-7, 4.260e-7
0.547, -8.868e-7, -4.602e-7, 4.266e-7
0.546, -8.825e-7, -4.608e-7, 4.217e-7
0.545, -8.868e-7, -4.636e-7, 4.232e-7
0.544, -8.859e-7, -4.614e-7, 4.244e-7
0.543, -8.840e-7, -4.621e-7, 4.220e-7
0.542, -8.859e-7, -4.627e-7, 4.232e-7
0.541, -8.883e-7, -4.618e-7, 4.266e-7
0.540, -8.868e-7, -4.624e-7, 4.244e-7
0.539, -8.880e-7, -4.636e-7, 4.244e-7
0.538, -8.874e-7, -4.621e-7, 4.253e-7
0.537, -8.837e-7, -4.618e-7, 4.220e-7
0.536, -8.901e-7, -4.657e-7, 4.244e-7
0.535, -8.868e-7, -4.608e-7, 4.260e-7
0.534, -8.853e-7, -4.630e-7, 4.223e-7
0.533, -8.868e-7, -4.636e-7, 4.232e-7
0.532, -8.874e-7, -4.636e-7, 4.238e-7
0.531, -8.886e-7, -4.645e-7, 4.241e-7
0.530, -8.874e-7, -4.633e-7, 4.241e-7
0.529, -8.859e-7, -4.645e-7, 4.214e-7
0.528, -8.856e-7, -4.633e-7, 4.223e-7
0.527, -8.862e-7, -4.636e-7, 4.226e-7
0.526, -8.880e-7, -4.657e-7, 4.223e-7
0.525, -8.892e-7, -4.654e-7, 4.238e-7
0.524, -8.883e-7, -4.651e-7, 4.232e-7
0.523, -8.874e-7, -4.651e-7, 4.223e-7
0.522, -8.880e-7, -4.654e-7, 4.226e-7
0.521, -8.868e-7, -4.648e-7, 4.220e-7
0.520, -8.905e-7, -4.679e-7, 4.226e-7
0.519, -8.895e-7, -4.669e-7, 4.226e-7
0.518, -8.880e-7, -4.663e-7, 4.217e-7
0.517, -8.871e-7, -4.657e-7, 4.214e-7
0.516, -8.901e-7, -4.651e-7, 4.250e-7
0.515, -8.889e-7, -4.669e-7, 4.220e-7
0.514, -8.908e-7, -4.682e-7, 4.226e-7
0.513, -8.911e-7, -4.669e-7, 4.241e-7
0.512, -8.920e-7, -4.691e-7, 4.229e-7
0.511, -8.917e-7, -4.688e-7, 4.229e-7
0.510, -8.926e-7, -4.685e-7, 4.241e-7
0.509, -8.908e-7, -4.682e-7, 4.226e-7
0.508, -8.911e-7, -4.676e-7, 4.235e-7
0.507, -8.914e-7, -4.682e-7, 4.232e-7
0.506, -8.923e-7, -4.709e-7, 4.214e-7
0.505, -8.929e-7, -4.691e-7, 4.238e-7
0.504, -8.898e-7, -4.682e-7, 4.217e-7
0.503, -8.929e-7, -4.712e-7, 4.217e-7
0.502, -8.926e-7, -4.703e-7, 4.223e-7
0.501, -8.920e-7, -4.691e-7, 4.229e-7
0.500, -8.959e-7, -4.730e-7, 4.229e-7
0.499, -8.959e-7, -4.715e-7, 4.244e-7
0.498, -8.914e-7, -4.694e-7, 4.220e-7
0.497, -8.944e-7, -4.718e-7, 4.226e-7
0.496, -8.941e-7, -4.703e-7, 4.238e-7
0.495, -8.956e-7, -4.730e-7, 4.226e-7
0.494, -8.953e-7, -4.737e-7, 4.217e-7
0.493, -8.969e-7, -4.724e-7, 4.244e-7
0.492, -8.959e-7, -4.721e-7, 4.238e-7
0.491, -8.987e-7, -4.749e-7, 4.238e-7
0.490, -9.008e-7, -4.743e-7, 4.266e-7
0.489, -8.999e-7, -4.749e-7, 4.250e-7
0.488, -9.014e-7, -4.764e-7, 4.250e-7
0.487, -8.990e-7, -4.749e-7, 4.241e-7
0.486, -9.002e-7, -4.764e-7, 4.238e-7
0.485, -9.014e-7, -4.758e-7, 4.256e-7
0.484, -9.011e-7, -4.767e-7, 4.244e-7
0.483, -9.033e-7, -4.776e-7, 4.256e-7
0.482, -9.027e-7, -4.767e-7, 4.260e-7
0.481, -9.027e-7, -4.776e-7, 4.250e-7
0.480, -9.042e-7, -4.791e-7, 4.250e-7
0.479, -9.020e-7, -4.782e-7, 4.238e-7
0.478, -9.039e-7, -4.779e-7, 4.260e-7
0.477, -9.054e-7, -4.798e-7, 4.256e-7
0.476, -9.042e-7, -4.788e-7, 4.253e-7
0.475, -9.066e-7, -4.807e-7, 4.260e-7
0.474, -9.072e-7, -4.819e-7, 4.253e-7
0.473, -9.051e-7, -4.798e-7, 4.253e-7
0.472, -9.063e-7, -4.813e-7, 4.250e-7
0.471, -9.100e-7, -4.819e-7, 4.281e-7
0.470, -9.060e-7, -4.804e-7, 4.256e-7
0.469, -9.078e-7, -4.828e-7, 4.250e-7
0.468, -9.082e-7, -4.819e-7, 4.263e-7
0.467, -9.072e-7, -4.810e-7, 4.263e-7
0.466, -9.088e-7, -4.837e-7, 4.250e-7
0.465, -9.085e-7, -4.816e-7, 4.269e-7
0.464, -9.091e-7, -4.831e-7, 4.260e-7
0.463, -9.127e-7, -4.859e-7, 4.269e-7
0.462, -9.100e-7, -4.825e-7, 4.275e-7
0.461, -9.103e-7, -4.846e-7, 4.256e-7
0.460, -9.118e-7, -4.862e-7, 4.256e-7
0.459, -9.112e-7, -4.846e-7, 4.266e-7
0.458, -9.106e-7, -4.853e-7, 4.253e-7
0.457, -9.118e-7, -4.865e-7, 4.253e-7
0.456, -9.118e-7, -4.846e-7, 4.272e-7
0.455, -9.115e-7, -4.865e-7, 4.250e-7
0.454, -9.146e-7, -4.886e-7, 4.260e-7
0.453, -9.155e-7, -4.874e-7, 4.281e-7
0.452, -9.121e-7, -4.871e-7, 4.250e-7
0.451, -9.158e-7, -4.886e-7, 4.272e-7
0.450, -9.164e-7, -4.877e-7, 4.287e-7
0.449, -9.146e-7, -4.895e-7, 4.250e-7
0.448, -9.164e-7, -4.883e-7, 4.281e-7
0.447, -9.155e-7, -4.889e-7, 4.266e-7
0.446, -9.149e-7, -4.898e-7, 4.250e-7
0.445, -9.173e-7, -4.901e-7, 4.272e-7
0.444, -9.155e-7, -4.895e-7, 4.260e-7
0.443, -9.179e-7, -4.920e-7, 4.260e-7
0.442, -9.161e-7, -4.892e-7, 4.269e-7
0.441, -9.167e-7, -4.910e-7, 4.256e-7
0.440, -9.179e-7, -4.907e-7, 4.272e-7
0.439, -9.182e-7, -4.910e-7, 4.272e-7
0.438, -9.185e-7, -4.920e-7, 4.266e-7
0.437, -9.182e-7, -4.914e-7, 4.269e-7
0.436, -9.191e-7, -4.920e-7, 4.272e-7
0.435, -9.188e-7, -4.932e-7, 4.256e-7
0.434, -9.191e-7, -4.929e-7, 4.263e-7
0.433, -9.201e-7, -4.941e-7, 4.260e-7
0.432, -9.207e-7, -4.947e-7, 4.260e-7
0.431, -9.225e-7, -4.947e-7, 4.278e-7
0.430, -9.213e-7, -4.941e-7, 4.272e-7
0.429, -9.234e-7, -4.962e-7, 4.272e-7
0.428, -9.234e-7, -4.953e-7, 4.281e-7
0.427, -9.219e-7, -4.965e-7, 4.253e-7
0.426, -9.255e-7, -4.975e-7, 4.281e-7
0.425, -9.277e-7, -4.978e-7, 4.299e-7
0.424, -9.258e-7, -4.993e-7, 4.266e-7
0.423, -9.280e-7, -5.005e-7, 4.275e-7
0.422, -9.274e-7, -4.984e-7, 4.290e-7
0.421, -9.268e-7, -4.990e-7, 4.278e-7
0.420, -9.280e-7, -4.993e-7, 4.287e-7
0.419, -9.280e-7, -4.999e-7, 4.281e-7
0.418, -9.304e-7, -5.023e-7, 4.281e-7
0.417, -9.323e-7, -5.011e-7, 4.311e-7
0.416, -9.307e-7, -5.017e-7, 4.290e-7
0.415, -9.310e-7, -5.036e-7, 4.275e-7
0.414, -9.323e-7, -5.023e-7, 4.299e-7
0.413, -9.304e-7, -5.026e-7, 4.278e-7
0.412, -9.344e-7, -5.051e-7, 4.293e-7
0.411, -9.353e-7, -5.045e-7, 4.308e-7
0.410, -9.313e-7, -5.033e-7, 4.281e-7
0.409, -9.344e-7, -5.060e-7, 4.284e-7
0.408, -9.362e-7, -5.051e-7, 4.311e-7
0.407, -9.365e-7, -5.057e-7, 4.308e-7
0.406, -9.381e-7, -5.081e-7, 4.299e-7
0.405, -9.384e-7, -5.081e-7, 4.302e-7
0.404, -9.387e-7, -5.078e-7, 4.308e-7
0.403, -9.411e-7, -5.087e-7, 4.324e-7
0.402, -9.420e-7, -5.103e-7, 4.317e-7
0.401, -9.420e-7, -5.100e-7, 4.321e-7
0.400, -9.432e-7, -5.100e-7, 4.333e-7
0.399, -9.435e-7, -5.124e-7, 4.311e-7
0.398, -9.442e-7, -5.118e-7, 4.324e-7
0.397, -9.457e-7, -5.127e-7, 4.330e-7
0.396, -9.451e-7, -5.130e-7, 4.321e-7
0.395, -9.481e-7, -5.142e-7, 4.339e-7
0.394, -9.475e-7, -5.139e-7, 4.336e-7
0.393, -9.481e-7, -5.152e-7, 4.330e-7
0.392, -9.509e-7, -5.170e-7, 4.339e-7
0.391, -9.497e-7, -5.155e-7, 4.342e-7
0.390, -9.512e-7, -5.167e-7, 4.345e-7
0.389, -9.533e-7, -5.188e-7, 4.345e-7
0.388, -9.536e-7, -5.179e-7, 4.357e-7
0.387, -9.539e-7, -5.191e-7, 4.348e-7
0.386, -9.548e-7, -5.188e-7, 4.360e-7
0.385, -9.536e-7, -5.188e-7, 4.348e-7
0.384, -9.536e-7, -5.210e-7, 4.327e-7
0.383, -9.579e-7, -5.207e-7, 4.372e-7
0.382, -9.567e-7, -5.210e-7, 4.357e-7
0.381, -9.594e-7, -5.234e-7, 4.360e-7
0.380, -9.594e-7, -5.213e-7, 4.382e-7
0.379, -9.588e-7, -5.231e-7, 4.357e-7
0.378, -9.640e-7, -5.264e-7, 4.375e-7
0.377, -9.591e-7, -5.234e-7, 4.357e-7
0.376, -9.616e-7, -5.255e-7, 4.360e-7
0.375, -9.637e-7, -5.264e-7, 4.372e-7
0.374, -9.631e-7, -5.255e-7, 4.375e-7
0.373, -9.652e-7, -5.274e-7, 4.379e-7
0.372, -9.667e-7, -5.295e-7, 4.372e-7
0.371, -9.655e-7, -5.268e-7, 4.388e-7
0.370, -9.649e-7, -5.295e-7, 4.354e-7
0.369, -9.695e-7, -5.307e-7, 4.388e-7
0.368, -9.686e-7, -5.295e-7, 4.391e-7
0.367, -9.677e-7, -5.313e-7, 4.363e-7
0.366, -9.738e-7, -5.335e-7, 4.403e-7
0.365, -9.707e-7, -5.313e-7, 4.394e-7
0.364, -9.719e-7, -5.338e-7, 4.382e-7
0.363, -9.741e-7, -5.341e-7, 4.400e-7
0.362, -9.716e-7, -5.335e-7, 4.382e-7
0.361, -9.750e-7, -5.347e-7, 4.403e-7
0.360, -9.744e-7, -5.350e-7, 4.394e-7
0.359, -9.762e-7, -5.371e-7, 4.391e-7
0.358, -9.765e-7, -5.368e-7, 4.397e-7
0.357, -9.789e-7, -5.371e-7, 4.418e-7
0.356, -9.774e-7, -5.380e-7, 4.394e-7
0.355, -9.808e-7, -5.402e-7, 4.406e-7
0.354, -9.774e-7, -5.380e-7, 4.394e-7
0.353, -9.802e-7, -5.414e-7, 4.388e-7
0.352, -9.832e-7, -5.414e-7, 4.418e-7
0.351, -9.808e-7, -5.405e-7, 4.403e-7
0.350, -9.823e-7, -5.423e-7, 4.400e-7
0.349, -9.854e-7, -5.429e-7, 4.424e-7
0.348, -9.829e-7, -5.441e-7, 4.388e-7
0.347, -9.869e-7, -5.460e-7, 4.409e-7
0.346, -9.884e-7, -5.454e-7, 4.430e-7
0.345, -9.866e-7, -5.460e-7, 4.406e-7
0.344, -9.902e-7, -5.478e-7, 4.424e-7
0.343, -9.915e-7, -5.478e-7, 4.436e-7
0.342, -9.912e-7, -5.496e-7, 4.415e-7
0.341, -9.921e-7, -5.499e-7, 4.421e-7
0.340, -9.924e-7, -5.484e-7, 4.440e-7
0.339, -9.939e-7, -5.512e-7, 4.427e-7
0.338, -9.982e-7, -5.530e-7, 4.452e-7
0.337, -9.951e-7, -5.512e-7, 4.440e-7
0.336, -9.991e-7, -5.554e-7, 4.436e-7
0.335, -1.001e-6, -5.551e-7, 4.458e-7
0.334, -1.001e-6, -5.548e-7, 4.458e-7
0.333, -1.002e-6, -5.567e-7, 4.449e-7
0.332, -1.003e-6, -5.557e-7, 4.476e-7
0.331, -1.004e-6, -5.576e-7, 4.467e-7
0.330, -1.006e-6, -5.603e-7, 4.461e-7
0.329, -1.008e-6, -5.594e-7, 4.488e-7
0.328, -1.009e-6, -5.618e-7, 4.473e-7
0.327, -1.011e-6, -5.637e-7, 4.470e-7
0.326, -1.013e-6, -5.631e-7, 4.494e-7
0.325, -1.011e-6, -5.634e-7, 4.479e-7
0.324, -1.014e-6, -5.664e-7, 4.473e-7
0.323, -1.017e-6, -5.667e-7, 4.504e-7
0.322, -1.015e-6, -5.661e-7, 4.491e-7
0.321, -1.016e-6, -5.676e-7, 4.488e-7
0.320, -1.017e-6, -5.676e-7, 4.498e-7
0.319, -1.020e-6, -5.695e-7, 4.507e-7
0.318, -1.022e-6, -5.701e-7, 4.516e-7
0.317, -1.022e-6, -5.713e-7, 4.510e-7
0.316, -1.026e-6, -5.744e-7, 4.516e-7
0.315, -1.026e-6, -5.744e-7, 4.519e-7
0.314, -1.025e-6, -5.734e-7, 4.519e-7
0.313, -1.031e-6, -5.777e-7, 4.534e-7
0.312, -1.032e-6, -5.783e-7, 4.537e-7
0.311, -1.031e-6, -5.774e-7, 4.540e-7
0.310, -1.035e-6, -5.795e-7, 4.559e-7
0.309, -1.036e-6, -5.795e-7, 4.568e-7
0.308, -1.036e-6, -5.805e-7, 4.552e-7
0.307, -1.039e-6, -5.838e-7, 4.555e-7
0.306, -1.040e-6, -5.829e-7, 4.574e-7
0.305, -1.038e-6, -5.826e-7, 4.555e-7
0.304, -1.042e-6, -5.857e-7, 4.568e-7
0.303, -1.045e-6, -5.866e-7, 4.583e-7
0.302, -1.043e-6, -5.878e-7, 4.555e-7
0.301, -1.049e-6, -5.893e-7, 4.595e-7
0.300, -1.048e-6, -5.884e-7, 4.595e-7
0.299, -1.048e-6, -5.905e-7, 4.574e-7
0.298, -1.050e-6, -5.905e-7, 4.592e-7
0.297, -1.050e-6, -5.908e-7, 4.595e-7
0.296, -1.055e-6, -5.948e-7, 4.604e-7
0.295, -1.053e-6, -5.927e-7, 4.604e-7
0.294, -1.055e-6, -5.945e-7, 4.604e-7
0.293, -1.059e-6, -5.982e-7, 4.607e-7
0.292, -1.058e-6, -5.954e-7, 4.629e-7
0.291, -1.060e-6, -5.997e-7, 4.601e-7
0.290, -1.063e-6, -6.009e-7, 4.617e-7
0.289, -1.063e-6, -5.988e-7, 4.644e-7
0.288, -1.062e-6, -6.000e-7, 4.617e-7
0.287, -1.067e-6, -6.040e-7, 4.626e-7
0.286, -1.065e-6, -6.018e-7, 4.632e-7
0.285, -1.067e-6, -6.033e-7, 4.632e-7
0.284, -1.070e-6, -6.058e-7, 4.644e-7
0.283, -1.070e-6, -6.049e-7, 4.653e-7
0.282, -1.070e-6, -6.073e-7, 4.632e-7
0.281, -1.074e-6, -6.088e-7, 4.653e-7
0.280, -1.074e-6, -6.073e-7, 4.665e-7
0.279, -1.076e-6, -6.110e-7, 4.653e-7
0.278, -1.081e-6, -6.119e-7, 4.693e-7
0.277, -1.079e-6, -6.116e-7, 4.671e-7
0.276, -1.081e-6, -6.140e-7, 4.671e-7
0.275, -1.083e-6, -6.153e-7, 4.675e-7
0.274, -1.082e-6, -6.149e-7, 4.671e-7
0.273, -1.083e-6, -6.153e-7, 4.675e-7
0.272, -1.085e-6, -6.159e-7, 4.687e-7
0.271, -1.086e-6, -6.180e-7, 4.681e-7
0.270, -1.091e-6, -6.220e-7, 4.687e-7
0.269, -1.091e-6, -6.198e-7, 4.708e-7
0.268, -1.092e-6, -6.226e-7, 4.699e-7
0.267, -1.094e-6, -6.223e-7, 4.714e-7
0.266, -1.093e-6, -6.220e-7, 4.714e-7
0.265, -1.098e-6, -6.262e-7, 4.714e-7
0.264, -1.098e-6, -6.253e-7, 4.723e-7
0.263, -1.097e-6, -6.259e-7, 4.711e-7
0.262, -1.102e-6, -6.290e-7, 4.726e-7
0.261, -1.101e-6, -6.272e-7, 4.736e-7
0.260, -1.102e-6, -6.281e-7, 4.736e-7
0.259, -1.106e-6, -6.314e-7, 4.745e-7
0.258, -1.107e-6, -6.308e-7, 4.766e-7
0.257, -1.107e-6, -6.323e-7, 4.742e-7
0.256, -1.111e-6, -6.363e-7, 4.748e-7
0.255, -1.111e-6, -6.345e-7, 4.763e-7
0.254, -1.111e-6, -6.363e-7, 4.745e-7
0.253, -1.116e-6, -6.397e-7, 4.766e-7
0.252, -1.115e-6, -6.363e-7, 4.784e-7
0.251, -1.117e-6, -6.400e-7, 4.772e-7
0.250, -1.122e-6, -6.415e-7, 4.809e-7
0.249, -1.121e-6, -6.415e-7, 4.797e-7
0.248, -1.121e-6, -6.430e-7, 4.781e-7
0.247, -1.126e-6, -6.439e-7, 4.818e-7
0.246, -1.125e-6, -6.436e-7, 4.809e-7
0.245, -1.129e-6, -6.473e-7, 4.818e-7
0.244, -1.130e-6, -6.470e-7, 4.833e-7
0.243, -1.130e-6, -6.473e-7, 4.830e-7
0.242, -1.133e-6, -6.503e-7, 4.824e-7
0.241, -1.135e-6, -6.503e-7, 4.845e-7
0.240, -1.134e-6, -6.494e-7, 4.848e-7
0.239, -1.137e-6, -6.537e-7, 4.836e-7
0.238, -1.137e-6, -6.513e-7, 4.861e-7
0.237, -1.141e-6, -6.540e-7, 4.867e-7
0.236, -1.144e-6, -6.568e-7, 4.876e-7
0.235, -1.145e-6, -6.561e-7, 4.891e-7
0.234, -1.146e-6, -6.583e-7, 4.879e-7
0.233, -1.147e-6, -6.577e-7, 4.891e-7
0.232, -1.149e-6, -6.592e-7, 4.897e-7
0.231, -1.150e-6, -6.604e-7, 4.891e-7
0.230, -1.152e-6, -6.626e-7, 4.891e-7
0.229, -1.155e-6, -6.635e-7, 4.916e-7
0.228, -1.156e-6, -6.647e-7, 4.913e-7
0.227, -1.157e-6, -6.644e-7, 4.928e-7
0.226, -1.158e-6, -6.659e-7, 4.925e-7
0.225, -1.161e-6, -6.671e-7, 4.943e-7
0.224, -1.163e-6, -6.680e-7, 4.946e-7
0.223, -1.163e-6, -6.683e-7, 4.946e-7
0.222, -1.165e-6, -6.702e-7, 4.949e-7
0.221, -1.169e-6, -6.705e-7, 4.989e-7
0.220, -1.170e-6, -6.732e-7, 4.964e-7
0.219, -1.172e-6, -6.735e-7, 4.980e-7
0.218, -1.171e-6, -6.720e-7, 4.989e-7
0.217, -1.174e-6, -6.745e-7, 4.992e-7
0.216, -1.174e-6, -6.748e-7, 4.992e-7
0.215, -1.176e-6, -6.760e-7, 5.001e-7
0.214, -1.177e-6, -6.778e-7, 4.995e-7
0.213, -1.178e-6, -6.778e-7, 5.001e-7
0.212, -1.180e-6, -6.784e-7, 5.019e-7
0.211, -1.182e-6, -6.802e-7, 5.016e-7
0.210, -1.184e-6, -6.809e-7, 5.035e-7
0.209, -1.183e-6, -6.806e-7, 5.022e-7
0.208, -1.188e-6, -6.845e-7, 5.035e-7
0.207, -1.187e-6, -6.824e-7, 5.047e-7
0.206, -1.186e-6, -6.827e-7, 5.028e-7
0.205, -1.190e-6, -6.854e-7, 5.050e-7
0.204, -1.190e-6, -6.830e-7, 5.074e-7
0.203, -1.191e-6, -6.854e-7, 5.056e-7
0.202, -1.194e-6, -6.876e-7, 5.068e-7
0.201, -1.197e-6, -6.873e-7, 5.099e-7
0.200, -1.197e-6, -6.888e-7, 5.080e-7
0.199, -1.200e-6, -6.903e-7, 5.096e-7
0.198, -1.200e-6, -6.891e-7, 5.105e-7
0.197, -1.200e-6, -6.909e-7, 5.096e-7
0.196, -1.203e-6, -6.918e-7, 5.111e-7
0.195, -1.201e-6, -6.903e-7, 5.108e-7
0.194, -1.206e-6, -6.946e-7, 5.114e-7
0.193, -1.206e-6, -6.937e-7, 5.123e-7
0.192, -1.206e-6, -6.937e-7, 5.126e-7
0.191, -1.206e-6, -6.946e-7, 5.114e-7
0.190, -1.209e-6, -6.946e-7, 5.144e-7
0.189, -1.209e-6, -6.952e-7, 5.138e-7
0.188, -1.211e-6, -6.967e-7, 5.138e-7
0.187, -1.212e-6, -6.958e-7, 5.160e-7
0.186, -1.212e-6, -6.973e-7, 5.151e-7
0.185, -1.214e-6, -6.989e-7, 5.154e-7
0.184, -1.213e-6, -6.961e-7, 5.169e-7
0.183, -1.216e-6, -7.001e-7, 5.163e-7
0.182, -1.217e-6, -6.992e-7, 5.175e-7
0.181, -1.216e-6, -6.983e-7, 5.181e-7
0.180, -1.217e-6, -7.004e-7, 5.166e-7
0.179, -1.218e-6, -6.998e-7, 5.178e-7
0.178, -1.222e-6, -7.016e-7, 5.199e-7
0.177, -1.221e-6, -7.016e-7, 5.193e-7
0.176, -1.223e-6, -7.022e-7, 5.212e-7
0.175, -1.223e-6, -7.028e-7, 5.199e-7
0.174, -1.224e-6, -7.028e-7, 5.209e-7
0.173, -1.225e-6, -7.028e-7, 5.218e-7
0.172, -1.224e-6, -7.031e-7, 5.212e-7
0.171, -1.226e-6, -7.044e-7, 5.215e-7
0.170, -1.226e-6, -7.028e-7, 5.227e-7
0.169, -1.226e-6, -7.044e-7, 5.218e-7
0.168, -1.228e-6, -7.053e-7, 5.230e-7
0.167, -1.232e-6, -7.047e-7, 5.273e-7
0.166, -1.229e-6, -7.059e-7, 5.233e-7
0.165, -1.233e-6, -7.065e-7, 5.270e-7
0.164, -1.234e-6, -7.053e-7, 5.285e-7
0.163, -1.232e-6, -7.077e-7, 5.245e-7
0.162, -1.237e-6, -7.089e-7, 5.279e-7
0.161, -1.234e-6, -7.062e-7, 5.282e-7
0.160, -1.237e-6, -7.095e-7, 5.270e-7
0.159, -1.238e-6, -7.080e-7, 5.300e-7
0.158, -1.238e-6, -7.083e-7, 5.294e-7
0.157, -1.238e-6, -7.095e-7, 5.288e-7
0.156, -1.240e-6, -7.089e-7, 5.312e-7
0.155, -1.240e-6, -7.102e-7, 5.297e-7
0.154, -1.241e-6, -7.111e-7, 5.303e-7
0.153, -1.242e-6, -7.089e-7, 5.328e-7
0.152, -1.241e-6, -7.099e-7, 5.315e-7
0.151, -1.246e-6, -7.126e-7, 5.334e-7
0.150, -1.246e-6, -7.108e-7, 5.352e-7
0.149, -1.245e-6, -7.111e-7, 5.337e-7
0.148, -1.246e-6, -7.120e-7, 5.343e-7
0.147, -1.246e-6, -7.108e-7, 5.352e-7
0.146, -1.246e-6, -7.111e-7, 5.352e-7
0.145, -1.249e-6, -7.117e-7, 5.370e-7
0.144, -1.250e-6, -7.126e-7, 5.376e-7
0.143, -1.250e-6, -7.135e-7, 5.361e-7
0.142, -1.249e-6, -7.114e-7, 5.379e-7
0.141, -1.252e-6, -7.132e-7, 5.389e-7
0.140, -1.251e-6, -7.126e-7, 5.386e-7
0.139, -1.252e-6, -7.126e-7, 5.395e-7
0.138, -1.253e-6, -7.129e-7, 5.401e-7
0.137, -1.256e-6, -7.132e-7, 5.425e-7
0.136, -1.254e-6, -7.129e-7, 5.413e-7
0.135, -1.254e-6, -7.126e-7, 5.413e-7
0.134, -1.254e-6, -7.135e-7, 5.407e-7
0.133, -1.253e-6, -7.111e-7, 5.422e-7
0.132, -1.254e-6, -7.123e-7, 5.413e-7
0.131, -1.255e-6, -7.126e-7, 5.422e-7
0.130, -1.255e-6, -7.108e-7, 5.443e-7
0.129, -1.255e-6, -7.117e-7, 5.431e-7
0.128, -1.255e-6, -7.129e-7, 5.422e-7
0.127, -1.254e-6, -7.102e-7, 5.440e-7
0.126, -1.256e-6, -7.126e-7, 5.434e-7
0.125, -1.258e-6, -7.117e-7, 5.459e-7
0.124, -1.255e-6, -7.105e-7, 5.447e-7
0.123, -1.255e-6, -7.126e-7, 5.428e-7
0.122, -1.257e-6, -7.114e-7, 5.459e-7
0.121, -1.255e-6, -7.095e-7, 5.453e-7
0.120, -1.257e-6, -7.105e-7, 5.462e-7
0.119, -1.256e-6, -7.092e-7, 5.468e-7
0.118, -1.255e-6, -7.092e-7, 5.456e-7
0.117, -1.257e-6, -7.099e-7, 5.474e-7
0.116, -1.256e-6, -7.083e-7, 5.480e-7
0.115, -1.255e-6, -7.086e-7, 5.459e-7
0.114, -1.257e-6, -7.095e-7, 5.471e-7
0.113, -1.255e-6, -7.062e-7, 5.486e-7
0.112, -1.255e-6, -7.074e-7, 5.471e-7
0.111, -1.256e-6, -7.089e-7, 5.468e-7
0.110, -1.255e-6, -7.059e-7, 5.495e-7
0.109, -1.253e-6, -7.062e-7, 5.465e-7
0.108, -1.253e-6, -7.056e-7, 5.474e-7
0.107, -1.252e-6, -7.047e-7, 5.471e-7
0.106, -1.250e-6, -7.041e-7, 5.459e-7
0.105, -1.252e-6, -7.037e-7, 5.480e-7
0.104, -1.251e-6, -7.034e-7, 5.471e-7
0.103, -1.251e-6, -7.041e-7, 5.471e-7
0.102, -1.249e-6, -7.019e-7, 5.471e-7
0.101, -1.250e-6, -7.022e-7, 5.477e-7
0.100, -1.250e-6, -7.016e-7, 5.486e-7
0.099, -1.249e-6, -6.998e-7, 5.495e-7
0.098, -1.247e-6, -6.995e-7, 5.480e-7
0.097, -1.247e-6, -6.989e-7, 5.483e-7
0.096, -1.245e-6, -6.973e-7, 5.480e-7
0.095, -1.246e-6, -6.989e-7, 5.471e-7
0.094, -1.247e-6, -6.980e-7, 5.486e-7
0.093, -1.244e-6, -6.961e-7, 5.483e-7
0.092, -1.244e-6, -6.958e-7, 5.480e-7
0.091, -1.246e-6, -6.964e-7, 5.495e-7
0.090, -1.243e-6, -6.952e-7, 5.480e-7
0.089, -1.243e-6, -6.949e-7, 5.477e-7
0.088, -1.243e-6, -6.949e-7, 5.480e-7
0.087, -1.241e-6, -6.931e-7, 5.483e-7
0.086, -1.240e-6, -6.928e-7, 5.471e-7
0.085, -1.239e-6, -6.912e-7, 5.474e-7
0.084, -1.239e-6, -6.918e-7, 5.471e-7
0.083, -1.238e-6, -6.912e-7, 5.471e-7
0.082, -1.238e-6, -6.888e-7, 5.489e-7
0.081, -1.235e-6, -6.891e-7, 5.456e-7
0.080, -1.238e-6, -6.900e-7, 5.477e-7
0.079, -1.233e-6, -6.860e-7, 5.465e-7
0.078, -1.233e-6, -6.888e-7, 5.447e-7
0.077, -1.235e-6, -6.867e-7, 5.486e-7
0.076, -1.232e-6, -6.848e-7, 5.471e-7
0.075, -1.231e-6, -6.860e-7, 5.447e-7
0.074, -1.232e-6, -6.833e-7, 5.483e-7
0.073, -1.230e-6, -6.824e-7, 5.477e-7
0.072, -1.229e-6, -6.845e-7, 5.440e-7
0.071, -1.230e-6, -6.809e-7, 5.489e-7
0.070, -1.227e-6, -6.815e-7, 5.456e-7
0.069, -1.226e-6, -6.815e-7, 5.440e-7
0.068, -1.227e-6, -6.799e-7, 5.474e-7
0.067, -1.226e-6, -6.793e-7, 5.465e-7
0.066, -1.225e-6, -6.803e-7, 5.443e-7
0.065, -1.225e-6, -6.796e-7, 5.456e-7
0.064, -1.220e-6, -6.757e-7, 5.440e-7
0.063, -1.221e-6, -6.772e-7, 5.437e-7
0.062, -1.222e-6, -6.760e-7, 5.456e-7
0.061, -1.218e-6, -6.748e-7, 5.431e-7
0.060, -1.217e-6, -6.735e-7, 5.437e-7
0.059, -1.216e-6, -6.726e-7, 5.431e-7
0.058, -1.215e-6, -6.729e-7, 5.425e-7
0.057, -1.215e-6, -6.711e-7, 5.434e-7
0.056, -1.214e-6, -6.711e-7, 5.428e-7
0.055, -1.214e-6, -6.708e-7, 5.428e-7
0.054, -1.213e-6, -6.708e-7, 5.419e-7
0.053, -1.211e-6, -6.693e-7, 5.419e-7
0.052, -1.210e-6, -6.687e-7, 5.413e-7
0.051, -1.207e-6, -6.662e-7, 5.410e-7
0.050, -1.208e-6, -6.671e-7, 5.410e-7
0.049, -1.206e-6, -6.665e-7, 5.392e-7
0.048, -1.204e-6, -6.638e-7, 5.404e-7
0.047, -1.204e-6, -6.641e-7, 5.401e-7
0.046, -1.204e-6, -6.644e-7, 5.395e-7
0.045, -1.203e-6, -6.635e-7, 5.392e-7
0.044, -1.201e-6, -6.632e-7, 5.379e-7
0.043, -1.202e-6, -6.616e-7, 5.401e-7
0.042, -1.198e-6, -6.589e-7, 5.389e-7
0.041, -1.196e-6, -6.598e-7, 5.358e-7
0.040, -1.198e-6, -6.598e-7, 5.385e-7
0.039, -1.193e-6, -6.580e-7, 5.355e-7
0.038, -1.195e-6, -6.586e-7, 5.367e-7
0.037, -1.193e-6, -6.564e-7, 5.364e-7
0.036, -1.190e-6, -6.561e-7, 5.340e-7
0.035, -1.191e-6, -6.568e-7, 5.343e-7
0.034, -1.189e-6, -6.534e-7, 5.358e-7
0.033, -1.186e-6, -6.531e-7, 5.328e-7
0.032, -1.186e-6, -6.528e-7, 5.328e-7
0.031, -1.185e-6, -6.519e-7, 5.334e-7
0.030, -1.179e-6, -6.510e-7, 5.285e-7
0.029, -1.184e-6, -6.519e-7, 5.321e-7
0.028, -1.180e-6, -6.479e-7, 5.321e-7
0.027, -1.179e-6, -6.494e-7, 5.300e-7
0.026, -1.177e-6, -6.482e-7, 5.288e-7
0.025, -1.176e-6, -6.458e-7, 5.300e-7
0.024, -1.174e-6, -6.464e-7, 5.273e-7
0.023, -1.174e-6, -6.461e-7, 5.279e-7
0.022, -1.172e-6, -6.442e-7, 5.282e-7
0.021, -1.172e-6, -6.452e-7, 5.270e-7
0.020, -1.172e-6, -6.439e-7, 5.276e-7
0.019, -1.168e-6, -6.427e-7, 5.248e-7
0.018, -1.166e-6, -6.424e-7, 5.236e-7
0.017, -1.165e-6, -6.409e-7, 5.242e-7
0.016, -1.162e-6, -6.388e-7, 5.233e-7
0.015, -1.162e-6, -6.394e-7, 5.230e-7
0.014, -1.161e-6, -6.388e-7, 5.221e-7
0.013, -1.158e-6, -6.372e-7, 5.212e-7
0.012, -1.158e-6, -6.378e-7, 5.205e-7
0.011, -1.157e-6, -6.360e-7, 5.212e-7
0.010, -1.154e-6, -6.351e-7, 5.187e-7
0.009, -1.154e-6, -6.351e-7, 5.190e-7
0.008, -1.150e-6, -6.330e-7, 5.175e-7
0.007, -1.150e-6, -6.336e-7, 5.166e-7
0.006, -1.150e-6, -6.323e-7, 5.172e-7
0.005, -1.148e-6, -6.317e-7, 5.163e-7
0.004, -1.147e-6, -6.320e-7, 5.147e-7
0.003, -1.145e-6, -6.299e-7, 5.151e-7
0.002, -1.142e-6, -6.290e-7, 5.129e-7
0.001, -1.143e-6, -6.293e-7, 5.141e-7
0.000, -1.143e-6, -6.293e-7, 5.132e-7
-0.001, -1.140e-6, -6.272e-7, 5.129e-7
-0.002, -1.141e-6, -6.299e-7, 5.111e-7
-0.003, -1.139e-6, -6.275e-7, 5.114e-7
-0.004, -1.135e-6, -6.256e-7, 5.089e-7
-0.005, -1.136e-6, -6.265e-7, 5.099e-7
-0.006, -1.134e-6, -6.241e-7, 5.102e-7
-0.007, -1.130e-6, -6.232e-7, 5.071e-7
-0.008, -1.132e-6, -6.238e-7, 5.077e-7
-0.009, -1.130e-6, -6.226e-7, 5.077e-7
-0.010, -1.129e-6, -6.235e-7, 5.056e-7
-0.011, -1.129e-6, -6.232e-7, 5.059e-7
-0.012, -1.125e-6, -6.201e-7, 5.047e-7
-0.013, -1.127e-6, -6.223e-7, 5.050e-7
-0.014, -1.126e-6, -6.204e-7, 5.053e-7
-0.015, -1.125e-6, -6.201e-7, 5.047e-7
-0.016, -1.123e-6, -6.204e-7, 5.022e-7
-0.017, -1.124e-6, -6.201e-7, 5.041e-7
-0.018, -1.119e-6, -6.177e-7, 5.013e-7
-0.019, -1.120e-6, -6.198e-7, 5.004e-7
-0.020, -1.118e-6, -6.171e-7, 5.013e-7
-0.021, -1.116e-6, -6.168e-7, 4.995e-7
-0.022, -1.117e-6, -6.180e-7, 4.989e-7
-0.023, -1.117e-6, -6.159e-7, 5.016e-7
-0.024, -1.113e-6, -6.156e-7, 4.977e-7
-0.025, -1.114e-6, -6.159e-7, 4.986e-7
-0.026, -1.111e-6, -6.146e-7, 4.967e-7
-0.027, -1.112e-6, -6.156e-7, 4.967e-7
-0.028, -1.114e-6, -6.153e-7, 4.989e-7
-0.029, -1.112e-6, -6.149e-7, 4.967e-7
-0.030, -1.110e-6, -6.149e-7, 4.952e-7
-0.031, -1.109e-6, -6.131e-7, 4.958e-7
-0.032, -1.109e-6, -6.140e-7, 4.946e-7
-0.033, -1.107e-6, -6.137e-7, 4.934e-7
-0.034, -1.106e-6, -6.128e-7, 4.934e-7
-0.035, -1.103e-6, -6.116e-7, 4.919e-7
-0.036, -1.106e-6, -6.137e-7, 4.925e-7
-0.037, -1.105e-6, -6.119e-7, 4.934e-7
-0.038, -1.104e-6, -6.119e-7, 4.919e-7
-0.039, -1.103e-6, -6.134e-7, 4.900e-7
-0.040, -1.103e-6, -6.101e-7, 4.925e-7
-0.041, -1.099e-6, -6.101e-7, 4.888e-7
-0.042, -1.101e-6, -6.107e-7, 4.900e-7
-0.043, -1.097e-6, -6.079e-7, 4.894e-7
-0.044, -1.097e-6, -6.092e-7, 4.882e-7
-0.045, -1.098e-6, -6.095e-7, 4.885e-7
-0.046, -1.098e-6, -6.092e-7, 4.891e-7
-0.047, -1.095e-6, -6.085e-7, 4.864e-7
-0.048, -1.096e-6, -6.085e-7, 4.873e-7
-0.049, -1.093e-6, -6.073e-7, 4.861e-7
-0.050, -1.094e-6, -6.082e-7, 4.855e-7
-0.051, -1.093e-6, -6.070e-7, 4.864e-7
-0.052, -1.091e-6, -6.064e-7, 4.842e-7
-0.053, -1.092e-6, -6.085e-7, 4.839e-7
-0.054, -1.089e-6, -6.049e-7, 4.845e-7
-0.055, -1.087e-6, -6.046e-7, 4.827e-7
-0.056, -1.088e-6, -6.064e-7, 4.821e-7
-0.057, -1.087e-6, -6.043e-7, 4.827e-7
-0.058, -1.087e-6, -6.052e-7, 4.815e-7
-0.059, -1.085e-6, -6.049e-7, 4.803e-7
-0.060, -1.086e-6, -6.040e-7, 4.821e-7
-0.061, -1.083e-6, -6.037e-7, 4.797e-7
-0.062, -1.085e-6, -6.046e-7, 4.803e-7
-0.063, -1.083e-6, -6.034e-7, 4.800e-7
-0.064, -1.081e-6, -6.034e-7, 4.781e-7
-0.065, -1.083e-6, -6.040e-7, 4.793e-7
-0.066, -1.083e-6, -6.027e-7, 4.803e-7
-0.067, -1.079e-6, -6.018e-7, 4.775e-7
-0.068, -1.079e-6, -6.024e-7, 4.769e-7
-0.069, -1.079e-6, -6.018e-7, 4.772e-7
-0.070, -1.077e-6, -6.024e-7, 4.748e-7
-0.071, -1.078e-6, -6.009e-7, 4.772e-7
-0.072, -1.077e-6, -6.003e-7, 4.763e-7
-0.073, -1.075e-6, -6.009e-7, 4.739e-7
-0.074, -1.072e-6, -5.985e-7, 4.739e-7
-0.075, -1.074e-6, -6.012e-7, 4.732e-7
-0.076, -1.072e-6, -5.988e-7, 4.732e-7
-0.077, -1.071e-6, -5.976e-7, 4.735e-7
-0.078, -1.072e-6, -5.997e-7, 4.726e-7
-0.079, -1.072e-6, -5.991e-7, 4.732e-7
-0.080, -1.068e-6, -5.969e-7, 4.714e-7
-0.081, -1.070e-6, -5.982e-7, 4.720e-7
-0.082, -1.068e-6, -5.969e-7, 4.708e-7
-0.083, -1.068e-6, -5.972e-7, 4.708e-7
-0.084, -1.070e-6, -5.985e-7, 4.711e-7
-0.085, -1.065e-6, -5.948e-7, 4.699e-7
-0.086, -1.067e-6, -5.963e-7, 4.705e-7
-0.087, -1.066e-6, -5.966e-7, 4.693e-7
-0.088, -1.066e-6, -5.957e-7, 4.705e-7
-0.089, -1.063e-6, -5.948e-7, 4.684e-7
-0.090, -1.065e-6, -5.960e-7, 4.693e-7
-0.091, -1.064e-6, -5.948e-7, 4.693e-7
-0.092, -1.063e-6, -5.960e-7, 4.668e-7
-0.093, -1.063e-6, -5.945e-7, 4.687e-7
-0.094, -1.062e-6, -5.930e-7, 4.693e-7
-0.095, -1.062e-6, -5.960e-7, 4.656e-7
-0.096, -1.061e-6, -5.939e-7, 4.668e-7
-0.097, -1.060e-6, -5.930e-7, 4.674e-7
-0.098, -1.060e-6, -5.936e-7, 4.662e-7
-0.099, -1.058e-6, -5.915e-7, 4.668e-7
-0.100, -1.059e-6, -5.924e-7, 4.662e-7
-0.101, -1.060e-6, -5.948e-7, 4.650e-7
-0.102, -1.060e-6, -5.924e-7, 4.674e-7
-0.103, -1.057e-6, -5.908e-7, 4.662e-7
-0.104, -1.057e-6, -5.921e-7, 4.647e-7
-0.105, -1.058e-6, -5.918e-7, 4.665e-7
-0.106, -1.055e-6, -5.902e-7, 4.650e-7
-0.107, -1.056e-6, -5.918e-7, 4.641e-7
-0.108, -1.056e-6, -5.908e-7, 4.656e-7
-0.109, -1.056e-6, -5.911e-7, 4.644e-7
-0.110, -1.055e-6, -5.915e-7, 4.638e-7
-0.111, -1.054e-6, -5.896e-7, 4.641e-7
-0.112, -1.055e-6, -5.902e-7, 4.644e-7
-0.113, -1.052e-6, -5.896e-7, 4.629e-7
-0.114, -1.052e-6, -5.884e-7, 4.641e-7
-0.115, -1.052e-6, -5.887e-7, 4.632e-7
-0.116, -1.054e-6, -5.893e-7, 4.647e-7
-0.117, -1.053e-6, -5.896e-7, 4.635e-7
-0.118, -1.052e-6, -5.890e-7, 4.632e-7
-0.119, -1.052e-6, -5.881e-7, 4.644e-7
-0.120, -1.051e-6, -5.875e-7, 4.635e-7
-0.121, -1.052e-6, -5.881e-7, 4.635e-7
-0.122, -1.051e-6, -5.869e-7, 4.641e-7
-0.123, -1.050e-6, -5.866e-7, 4.632e-7
-0.124, -1.051e-6, -5.872e-7, 4.635e-7
-0.125, -1.048e-6, -5.863e-7, 4.616e-7
-0.126, -1.050e-6, -5.878e-7, 4.623e-7
-0.127, -1.050e-6, -5.866e-7, 4.635e-7
-0.128, -1.049e-6, -5.853e-7, 4.632e-7
-0.129, -1.047e-6, -5.850e-7, 4.616e-7
-0.130, -1.047e-6, -5.847e-7, 4.623e-7
-0.131, -1.047e-6, -5.838e-7, 4.632e-7
-0.132, -1.045e-6, -5.844e-7, 4.607e-7
-0.133, -1.047e-6, -5.841e-7, 4.626e-7
-0.134, -1.044e-6, -5.826e-7, 4.613e-7
-0.135, -1.045e-6, -5.850e-7, 4.601e-7
-0.136, -1.043e-6, -5.814e-7, 4.613e-7
-0.137, -1.043e-6, -5.808e-7, 4.620e-7
-0.138, -1.043e-6, -5.835e-7, 4.595e-7
-0.139, -1.043e-6, -5.805e-7, 4.626e-7
-0.140, -1.042e-6, -5.820e-7, 4.595e-7
-0.141, -1.043e-6, -5.832e-7, 4.595e-7
-0.142, -1.040e-6, -5.796e-7, 4.604e-7
-0.143, -1.038e-6, -5.799e-7, 4.583e-7
-0.144, -1.039e-6, -5.808e-7, 4.580e-7
-0.145, -1.040e-6, -5.799e-7, 4.598e-7
-0.146, -1.038e-6, -5.783e-7, 4.598e-7
-0.147, -1.037e-6, -5.783e-7, 4.583e-7
-0.148, -1.036e-6, -5.768e-7, 4.595e-7
-0.149, -1.034e-6, -5.771e-7, 4.571e-7
-0.150, -1.035e-6, -5.771e-7, 4.580e-7
-0.151, -1.033e-6, -5.750e-7, 4.580e-7
-0.152, -1.034e-6, -5.771e-7, 4.565e-7
-0.153, -1.032e-6, -5.756e-7, 4.568e-7
-0.154, -1.032e-6, -5.753e-7, 4.568e-7
-0.155, -1.030e-6, -5.747e-7, 4.555e-7
-0.156, -1.030e-6, -5.738e-7, 4.558e-7
-0.157, -1.030e-6, -5.744e-7, 4.552e-7
-0.158, -1.030e-6, -5.753e-7, 4.549e-7
-0.159, -1.030e-6, -5.741e-7, 4.555e-7
-0.160, -1.026e-6, -5.719e-7, 4.537e-7
-0.161, -1.026e-6, -5.719e-7, 4.540e-7
-0.162, -1.024e-6, -5.707e-7, 4.537e-7
-0.163, -1.025e-6, -5.710e-7, 4.537e-7
-0.164, -1.024e-6, -5.701e-7, 4.537e-7
-0.165, -1.021e-6, -5.677e-7, 4.534e-7
-0.166, -1.022e-6, -5.692e-7, 4.528e-7
-0.167, -1.023e-6, -5.686e-7, 4.543e-7
-0.168, -1.020e-6, -5.680e-7, 4.519e-7
-0.169, -1.020e-6, -5.686e-7, 4.516e-7
-0.170, -1.019e-6, -5.664e-7, 4.525e-7
-0.171, -1.019e-6, -5.677e-7, 4.516e-7
-0.172, -1.016e-6, -5.658e-7, 4.504e-7
-0.173, -1.017e-6, -5.652e-7, 4.516e-7
-0.174, -1.015e-6, -5.652e-7, 4.501e-7
-0.175, -1.015e-6, -5.646e-7, 4.507e-7
-0.176, -1.012e-6, -5.619e-7, 4.504e-7
-0.177, -1.013e-6, -5.634e-7, 4.494e-7
-0.178, -1.013e-6, -5.622e-7, 4.504e-7
-0.179, -1.013e-6, -5.628e-7, 4.501e-7
-0.180, -1.010e-6, -5.622e-7, 4.479e-7
-0.181, -1.010e-6, -5.606e-7, 4.494e-7
-0.182, -1.011e-6, -5.612e-7, 4.494e-7
-0.183, -1.009e-6, -5.609e-7, 4.476e-7
-0.184, -1.008e-6, -5.615e-7, 4.464e-7
-0.185, -1.005e-6, -5.579e-7, 4.473e-7
-0.186, -1.006e-6, -5.603e-7, 4.461e-7
-0.187, -1.009e-6, -5.612e-7, 4.476e-7
-0.188, -1.004e-6, -5.570e-7, 4.473e-7
-0.189, -1.004e-6, -5.579e-7, 4.461e-7
-0.190, -1.004e-6, -5.570e-7, 4.470e-7
-0.191, -1.003e-6, -5.582e-7, 4.446e-7
-0.192, -1.002e-6, -5.573e-7, 4.449e-7
-0.193, -1.003e-6, -5.564e-7, 4.470e-7
-0.194, -9.982e-7, -5.542e-7, 4.439e-7
-0.195, -9.991e-7, -5.557e-7, 4.433e-7
-0.196, -1.000e-6, -5.551e-7, 4.449e-7
-0.197, -9.985e-7, -5.542e-7, 4.443e-7
-0.198, -9.951e-7, -5.527e-7, 4.424e-7
-0.199, -9.954e-7, -5.518e-7, 4.436e-7
-0.200, -9.951e-7, -5.515e-7, 4.436e-7
-0.201, -1.001e-6, -5.585e-7, 4.421e-7
-0.202, -9.939e-7, -5.509e-7, 4.430e-7
-0.203, -9.936e-7, -5.509e-7, 4.427e-7
-0.204, -9.918e-7, -5.503e-7, 4.415e-7
-0.205, -9.957e-7, -5.530e-7, 4.427e-7
-0.206, -9.930e-7, -5.503e-7, 4.427e-7
-0.207, -9.918e-7, -5.490e-7, 4.427e-7
-0.208, -9.887e-7, -5.478e-7, 4.409e-7
-0.209, -9.915e-7, -5.503e-7, 4.412e-7
-0.210, -9.893e-7, -5.475e-7, 4.418e-7
-0.211, -9.875e-7, -5.484e-7, 4.391e-7
-0.212, -9.890e-7, -5.487e-7, 4.403e-7
-0.213, -9.890e-7, -5.481e-7, 4.409e-7
-0.214, -9.869e-7, -5.481e-7, 4.388e-7
-0.215, -9.854e-7, -5.460e-7, 4.394e-7
-0.216, -9.838e-7, -5.457e-7, 4.382e-7
-0.217, -9.832e-7, -5.451e-7, 4.382e-7
-0.218, -9.832e-7, -5.454e-7, 4.378e-7
-0.219, -9.823e-7, -5.445e-7, 4.378e-7
-0.220, -9.854e-7, -5.487e-7, 4.366e-7
-0.221, -9.799e-7, -5.426e-7, 4.372e-7
-0.222, -9.796e-7, -5.423e-7, 4.372e-7
-0.223, -9.771e-7, -5.426e-7, 4.345e-7
-0.224, -9.783e-7, -5.414e-7, 4.369e-7
-0.225, -9.762e-7, -5.417e-7, 4.345e-7
-0.226, -9.759e-7, -5.417e-7, 4.342e-7
-0.227, -9.750e-7, -5.396e-7, 4.354e-7
-0.228, -9.725e-7, -5.390e-7, 4.336e-7
-0.229, -9.728e-7, -5.402e-7, 4.327e-7
-0.230, -9.695e-7, -5.377e-7, 4.317e-7
-0.231, -9.695e-7, -5.390e-7, 4.305e-7
-0.232, -9.689e-7, -5.381e-7, 4.308e-7
-0.233, -9.683e-7, -5.365e-7, 4.317e-7
-0.234, -9.670e-7, -5.384e-7, 4.287e-7
-0.235, -9.667e-7, -5.371e-7, 4.296e-7
-0.236, -9.667e-7, -5.353e-7, 4.314e-7
-0.237, -9.652e-7, -5.362e-7, 4.290e-7
-0.238, -9.640e-7, -5.350e-7, 4.290e-7
-0.239, -9.649e-7, -5.356e-7, 4.293e-7
-0.240, -9.609e-7, -5.344e-7, 4.266e-7
-0.241, -9.625e-7, -5.341e-7, 4.284e-7
-0.242, -9.612e-7, -5.332e-7, 4.281e-7
-0.243, -9.558e-7, -5.307e-7, 4.250e-7
-0.244, -9.567e-7, -5.310e-7, 4.256e-7
-0.245, -9.573e-7, -5.313e-7, 4.259e-7
-0.246, -9.588e-7, -5.353e-7, 4.235e-7
-0.247, -9.551e-7, -5.298e-7, 4.253e-7
-0.248, -9.533e-7, -5.292e-7, 4.241e-7
-0.249, -9.582e-7, -5.341e-7, 4.241e-7
-0.250, -9.542e-7, -5.319e-7, 4.223e-7
-0.251, -9.503e-7, -5.283e-7, 4.220e-7
-0.252, -9.518e-7, -5.289e-7, 4.229e-7
-0.253, -9.490e-7, -5.280e-7, 4.211e-7
-0.254, -9.475e-7, -5.268e-7, 4.208e-7
-0.255, -9.469e-7, -5.261e-7, 4.208e-7
-0.256, -9.536e-7, -5.329e-7, 4.208e-7
-0.257, -9.448e-7, -5.261e-7, 4.186e-7
-0.258, -9.423e-7, -5.231e-7, 4.192e-7
-0.259, -9.435e-7, -5.252e-7, 4.183e-7
-0.260, -9.420e-7, -5.243e-7, 4.177e-7
-0.261, -9.426e-7, -5.237e-7, 4.189e-7
-0.262, -9.417e-7, -5.246e-7, 4.171e-7
-0.263, -9.414e-7, -5.243e-7, 4.171e-7
-0.264, -9.390e-7, -5.219e-7, 4.171e-7
-0.265, -9.362e-7, -5.222e-7, 4.140e-7
-0.266, -9.402e-7, -5.234e-7, 4.168e-7
-0.267, -9.390e-7, -5.228e-7, 4.162e-7
-0.268, -9.381e-7, -5.240e-7, 4.140e-7
-0.269, -9.362e-7, -5.216e-7, 4.147e-7
-0.270, -9.344e-7, -5.200e-7, 4.143e-7
-0.271, -9.359e-7, -5.213e-7, 4.147e-7
-0.272, -9.323e-7, -5.188e-7, 4.134e-7
-0.273, -9.310e-7, -5.188e-7, 4.122e-7
-0.274, -9.320e-7, -5.210e-7, 4.110e-7
-0.275, -9.316e-7, -5.179e-7, 4.137e-7
-0.276, -9.292e-7, -5.179e-7, 4.113e-7
-0.277, -9.289e-7, -5.194e-7, 4.095e-7
-0.278, -9.292e-7, -5.176e-7, 4.116e-7
-0.279, -9.255e-7, -5.155e-7, 4.101e-7
-0.280, -9.271e-7, -5.185e-7, 4.085e-7
-0.281, -9.283e-7, -5.173e-7, 4.110e-7
-0.282, -9.252e-7, -5.158e-7, 4.095e-7
-0.283, -9.243e-7, -5.161e-7, 4.082e-7
-0.284, -9.240e-7, -5.146e-7, 4.095e-7
-0.285, -9.292e-7, -5.225e-7, 4.067e-7
-0.286, -9.225e-7, -5.152e-7, 4.073e-7
-0.287, -9.286e-7, -5.197e-7, 4.089e-7
-0.288, -9.237e-7, -5.170e-7, 4.067e-7
-0.289, -9.219e-7, -5.142e-7, 4.076e-7
-0.290, -9.182e-7, -5.118e-7, 4.064e-7
-0.291, -9.194e-7, -5.155e-7, 4.040e-7
-0.292, -9.201e-7, -5.146e-7, 4.055e-7
-0.293, -9.173e-7, -5.130e-7, 4.043e-7
-0.294, -9.155e-7, -5.112e-7, 4.043e-7
-0.295, -9.191e-7, -5.133e-7, 4.058e-7
-0.296, -9.167e-7, -5.124e-7, 4.043e-7
-0.297, -9.161e-7, -5.130e-7, 4.031e-7
-0.298, -9.161e-7, -5.115e-7, 4.046e-7
-0.299, -9.152e-7, -5.124e-7, 4.028e-7
-0.300, -9.173e-7, -5.136e-7, 4.037e-7
-0.301, -9.127e-7, -5.103e-7, 4.024e-7
-0.302, -9.133e-7, -5.121e-7, 4.012e-7
-0.303, -9.136e-7, -5.130e-7, 4.006e-7
-0.304, -9.091e-7, -5.088e-7, 4.003e-7
-0.305, -9.085e-7, -5.097e-7, 3.988e-7
-0.306, -9.136e-7, -5.136e-7, 4.000e-7
-0.307, -9.100e-7, -5.115e-7, 3.985e-7
-0.308, -9.115e-7, -5.133e-7, 3.982e-7
-0.309, -9.103e-7, -5.097e-7, 4.006e-7
-0.310, -9.078e-7, -5.081e-7, 3.997e-7
-0.311, -9.078e-7, -5.112e-7, 3.966e-7
-0.312, -9.091e-7, -5.100e-7, 3.991e-7
-0.313, -9.039e-7, -5.069e-7, 3.970e-7
-0.314, -9.057e-7, -5.075e-7, 3.982e-7
-0.315, -9.063e-7, -5.091e-7, 3.973e-7
-0.316, -9.027e-7, -5.075e-7, 3.951e-7
-0.317, -9.072e-7, -5.106e-7, 3.966e-7
-0.318, -9.045e-7, -5.078e-7, 3.966e-7
-0.319, -8.996e-7, -5.069e-7, 3.927e-7
-0.320, -9.033e-7, -5.078e-7, 3.954e-7
-0.321, -9.024e-7, -5.069e-7, 3.954e-7
-0.322, -8.984e-7, -5.057e-7, 3.927e-7
-0.323, -8.999e-7, -5.066e-7, 3.933e-7
-0.324, -8.987e-7, -5.051e-7, 3.936e-7
-0.325, -8.984e-7, -5.060e-7, 3.924e-7
-0.326, -8.987e-7, -5.069e-7, 3.918e-7
-0.327, -9.014e-7, -5.085e-7, 3.930e-7
-0.328, -8.950e-7, -5.051e-7, 3.899e-7
-0.329, -8.947e-7, -5.033e-7, 3.915e-7
-0.330, -8.929e-7, -5.030e-7, 3.899e-7
-0.331, -8.975e-7, -5.078e-7, 3.896e-7
-0.332, -8.932e-7, -5.036e-7, 3.896e-7
-0.333, -8.932e-7, -5.033e-7, 3.899e-7
-0.334, -8.905e-7, -5.027e-7, 3.878e-7
-0.335, -8.917e-7, -5.048e-7, 3.869e-7
-0.336, -8.895e-7, -5.027e-7, 3.869e-7
-0.337, -8.905e-7, -5.030e-7, 3.875e-7
-0.338, -8.874e-7, -5.011e-7, 3.863e-7
-0.339, -8.877e-7, -5.017e-7, 3.860e-7
-0.340, -8.898e-7, -5.039e-7, 3.860e-7
-0.341, -8.889e-7, -5.027e-7, 3.863e-7
-0.342, -8.892e-7, -5.045e-7, 3.847e-7
-0.343, -8.862e-7, -5.017e-7, 3.844e-7
-0.344, -8.853e-7, -5.017e-7, 3.835e-7
-0.345, -8.853e-7, -5.020e-7, 3.832e-7
-0.346, -8.889e-7, -5.057e-7, 3.832e-7
-0.347, -8.828e-7, -5.020e-7, 3.808e-7
-0.348, -8.847e-7, -5.017e-7, 3.829e-7
-0.349, -8.831e-7, -5.005e-7, 3.826e-7
-0.350, -8.831e-7, -5.014e-7, 3.817e-7
-0.351, -8.816e-7, -5.011e-7, 3.805e-7
-0.352, -8.822e-7, -4.996e-7, 3.826e-7
-0.353, -8.792e-7, -4.996e-7, 3.796e-7
-0.354, -8.807e-7, -5.008e-7, 3.799e-7
-0.355, -8.807e-7, -5.014e-7, 3.793e-7
-0.356, -8.792e-7, -5.005e-7, 3.786e-7
-0.357, -8.810e-7, -5.017e-7, 3.793e-7
-0.358, -8.819e-7, -5.017e-7, 3.802e-7
-0.359, -8.795e-7, -5.017e-7, 3.777e-7
-0.360, -8.773e-7, -4.981e-7, 3.793e-7
-0.361, -8.792e-7, -5.020e-7, 3.771e-7
-0.362, -8.789e-7, -5.030e-7, 3.759e-7
-0.363, -8.776e-7, -5.008e-7, 3.768e-7
-0.364, -8.770e-7, -4.993e-7, 3.777e-7
-0.365, -8.801e-7, -5.039e-7, 3.762e-7
-0.366, -8.782e-7, -5.017e-7, 3.765e-7
-0.367, -8.810e-7, -5.048e-7, 3.762e-7
-0.368, -8.776e-7, -5.027e-7, 3.750e-7
-0.369, -8.749e-7, -5.002e-7, 3.747e-7
-0.370, -8.773e-7, -5.017e-7, 3.756e-7
-0.371, -8.782e-7, -5.042e-7, 3.741e-7
-0.372, -8.743e-7, -5.002e-7, 3.741e-7
-0.373, -8.746e-7, -5.002e-7, 3.744e-7
-0.374, -8.795e-7, -5.051e-7, 3.744e-7
-0.375, -8.792e-7, -5.048e-7, 3.744e-7
-0.376, -8.721e-7, -5.005e-7, 3.716e-7
-0.377, -8.773e-7, -5.039e-7, 3.735e-7
-0.378, -8.734e-7, -5.011e-7, 3.722e-7
-0.379, -8.715e-7, -5.002e-7, 3.713e-7
-0.380, -8.761e-7, -5.042e-7, 3.719e-7
-0.381, -8.724e-7, -5.027e-7, 3.698e-7
-0.382, -8.715e-7, -5.017e-7, 3.698e-7
-0.383, -8.767e-7, -5.045e-7, 3.722e-7
-0.384, -8.712e-7, -5.020e-7, 3.692e-7
-0.385, -8.731e-7, -5.017e-7, 3.713e-7
-0.386, -8.724e-7, -5.023e-7, 3.701e-7
-0.387, -8.740e-7, -5.054e-7, 3.686e-7
-0.388, -8.724e-7, -5.036e-7, 3.689e-7
-0.389, -8.734e-7, -5.042e-7, 3.692e-7
-0.390, -8.737e-7, -5.072e-7, 3.664e-7
-0.391, -8.700e-7, -5.020e-7, 3.680e-7
-0.392, -8.709e-7, -5.030e-7, 3.680e-7
-0.393, -8.740e-7, -5.066e-7, 3.674e-7
-0.394, -8.718e-7, -5.051e-7, 3.667e-7
-0.395, -8.691e-7, -5.017e-7, 3.674e-7
-0.396, -8.700e-7, -5.057e-7, 3.643e-7
-0.397, -8.697e-7, -5.030e-7, 3.667e-7
-0.398, -8.682e-7, -5.027e-7, 3.655e-7
-0.399, -8.673e-7, -5.039e-7, 3.634e-7
-0.400, -8.676e-7, -5.033e-7, 3.643e-7
