Mar. 20, 2018   14:25:08
Square Wave Voltammetry
File: c:\users\electrochemist\desktop\2018\20032018_unbufarray_unpap\27_g3_ph6,48_2.txt
Data Source:  Experiment
Instrument Model:  CHI1040A
Header: 
Note: 

Init E (V) = 0.7
Final E (V) = -0.4
Incr E (V) = 0.001
Amplitude (V) = 0.1
Frequency (Hz) = 152
Quiet Time (sec) = 2
Sensitivity (A/V) = 1e-5

Difference:

Forward:
Reverse:

Potential/V, Diff(i/A), For(i/A), Rev(i/A)

0.699, -4.699e-7, -1.532e-7, 3.167e-7
0.698, -5.676e-7, -2.753e-7, 2.923e-7
0.697, -5.676e-7, -2.814e-7, 2.862e-7
0.696, -5.645e-7, -2.844e-7, 2.801e-7
0.695, -5.676e-7, -2.875e-7, 2.801e-7
0.694, -5.615e-7, -2.844e-7, 2.771e-7
0.693, -5.584e-7, -2.844e-7, 2.740e-7
0.692, -5.615e-7, -2.875e-7, 2.740e-7
0.691, -5.584e-7, -2.844e-7, 2.740e-7
0.690, -5.554e-7, -2.875e-7, 2.679e-7
0.689, -5.554e-7, -2.875e-7, 2.679e-7
0.688, -5.523e-7, -2.844e-7, 2.679e-7
0.687, -5.554e-7, -2.875e-7, 2.679e-7
0.686, -5.554e-7, -2.875e-7, 2.679e-7
0.685, -5.493e-7, -2.844e-7, 2.648e-7
0.684, -5.493e-7, -2.875e-7, 2.618e-7
0.683, -5.523e-7, -2.875e-7, 2.648e-7
0.682, -5.462e-7, -2.844e-7, 2.618e-7
0.681, -5.493e-7, -2.875e-7, 2.618e-7
0.680, -5.493e-7, -2.875e-7, 2.618e-7
0.679, -5.462e-7, -2.875e-7, 2.587e-7
0.678, -5.462e-7, -2.875e-7, 2.587e-7
0.677, -5.493e-7, -2.875e-7, 2.618e-7
0.676, -5.462e-7, -2.875e-7, 2.587e-7
0.675, -5.462e-7, -2.875e-7, 2.587e-7
0.674, -5.432e-7, -2.875e-7, 2.557e-7
0.673, -5.432e-7, -2.875e-7, 2.557e-7
0.672, -5.432e-7, -2.875e-7, 2.557e-7
0.671, -5.432e-7, -2.875e-7, 2.557e-7
0.670, -5.401e-7, -2.875e-7, 2.526e-7
0.669, -5.401e-7, -2.875e-7, 2.526e-7
0.668, -5.401e-7, -2.875e-7, 2.526e-7
0.667, -5.401e-7, -2.875e-7, 2.526e-7
0.666, -5.401e-7, -2.875e-7, 2.526e-7
0.665, -5.371e-7, -2.875e-7, 2.496e-7
0.664, -5.371e-7, -2.875e-7, 2.496e-7
0.663, -5.371e-7, -2.875e-7, 2.496e-7
0.662, -5.401e-7, -2.905e-7, 2.496e-7
0.661, -5.401e-7, -2.905e-7, 2.496e-7
0.660, -5.371e-7, -2.875e-7, 2.496e-7
0.659, -5.371e-7, -2.905e-7, 2.465e-7
0.658, -5.371e-7, -2.875e-7, 2.496e-7
0.657, -5.371e-7, -2.905e-7, 2.465e-7
0.656, -5.371e-7, -2.905e-7, 2.465e-7
0.655, -5.401e-7, -2.905e-7, 2.496e-7
0.654, -5.371e-7, -2.905e-7, 2.465e-7
0.653, -5.371e-7, -2.905e-7, 2.465e-7
0.652, -5.371e-7, -2.875e-7, 2.496e-7
0.651, -5.340e-7, -2.875e-7, 2.465e-7
0.650, -5.371e-7, -2.936e-7, 2.435e-7
0.649, -5.371e-7, -2.905e-7, 2.465e-7
0.648, -5.371e-7, -2.905e-7, 2.465e-7
0.647, -5.371e-7, -2.936e-7, 2.435e-7
0.646, -5.371e-7, -2.905e-7, 2.465e-7
0.645, -5.371e-7, -2.905e-7, 2.465e-7
0.644, -5.371e-7, -2.936e-7, 2.435e-7
0.643, -5.371e-7, -2.905e-7, 2.465e-7
0.642, -5.340e-7, -2.905e-7, 2.435e-7
0.641, -5.340e-7, -2.936e-7, 2.404e-7
0.640, -5.371e-7, -2.936e-7, 2.435e-7
0.639, -5.340e-7, -2.905e-7, 2.435e-7
0.638, -5.371e-7, -2.936e-7, 2.435e-7
0.637, -5.371e-7, -2.936e-7, 2.435e-7
0.636, -5.371e-7, -2.936e-7, 2.435e-7
0.635, -5.340e-7, -2.936e-7, 2.404e-7
0.634, -5.340e-7, -2.905e-7, 2.435e-7
0.633, -5.371e-7, -2.966e-7, 2.404e-7
0.632, -5.401e-7, -2.966e-7, 2.435e-7
0.631, -5.371e-7, -2.936e-7, 2.435e-7
0.630, -5.340e-7, -2.966e-7, 2.374e-7
0.629, -5.371e-7, -2.966e-7, 2.404e-7
0.628, -5.340e-7, -2.936e-7, 2.404e-7
0.627, -5.371e-7, -2.966e-7, 2.404e-7
0.626, -5.371e-7, -2.966e-7, 2.404e-7
0.625, -5.371e-7, -2.966e-7, 2.404e-7
0.624, -5.371e-7, -2.997e-7, 2.374e-7
0.623, -5.371e-7, -2.966e-7, 2.404e-7
0.622, -5.371e-7, -2.966e-7, 2.404e-7
0.621, -5.401e-7, -2.997e-7, 2.404e-7
0.620, -5.371e-7, -2.966e-7, 2.404e-7
0.619, -5.371e-7, -2.966e-7, 2.404e-7
0.618, -5.401e-7, -2.997e-7, 2.404e-7
0.617, -5.401e-7, -2.997e-7, 2.404e-7
0.616, -5.401e-7, -2.997e-7, 2.404e-7
0.615, -5.432e-7, -3.027e-7, 2.404e-7
0.614, -5.401e-7, -2.997e-7, 2.404e-7
0.613, -5.432e-7, -3.027e-7, 2.404e-7
0.612, -5.401e-7, -2.997e-7, 2.404e-7
0.611, -5.401e-7, -3.027e-7, 2.374e-7
0.610, -5.432e-7, -3.027e-7, 2.404e-7
0.609, -5.432e-7, -3.027e-7, 2.404e-7
0.608, -5.401e-7, -3.027e-7, 2.374e-7
0.607, -5.432e-7, -3.027e-7, 2.404e-7
0.606, -5.432e-7, -3.027e-7, 2.404e-7
0.605, -5.462e-7, -3.058e-7, 2.404e-7
0.604, -5.432e-7, -3.027e-7, 2.404e-7
0.603, -5.401e-7, -3.027e-7, 2.374e-7
0.602, -5.432e-7, -3.058e-7, 2.374e-7
0.601, -5.432e-7, -3.027e-7, 2.404e-7
0.600, -5.432e-7, -3.027e-7, 2.404e-7
0.599, -5.432e-7, -3.058e-7, 2.374e-7
0.598, -5.462e-7, -3.088e-7, 2.374e-7
0.597, -5.401e-7, -3.027e-7, 2.374e-7
0.596, -5.401e-7, -3.027e-7, 2.374e-7
0.595, -5.432e-7, -3.058e-7, 2.374e-7
0.594, -5.462e-7, -3.058e-7, 2.404e-7
0.593, -5.432e-7, -3.058e-7, 2.374e-7
0.592, -5.432e-7, -3.058e-7, 2.374e-7
0.591, -5.432e-7, -3.058e-7, 2.374e-7
0.590, -5.432e-7, -3.058e-7, 2.374e-7
0.589, -5.462e-7, -3.088e-7, 2.374e-7
0.588, -5.432e-7, -3.058e-7, 2.374e-7
0.587, -5.432e-7, -3.058e-7, 2.374e-7
0.586, -5.462e-7, -3.088e-7, 2.374e-7
0.585, -5.462e-7, -3.088e-7, 2.374e-7
0.584, -5.462e-7, -3.088e-7, 2.374e-7
0.583, -5.493e-7, -3.088e-7, 2.404e-7
0.582, -5.432e-7, -3.088e-7, 2.343e-7
0.581, -5.462e-7, -3.088e-7, 2.374e-7
0.580, -5.432e-7, -3.088e-7, 2.343e-7
0.579, -5.493e-7, -3.119e-7, 2.374e-7
0.578, -5.462e-7, -3.088e-7, 2.374e-7
0.577, -5.493e-7, -3.119e-7, 2.374e-7
0.576, -5.493e-7, -3.119e-7, 2.374e-7
0.575, -5.493e-7, -3.119e-7, 2.374e-7
0.574, -5.462e-7, -3.088e-7, 2.374e-7
0.573, -5.462e-7, -3.119e-7, 2.343e-7
0.572, -5.493e-7, -3.119e-7, 2.374e-7
0.571, -5.493e-7, -3.119e-7, 2.374e-7
0.570, -5.462e-7, -3.119e-7, 2.343e-7
0.569, -5.493e-7, -3.119e-7, 2.374e-7
0.568, -5.462e-7, -3.119e-7, 2.343e-7
0.567, -5.523e-7, -3.150e-7, 2.374e-7
0.566, -5.462e-7, -3.119e-7, 2.343e-7
0.565, -5.493e-7, -3.150e-7, 2.343e-7
0.564, -5.523e-7, -3.150e-7, 2.374e-7
0.563, -5.523e-7, -3.150e-7, 2.374e-7
0.562, -5.493e-7, -3.150e-7, 2.343e-7
0.561, -5.523e-7, -3.150e-7, 2.374e-7
0.560, -5.493e-7, -3.150e-7, 2.343e-7
0.559, -5.523e-7, -3.180e-7, 2.343e-7
0.558, -5.523e-7, -3.150e-7, 2.374e-7
0.557, -5.523e-7, -3.180e-7, 2.343e-7
0.556, -5.523e-7, -3.180e-7, 2.343e-7
0.555, -5.523e-7, -3.150e-7, 2.374e-7
0.554, -5.523e-7, -3.150e-7, 2.374e-7
0.553, -5.554e-7, -3.211e-7, 2.343e-7
0.552, -5.554e-7, -3.180e-7, 2.374e-7
0.551, -5.523e-7, -3.180e-7, 2.343e-7
0.550, -5.523e-7, -3.211e-7, 2.313e-7
0.549, -5.584e-7, -3.211e-7, 2.374e-7
0.548, -5.523e-7, -3.180e-7, 2.343e-7
0.547, -5.554e-7, -3.211e-7, 2.343e-7
0.546, -5.554e-7, -3.211e-7, 2.343e-7
0.545, -5.554e-7, -3.211e-7, 2.343e-7
0.544, -5.584e-7, -3.241e-7, 2.343e-7
0.543, -5.584e-7, -3.211e-7, 2.374e-7
0.542, -5.554e-7, -3.211e-7, 2.343e-7
0.541, -5.645e-7, -3.272e-7, 2.374e-7
0.540, -5.615e-7, -3.241e-7, 2.374e-7
0.539, -5.584e-7, -3.241e-7, 2.343e-7
0.538, -5.584e-7, -3.241e-7, 2.343e-7
0.537, -5.615e-7, -3.241e-7, 2.374e-7
0.536, -5.645e-7, -3.272e-7, 2.374e-7
0.535, -5.615e-7, -3.241e-7, 2.374e-7
0.534, -5.615e-7, -3.241e-7, 2.374e-7
0.533, -5.645e-7, -3.272e-7, 2.374e-7
0.532, -5.645e-7, -3.272e-7, 2.374e-7
0.531, -5.645e-7, -3.272e-7, 2.374e-7
0.530, -5.676e-7, -3.302e-7, 2.374e-7
0.529, -5.645e-7, -3.272e-7, 2.374e-7
0.528, -5.676e-7, -3.302e-7, 2.374e-7
0.527, -5.676e-7, -3.302e-7, 2.374e-7
0.526, -5.676e-7, -3.302e-7, 2.374e-7
0.525, -5.706e-7, -3.302e-7, 2.404e-7
0.524, -5.706e-7, -3.302e-7, 2.404e-7
0.523, -5.706e-7, -3.302e-7, 2.404e-7
0.522, -5.737e-7, -3.333e-7, 2.404e-7
0.521, -5.706e-7, -3.333e-7, 2.374e-7
0.520, -5.737e-7, -3.333e-7, 2.404e-7
0.519, -5.706e-7, -3.333e-7, 2.374e-7
0.518, -5.737e-7, -3.333e-7, 2.404e-7
0.517, -5.737e-7, -3.333e-7, 2.404e-7
0.516, -5.706e-7, -3.333e-7, 2.374e-7
0.515, -5.737e-7, -3.333e-7, 2.404e-7
0.514, -5.737e-7, -3.363e-7, 2.374e-7
0.513, -5.767e-7, -3.394e-7, 2.374e-7
0.512, -5.767e-7, -3.363e-7, 2.404e-7
0.511, -5.767e-7, -3.394e-7, 2.374e-7
0.510, -5.798e-7, -3.394e-7, 2.404e-7
0.509, -5.767e-7, -3.363e-7, 2.404e-7
0.508, -5.767e-7, -3.394e-7, 2.374e-7
0.507, -5.829e-7, -3.424e-7, 2.404e-7
0.506, -5.829e-7, -3.394e-7, 2.435e-7
0.505, -5.798e-7, -3.394e-7, 2.404e-7
0.504, -5.829e-7, -3.424e-7, 2.404e-7
0.503, -5.798e-7, -3.394e-7, 2.404e-7
0.502, -5.798e-7, -3.424e-7, 2.374e-7
0.501, -5.829e-7, -3.424e-7, 2.404e-7
0.500, -5.798e-7, -3.394e-7, 2.404e-7
0.499, -5.798e-7, -3.424e-7, 2.374e-7
0.498, -5.859e-7, -3.455e-7, 2.404e-7
0.497, -5.829e-7, -3.424e-7, 2.404e-7
0.496, -5.859e-7, -3.455e-7, 2.404e-7
0.495, -5.859e-7, -3.455e-7, 2.404e-7
0.494, -5.829e-7, -3.424e-7, 2.404e-7
0.493, -5.859e-7, -3.455e-7, 2.404e-7
0.492, -5.890e-7, -3.485e-7, 2.404e-7
0.491, -5.859e-7, -3.455e-7, 2.404e-7
0.490, -5.890e-7, -3.485e-7, 2.404e-7
0.489, -5.890e-7, -3.485e-7, 2.404e-7
0.488, -5.890e-7, -3.485e-7, 2.404e-7
0.487, -5.890e-7, -3.485e-7, 2.404e-7
0.486, -5.890e-7, -3.485e-7, 2.404e-7
0.485, -5.890e-7, -3.485e-7, 2.404e-7
0.484, -5.890e-7, -3.485e-7, 2.404e-7
0.483, -5.920e-7, -3.516e-7, 2.404e-7
0.482, -5.890e-7, -3.485e-7, 2.404e-7
0.481, -5.920e-7, -3.516e-7, 2.404e-7
0.480, -5.920e-7, -3.516e-7, 2.404e-7
0.479, -5.951e-7, -3.516e-7, 2.435e-7
0.478, -5.920e-7, -3.516e-7, 2.404e-7
0.477, -5.951e-7, -3.516e-7, 2.435e-7
0.476, -5.951e-7, -3.546e-7, 2.404e-7
0.475, -5.951e-7, -3.546e-7, 2.404e-7
0.474, -5.951e-7, -3.546e-7, 2.404e-7
0.473, -5.981e-7, -3.577e-7, 2.404e-7
0.472, -5.951e-7, -3.546e-7, 2.404e-7
0.471, -5.951e-7, -3.546e-7, 2.404e-7
0.470, -6.012e-7, -3.577e-7, 2.435e-7
0.469, -5.981e-7, -3.577e-7, 2.404e-7
0.468, -5.981e-7, -3.577e-7, 2.404e-7
0.467, -6.012e-7, -3.577e-7, 2.435e-7
0.466, -5.981e-7, -3.577e-7, 2.404e-7
0.465, -5.981e-7, -3.577e-7, 2.404e-7
0.464, -6.042e-7, -3.607e-7, 2.435e-7
0.463, -6.012e-7, -3.577e-7, 2.435e-7
0.462, -6.012e-7, -3.607e-7, 2.404e-7
0.461, -6.042e-7, -3.607e-7, 2.435e-7
0.460, -6.042e-7, -3.607e-7, 2.435e-7
0.459, -6.042e-7, -3.638e-7, 2.404e-7
0.458, -6.073e-7, -3.638e-7, 2.435e-7
0.457, -6.042e-7, -3.607e-7, 2.435e-7
0.456, -6.042e-7, -3.638e-7, 2.404e-7
0.455, -6.073e-7, -3.638e-7, 2.435e-7
0.454, -6.073e-7, -3.638e-7, 2.435e-7
0.453, -6.073e-7, -3.668e-7, 2.404e-7
0.452, -6.103e-7, -3.638e-7, 2.465e-7
0.451, -6.042e-7, -3.638e-7, 2.404e-7
0.450, -6.103e-7, -3.668e-7, 2.435e-7
0.449, -6.134e-7, -3.668e-7, 2.465e-7
0.448, -6.103e-7, -3.668e-7, 2.435e-7
0.447, -6.134e-7, -3.699e-7, 2.435e-7
0.446, -6.134e-7, -3.668e-7, 2.465e-7
0.445, -6.164e-7, -3.699e-7, 2.465e-7
0.444, -6.134e-7, -3.699e-7, 2.435e-7
0.443, -6.195e-7, -3.729e-7, 2.465e-7
0.442, -6.164e-7, -3.699e-7, 2.465e-7
0.441, -6.164e-7, -3.729e-7, 2.435e-7
0.440, -6.195e-7, -3.729e-7, 2.465e-7
0.439, -6.225e-7, -3.760e-7, 2.465e-7
0.438, -6.225e-7, -3.760e-7, 2.465e-7
0.437, -6.256e-7, -3.760e-7, 2.496e-7
0.436, -6.225e-7, -3.760e-7, 2.465e-7
0.435, -6.225e-7, -3.760e-7, 2.465e-7
0.434, -6.225e-7, -3.760e-7, 2.465e-7
0.433, -6.225e-7, -3.760e-7, 2.465e-7
0.432, -6.256e-7, -3.790e-7, 2.465e-7
0.431, -6.286e-7, -3.821e-7, 2.465e-7
0.430, -6.286e-7, -3.821e-7, 2.465e-7
0.429, -6.286e-7, -3.821e-7, 2.465e-7
0.428, -6.286e-7, -3.790e-7, 2.496e-7
0.427, -6.317e-7, -3.821e-7, 2.496e-7
0.426, -6.317e-7, -3.821e-7, 2.496e-7
0.425, -6.347e-7, -3.851e-7, 2.496e-7
0.424, -6.347e-7, -3.851e-7, 2.496e-7
0.423, -6.347e-7, -3.851e-7, 2.496e-7
0.422, -6.347e-7, -3.851e-7, 2.496e-7
0.421, -6.347e-7, -3.851e-7, 2.496e-7
0.420, -6.347e-7, -3.851e-7, 2.496e-7
0.419, -6.378e-7, -3.882e-7, 2.496e-7
0.418, -6.378e-7, -3.882e-7, 2.496e-7
0.417, -6.378e-7, -3.882e-7, 2.496e-7
0.416, -6.439e-7, -3.912e-7, 2.526e-7
0.415, -6.439e-7, -3.912e-7, 2.526e-7
0.414, -6.439e-7, -3.912e-7, 2.526e-7
0.413, -6.469e-7, -3.943e-7, 2.526e-7
0.412, -6.439e-7, -3.912e-7, 2.526e-7
0.411, -6.439e-7, -3.943e-7, 2.496e-7
0.410, -6.469e-7, -3.943e-7, 2.526e-7
0.409, -6.439e-7, -3.912e-7, 2.526e-7
0.408, -6.469e-7, -3.973e-7, 2.496e-7
0.407, -6.530e-7, -3.973e-7, 2.557e-7
0.406, -6.469e-7, -3.943e-7, 2.526e-7
0.405, -6.500e-7, -3.973e-7, 2.526e-7
0.404, -6.530e-7, -4.004e-7, 2.526e-7
0.403, -6.530e-7, -3.973e-7, 2.557e-7
0.402, -6.530e-7, -4.004e-7, 2.526e-7
0.401, -6.530e-7, -4.004e-7, 2.526e-7
0.400, -6.530e-7, -4.004e-7, 2.526e-7
0.399, -6.561e-7, -4.035e-7, 2.526e-7
0.398, -6.591e-7, -4.035e-7, 2.557e-7
0.397, -6.561e-7, -4.004e-7, 2.557e-7
0.396, -6.591e-7, -4.035e-7, 2.557e-7
0.395, -6.622e-7, -4.065e-7, 2.557e-7
0.394, -6.591e-7, -4.035e-7, 2.557e-7
0.393, -6.622e-7, -4.065e-7, 2.557e-7
0.392, -6.622e-7, -4.065e-7, 2.557e-7
0.391, -6.622e-7, -4.065e-7, 2.557e-7
0.390, -6.652e-7, -4.096e-7, 2.557e-7
0.389, -6.652e-7, -4.096e-7, 2.557e-7
0.388, -6.652e-7, -4.096e-7, 2.557e-7
0.387, -6.652e-7, -4.096e-7, 2.557e-7
0.386, -6.713e-7, -4.126e-7, 2.587e-7
0.385, -6.652e-7, -4.096e-7, 2.557e-7
0.384, -6.713e-7, -4.126e-7, 2.587e-7
0.383, -6.713e-7, -4.126e-7, 2.587e-7
0.382, -6.713e-7, -4.126e-7, 2.587e-7
0.381, -6.713e-7, -4.157e-7, 2.557e-7
0.380, -6.744e-7, -4.157e-7, 2.587e-7
0.379, -6.713e-7, -4.157e-7, 2.557e-7
0.378, -6.713e-7, -4.157e-7, 2.557e-7
0.377, -6.744e-7, -4.157e-7, 2.587e-7
0.376, -6.775e-7, -4.187e-7, 2.587e-7
0.375, -6.775e-7, -4.187e-7, 2.587e-7
0.374, -6.744e-7, -4.157e-7, 2.587e-7
0.373, -6.805e-7, -4.218e-7, 2.587e-7
0.372, -6.805e-7, -4.218e-7, 2.587e-7
0.371, -6.805e-7, -4.218e-7, 2.587e-7
0.370, -6.805e-7, -4.218e-7, 2.587e-7
0.369, -6.805e-7, -4.218e-7, 2.587e-7
0.368, -6.805e-7, -4.218e-7, 2.587e-7
0.367, -6.866e-7, -4.248e-7, 2.618e-7
0.366, -6.866e-7, -4.248e-7, 2.618e-7
0.365, -6.836e-7, -4.248e-7, 2.587e-7
0.364, -6.897e-7, -4.279e-7, 2.618e-7
0.363, -6.897e-7, -4.279e-7, 2.618e-7
0.362, -6.897e-7, -4.309e-7, 2.587e-7
0.361, -6.897e-7, -4.279e-7, 2.618e-7
0.360, -6.897e-7, -4.279e-7, 2.618e-7
0.359, -6.927e-7, -4.340e-7, 2.587e-7
0.358, -6.958e-7, -4.309e-7, 2.648e-7
0.357, -6.927e-7, -4.309e-7, 2.618e-7
0.356, -6.958e-7, -4.340e-7, 2.618e-7
0.355, -6.988e-7, -4.340e-7, 2.648e-7
0.354, -6.988e-7, -4.340e-7, 2.648e-7
0.353, -7.019e-7, -4.370e-7, 2.648e-7
0.352, -7.019e-7, -4.370e-7, 2.648e-7
0.351, -7.019e-7, -4.370e-7, 2.648e-7
0.350, -7.019e-7, -4.370e-7, 2.648e-7
0.349, -7.019e-7, -4.370e-7, 2.648e-7
0.348, -7.049e-7, -4.401e-7, 2.648e-7
0.347, -7.080e-7, -4.431e-7, 2.648e-7
0.346, -7.110e-7, -4.431e-7, 2.679e-7
0.345, -7.110e-7, -4.431e-7, 2.679e-7
0.344, -7.110e-7, -4.431e-7, 2.679e-7
0.343, -7.110e-7, -4.431e-7, 2.679e-7
0.342, -7.141e-7, -4.462e-7, 2.679e-7
0.341, -7.171e-7, -4.492e-7, 2.679e-7
0.340, -7.171e-7, -4.492e-7, 2.679e-7
0.339, -7.171e-7, -4.492e-7, 2.679e-7
0.338, -7.202e-7, -4.492e-7, 2.709e-7
0.337, -7.202e-7, -4.523e-7, 2.679e-7
0.336, -7.232e-7, -4.523e-7, 2.709e-7
0.335, -7.232e-7, -4.523e-7, 2.709e-7
0.334, -7.232e-7, -4.523e-7, 2.709e-7
0.333, -7.263e-7, -4.553e-7, 2.709e-7
0.332, -7.293e-7, -4.584e-7, 2.709e-7
0.331, -7.293e-7, -4.584e-7, 2.709e-7
0.330, -7.293e-7, -4.584e-7, 2.709e-7
0.329, -7.293e-7, -4.584e-7, 2.709e-7
0.328, -7.354e-7, -4.614e-7, 2.740e-7
0.327, -7.354e-7, -4.614e-7, 2.740e-7
0.326, -7.354e-7, -4.614e-7, 2.740e-7
0.325, -7.354e-7, -4.614e-7, 2.740e-7
0.324, -7.385e-7, -4.645e-7, 2.740e-7
0.323, -7.415e-7, -4.645e-7, 2.771e-7
0.322, -7.415e-7, -4.675e-7, 2.740e-7
0.321, -7.415e-7, -4.675e-7, 2.740e-7
0.320, -7.446e-7, -4.675e-7, 2.771e-7
0.319, -7.476e-7, -4.706e-7, 2.771e-7
0.318, -7.476e-7, -4.706e-7, 2.771e-7
0.317, -7.507e-7, -4.736e-7, 2.771e-7
0.316, -7.507e-7, -4.736e-7, 2.771e-7
0.315, -7.537e-7, -4.736e-7, 2.801e-7
0.314, -7.507e-7, -4.736e-7, 2.771e-7
0.313, -7.568e-7, -4.767e-7, 2.801e-7
0.312, -7.537e-7, -4.736e-7, 2.801e-7
0.311, -7.568e-7, -4.797e-7, 2.771e-7
0.310, -7.598e-7, -4.797e-7, 2.801e-7
0.309, -7.568e-7, -4.767e-7, 2.801e-7
0.308, -7.629e-7, -4.828e-7, 2.801e-7
0.307, -7.659e-7, -4.828e-7, 2.832e-7
0.306, -7.659e-7, -4.828e-7, 2.832e-7
0.305, -7.629e-7, -4.828e-7, 2.801e-7
0.304, -7.690e-7, -4.858e-7, 2.832e-7
0.303, -7.721e-7, -4.858e-7, 2.862e-7
0.302, -7.721e-7, -4.889e-7, 2.832e-7
0.301, -7.721e-7, -4.889e-7, 2.832e-7
0.300, -7.721e-7, -4.889e-7, 2.832e-7
0.299, -7.751e-7, -4.919e-7, 2.832e-7
0.298, -7.751e-7, -4.919e-7, 2.832e-7
0.297, -7.782e-7, -4.919e-7, 2.862e-7
0.296, -7.782e-7, -4.950e-7, 2.832e-7
0.295, -7.812e-7, -4.950e-7, 2.862e-7
0.294, -7.812e-7, -4.950e-7, 2.862e-7
0.293, -7.843e-7, -4.981e-7, 2.862e-7
0.292, -7.843e-7, -4.981e-7, 2.862e-7
0.291, -7.843e-7, -4.981e-7, 2.862e-7
0.290, -7.873e-7, -4.981e-7, 2.893e-7
0.289, -7.904e-7, -5.011e-7, 2.893e-7
0.288, -7.904e-7, -5.011e-7, 2.893e-7
0.287, -7.934e-7, -5.042e-7, 2.893e-7
0.286, -7.934e-7, -5.042e-7, 2.893e-7
0.285, -7.934e-7, -5.042e-7, 2.893e-7
0.284, -7.934e-7, -5.042e-7, 2.893e-7
0.283, -7.965e-7, -5.072e-7, 2.893e-7
0.282, -7.965e-7, -5.072e-7, 2.893e-7
0.281, -7.995e-7, -5.072e-7, 2.923e-7
0.280, -8.056e-7, -5.103e-7, 2.954e-7
0.279, -8.026e-7, -5.103e-7, 2.923e-7
0.278, -8.056e-7, -5.133e-7, 2.923e-7
0.277, -8.056e-7, -5.133e-7, 2.923e-7
0.276, -8.087e-7, -5.133e-7, 2.954e-7
0.275, -8.087e-7, -5.164e-7, 2.923e-7
0.274, -8.117e-7, -5.164e-7, 2.954e-7
0.273, -8.148e-7, -5.194e-7, 2.954e-7
0.272, -8.117e-7, -5.164e-7, 2.954e-7
0.271, -8.148e-7, -5.194e-7, 2.954e-7
0.270, -8.178e-7, -5.194e-7, 2.984e-7
0.269, -8.178e-7, -5.225e-7, 2.954e-7
0.268, -8.209e-7, -5.255e-7, 2.954e-7
0.267, -8.239e-7, -5.255e-7, 2.984e-7
0.266, -8.209e-7, -5.225e-7, 2.984e-7
0.265, -8.270e-7, -5.286e-7, 2.984e-7
0.264, -8.300e-7, -5.286e-7, 3.015e-7
0.263, -8.300e-7, -5.286e-7, 3.015e-7
0.262, -8.300e-7, -5.316e-7, 2.984e-7
0.261, -8.361e-7, -5.316e-7, 3.045e-7
0.260, -8.331e-7, -5.316e-7, 3.015e-7
0.259, -8.361e-7, -5.347e-7, 3.015e-7
0.258, -8.392e-7, -5.347e-7, 3.045e-7
0.257, -8.361e-7, -5.347e-7, 3.015e-7
0.256, -8.392e-7, -5.377e-7, 3.015e-7
0.255, -8.422e-7, -5.377e-7, 3.045e-7
0.254, -8.422e-7, -5.377e-7, 3.045e-7
0.253, -8.453e-7, -5.408e-7, 3.045e-7
0.252, -8.483e-7, -5.408e-7, 3.076e-7
0.251, -8.483e-7, -5.438e-7, 3.045e-7
0.250, -8.544e-7, -5.469e-7, 3.076e-7
0.249, -8.544e-7, -5.438e-7, 3.106e-7
0.248, -8.544e-7, -5.469e-7, 3.076e-7
0.247, -8.575e-7, -5.499e-7, 3.076e-7
0.246, -8.605e-7, -5.499e-7, 3.106e-7
0.245, -8.575e-7, -5.499e-7, 3.076e-7
0.244, -8.636e-7, -5.530e-7, 3.106e-7
0.243, -8.636e-7, -5.530e-7, 3.106e-7
0.242, -8.666e-7, -5.560e-7, 3.106e-7
0.241, -8.697e-7, -5.560e-7, 3.137e-7
0.240, -8.697e-7, -5.560e-7, 3.137e-7
0.239, -8.728e-7, -5.591e-7, 3.137e-7
0.238, -8.728e-7, -5.591e-7, 3.137e-7
0.237, -8.758e-7, -5.591e-7, 3.167e-7
0.236, -8.789e-7, -5.621e-7, 3.167e-7
0.235, -8.789e-7, -5.621e-7, 3.167e-7
0.234, -8.789e-7, -5.621e-7, 3.167e-7
0.233, -8.850e-7, -5.652e-7, 3.198e-7
0.232, -8.850e-7, -5.682e-7, 3.167e-7
0.231, -8.880e-7, -5.682e-7, 3.198e-7
0.230, -8.880e-7, -5.682e-7, 3.198e-7
0.229, -8.941e-7, -5.713e-7, 3.228e-7
0.228, -8.972e-7, -5.743e-7, 3.228e-7
0.227, -8.941e-7, -5.743e-7, 3.198e-7
0.226, -8.972e-7, -5.743e-7, 3.228e-7
0.225, -8.972e-7, -5.743e-7, 3.228e-7
0.224, -9.002e-7, -5.743e-7, 3.259e-7
0.223, -9.033e-7, -5.774e-7, 3.259e-7
0.222, -9.063e-7, -5.804e-7, 3.259e-7
0.221, -9.063e-7, -5.804e-7, 3.259e-7
0.220, -9.063e-7, -5.804e-7, 3.259e-7
0.219, -9.094e-7, -5.835e-7, 3.259e-7
0.218, -9.124e-7, -5.835e-7, 3.289e-7
0.217, -9.094e-7, -5.835e-7, 3.259e-7
0.216, -9.155e-7, -5.865e-7, 3.289e-7
0.215, -9.155e-7, -5.835e-7, 3.320e-7
0.214, -9.185e-7, -5.896e-7, 3.289e-7
0.213, -9.216e-7, -5.896e-7, 3.320e-7
0.212, -9.216e-7, -5.896e-7, 3.320e-7
0.211, -9.216e-7, -5.896e-7, 3.320e-7
0.210, -9.277e-7, -5.926e-7, 3.350e-7
0.209, -9.277e-7, -5.926e-7, 3.350e-7
0.208, -9.277e-7, -5.957e-7, 3.320e-7
0.207, -9.338e-7, -5.988e-7, 3.350e-7
0.206, -9.338e-7, -5.957e-7, 3.381e-7
0.205, -9.338e-7, -5.988e-7, 3.350e-7
0.204, -9.368e-7, -5.988e-7, 3.381e-7
0.203, -9.338e-7, -5.957e-7, 3.381e-7
0.202, -9.399e-7, -6.018e-7, 3.381e-7
0.201, -9.429e-7, -6.018e-7, 3.411e-7
0.200, -9.429e-7, -6.018e-7, 3.411e-7
0.199, -9.429e-7, -6.018e-7, 3.411e-7
0.198, -9.460e-7, -6.049e-7, 3.411e-7
0.197, -9.460e-7, -6.049e-7, 3.411e-7
0.196, -9.490e-7, -6.079e-7, 3.411e-7
0.195, -9.521e-7, -6.079e-7, 3.442e-7
0.194, -9.521e-7, -6.079e-7, 3.442e-7
0.193, -9.521e-7, -6.079e-7, 3.442e-7
0.192, -9.521e-7, -6.079e-7, 3.442e-7
0.191, -9.551e-7, -6.110e-7, 3.442e-7
0.190, -9.612e-7, -6.140e-7, 3.472e-7
0.189, -9.582e-7, -6.110e-7, 3.472e-7
0.188, -9.612e-7, -6.140e-7, 3.472e-7
0.187, -9.612e-7, -6.140e-7, 3.472e-7
0.186, -9.643e-7, -6.140e-7, 3.503e-7
0.185, -9.643e-7, -6.140e-7, 3.503e-7
0.184, -9.643e-7, -6.171e-7, 3.472e-7
0.183, -9.674e-7, -6.171e-7, 3.503e-7
0.182, -9.674e-7, -6.171e-7, 3.503e-7
0.181, -9.704e-7, -6.201e-7, 3.503e-7
0.180, -9.704e-7, -6.201e-7, 3.503e-7
0.179, -9.704e-7, -6.201e-7, 3.503e-7
0.178, -9.735e-7, -6.201e-7, 3.533e-7
0.177, -9.735e-7, -6.201e-7, 3.533e-7
0.176, -9.765e-7, -6.232e-7, 3.533e-7
0.175, -9.796e-7, -6.232e-7, 3.564e-7
0.174, -9.796e-7, -6.262e-7, 3.533e-7
0.173, -9.857e-7, -6.262e-7, 3.594e-7
0.172, -9.796e-7, -6.232e-7, 3.564e-7
0.171, -9.826e-7, -6.262e-7, 3.564e-7
0.170, -9.857e-7, -6.262e-7, 3.594e-7
0.169, -9.857e-7, -6.262e-7, 3.594e-7
0.168, -9.887e-7, -6.293e-7, 3.594e-7
0.167, -9.887e-7, -6.293e-7, 3.594e-7
0.166, -9.887e-7, -6.293e-7, 3.594e-7
0.165, -9.918e-7, -6.323e-7, 3.594e-7
0.164, -9.979e-7, -6.323e-7, 3.655e-7
0.163, -9.948e-7, -6.323e-7, 3.625e-7
0.162, -9.979e-7, -6.354e-7, 3.625e-7
0.161, -9.979e-7, -6.323e-7, 3.655e-7
0.160, -9.979e-7, -6.323e-7, 3.655e-7
0.159, -1.004e-6, -6.384e-7, 3.655e-7
0.158, -1.004e-6, -6.354e-7, 3.686e-7
0.157, -1.004e-6, -6.354e-7, 3.686e-7
0.156, -1.004e-6, -6.384e-7, 3.655e-7
0.155, -1.007e-6, -6.384e-7, 3.686e-7
0.154, -1.007e-6, -6.384e-7, 3.686e-7
0.153, -1.007e-6, -6.384e-7, 3.686e-7
0.152, -1.010e-6, -6.384e-7, 3.716e-7
0.151, -1.007e-6, -6.384e-7, 3.686e-7
0.150, -1.016e-6, -6.445e-7, 3.716e-7
0.149, -1.013e-6, -6.415e-7, 3.716e-7
0.148, -1.016e-6, -6.445e-7, 3.716e-7
0.147, -1.019e-6, -6.445e-7, 3.747e-7
0.146, -1.016e-6, -6.415e-7, 3.747e-7
0.145, -1.022e-6, -6.445e-7, 3.778e-7
0.144, -1.022e-6, -6.445e-7, 3.778e-7
0.143, -1.025e-6, -6.476e-7, 3.778e-7
0.142, -1.022e-6, -6.445e-7, 3.778e-7
0.141, -1.028e-6, -6.476e-7, 3.808e-7
0.140, -1.028e-6, -6.476e-7, 3.808e-7
0.139, -1.025e-6, -6.476e-7, 3.778e-7
0.138, -1.028e-6, -6.476e-7, 3.808e-7
0.137, -1.031e-6, -6.476e-7, 3.839e-7
0.136, -1.034e-6, -6.506e-7, 3.839e-7
0.135, -1.031e-6, -6.476e-7, 3.839e-7
0.134, -1.034e-6, -6.506e-7, 3.839e-7
0.133, -1.034e-6, -6.506e-7, 3.839e-7
0.132, -1.038e-6, -6.506e-7, 3.869e-7
0.131, -1.034e-6, -6.506e-7, 3.839e-7
0.130, -1.038e-6, -6.506e-7, 3.869e-7
0.129, -1.041e-6, -6.537e-7, 3.869e-7
0.128, -1.041e-6, -6.537e-7, 3.869e-7
0.127, -1.044e-6, -6.537e-7, 3.900e-7
0.126, -1.044e-6, -6.537e-7, 3.900e-7
0.125, -1.044e-6, -6.537e-7, 3.900e-7
0.124, -1.044e-6, -6.537e-7, 3.900e-7
0.123, -1.044e-6, -6.537e-7, 3.900e-7
0.122, -1.047e-6, -6.567e-7, 3.900e-7
0.121, -1.047e-6, -6.537e-7, 3.930e-7
0.120, -1.047e-6, -6.537e-7, 3.930e-7
0.119, -1.050e-6, -6.567e-7, 3.930e-7
0.118, -1.050e-6, -6.537e-7, 3.961e-7
0.117, -1.044e-6, -6.537e-7, 3.900e-7
0.116, -1.053e-6, -6.567e-7, 3.961e-7
0.115, -1.053e-6, -6.567e-7, 3.961e-7
0.114, -1.050e-6, -6.567e-7, 3.930e-7
0.113, -1.053e-6, -6.567e-7, 3.961e-7
0.112, -1.053e-6, -6.567e-7, 3.961e-7
0.111, -1.053e-6, -6.567e-7, 3.961e-7
0.110, -1.059e-6, -6.598e-7, 3.991e-7
0.109, -1.056e-6, -6.567e-7, 3.991e-7
0.108, -1.056e-6, -6.567e-7, 3.991e-7
0.107, -1.059e-6, -6.567e-7, 4.022e-7
0.106, -1.056e-6, -6.567e-7, 3.991e-7
0.105, -1.056e-6, -6.567e-7, 3.991e-7
0.104, -1.059e-6, -6.598e-7, 3.991e-7
0.103, -1.059e-6, -6.567e-7, 4.022e-7
0.102, -1.059e-6, -6.567e-7, 4.022e-7
0.101, -1.059e-6, -6.567e-7, 4.022e-7
0.100, -1.056e-6, -6.537e-7, 4.022e-7
0.099, -1.062e-6, -6.598e-7, 4.022e-7
0.098, -1.062e-6, -6.567e-7, 4.052e-7
0.097, -1.059e-6, -6.567e-7, 4.022e-7
0.096, -1.062e-6, -6.567e-7, 4.052e-7
0.095, -1.062e-6, -6.567e-7, 4.052e-7
0.094, -1.062e-6, -6.567e-7, 4.052e-7
0.093, -1.062e-6, -6.567e-7, 4.052e-7
0.092, -1.065e-6, -6.567e-7, 4.083e-7
0.091, -1.059e-6, -6.537e-7, 4.052e-7
0.090, -1.059e-6, -6.537e-7, 4.052e-7
0.089, -1.062e-6, -6.537e-7, 4.083e-7
0.088, -1.062e-6, -6.537e-7, 4.083e-7
0.087, -1.062e-6, -6.537e-7, 4.083e-7
0.086, -1.062e-6, -6.537e-7, 4.083e-7
0.085, -1.059e-6, -6.537e-7, 4.052e-7
0.084, -1.059e-6, -6.506e-7, 4.083e-7
0.083, -1.062e-6, -6.537e-7, 4.083e-7
0.082, -1.059e-6, -6.506e-7, 4.083e-7
0.081, -1.062e-6, -6.506e-7, 4.113e-7
0.080, -1.059e-6, -6.506e-7, 4.083e-7
0.079, -1.062e-6, -6.537e-7, 4.083e-7
0.078, -1.062e-6, -6.506e-7, 4.113e-7
0.077, -1.062e-6, -6.506e-7, 4.113e-7
0.076, -1.059e-6, -6.476e-7, 4.113e-7
0.075, -1.062e-6, -6.506e-7, 4.113e-7
0.074, -1.062e-6, -6.506e-7, 4.113e-7
0.073, -1.059e-6, -6.476e-7, 4.113e-7
0.072, -1.062e-6, -6.476e-7, 4.144e-7
0.071, -1.059e-6, -6.476e-7, 4.113e-7
0.070, -1.062e-6, -6.476e-7, 4.144e-7
0.069, -1.062e-6, -6.476e-7, 4.144e-7
0.068, -1.062e-6, -6.476e-7, 4.144e-7
0.067, -1.062e-6, -6.476e-7, 4.144e-7
0.066, -1.059e-6, -6.445e-7, 4.144e-7
0.065, -1.056e-6, -6.445e-7, 4.113e-7
0.064, -1.059e-6, -6.445e-7, 4.144e-7
0.063, -1.056e-6, -6.415e-7, 4.144e-7
0.062, -1.056e-6, -6.415e-7, 4.144e-7
0.061, -1.059e-6, -6.415e-7, 4.174e-7
0.060, -1.056e-6, -6.415e-7, 4.144e-7
0.059, -1.056e-6, -6.415e-7, 4.144e-7
0.058, -1.056e-6, -6.384e-7, 4.174e-7
0.057, -1.053e-6, -6.384e-7, 4.144e-7
0.056, -1.056e-6, -6.415e-7, 4.144e-7
0.055, -1.056e-6, -6.384e-7, 4.174e-7
0.054, -1.056e-6, -6.384e-7, 4.174e-7
0.053, -1.053e-6, -6.384e-7, 4.144e-7
0.052, -1.053e-6, -6.354e-7, 4.174e-7
0.051, -1.053e-6, -6.354e-7, 4.174e-7
0.050, -1.056e-6, -6.384e-7, 4.174e-7
0.049, -1.050e-6, -6.323e-7, 4.174e-7
0.048, -1.050e-6, -6.323e-7, 4.174e-7
0.047, -1.050e-6, -6.323e-7, 4.174e-7
0.046, -1.050e-6, -6.323e-7, 4.174e-7
0.045, -1.047e-6, -6.293e-7, 4.174e-7
0.044, -1.047e-6, -6.293e-7, 4.174e-7
0.043, -1.050e-6, -6.293e-7, 4.205e-7
0.042, -1.047e-6, -6.293e-7, 4.174e-7
0.041, -1.047e-6, -6.293e-7, 4.174e-7
0.040, -1.044e-6, -6.262e-7, 4.174e-7
0.039, -1.050e-6, -6.293e-7, 4.205e-7
0.038, -1.047e-6, -6.262e-7, 4.205e-7
0.037, -1.041e-6, -6.232e-7, 4.174e-7
0.036, -1.041e-6, -6.232e-7, 4.174e-7
0.035, -1.041e-6, -6.232e-7, 4.174e-7
0.034, -1.038e-6, -6.201e-7, 4.174e-7
0.033, -1.044e-6, -6.232e-7, 4.205e-7
0.032, -1.038e-6, -6.201e-7, 4.174e-7
0.031, -1.038e-6, -6.201e-7, 4.174e-7
0.030, -1.041e-6, -6.201e-7, 4.205e-7
0.029, -1.038e-6, -6.201e-7, 4.174e-7
0.028, -1.034e-6, -6.171e-7, 4.174e-7
0.027, -1.031e-6, -6.140e-7, 4.174e-7
0.026, -1.031e-6, -6.140e-7, 4.174e-7
0.025, -1.031e-6, -6.140e-7, 4.174e-7
0.024, -1.028e-6, -6.110e-7, 4.174e-7
0.023, -1.028e-6, -6.110e-7, 4.174e-7
0.022, -1.028e-6, -6.110e-7, 4.174e-7
0.021, -1.028e-6, -6.079e-7, 4.205e-7
0.020, -1.025e-6, -6.079e-7, 4.174e-7
0.019, -1.028e-6, -6.110e-7, 4.174e-7
0.018, -1.025e-6, -6.049e-7, 4.205e-7
0.017, -1.022e-6, -6.049e-7, 4.174e-7
0.016, -1.022e-6, -6.049e-7, 4.174e-7
0.015, -1.019e-6, -6.018e-7, 4.174e-7
0.014, -1.016e-6, -6.018e-7, 4.144e-7
0.013, -1.019e-6, -6.018e-7, 4.174e-7
0.012, -1.019e-6, -5.988e-7, 4.205e-7
0.011, -1.013e-6, -5.988e-7, 4.144e-7
0.010, -1.013e-6, -5.988e-7, 4.144e-7
0.009, -1.010e-6, -5.957e-7, 4.144e-7
0.008, -1.010e-6, -5.957e-7, 4.144e-7
0.007, -1.013e-6, -5.957e-7, 4.174e-7
0.006, -1.007e-6, -5.927e-7, 4.144e-7
0.005, -1.004e-6, -5.927e-7, 4.113e-7
0.004, -1.007e-6, -5.927e-7, 4.144e-7
0.003, -1.004e-6, -5.896e-7, 4.144e-7
0.002, -1.001e-6, -5.896e-7, 4.113e-7
0.001, -9.979e-7, -5.865e-7, 4.113e-7
0.000, -9.948e-7, -5.835e-7, 4.113e-7
-0.001, -9.948e-7, -5.865e-7, 4.083e-7
-0.002, -9.948e-7, -5.835e-7, 4.113e-7
-0.003, -9.918e-7, -5.804e-7, 4.113e-7
-0.004, -9.948e-7, -5.835e-7, 4.113e-7
-0.005, -9.918e-7, -5.804e-7, 4.113e-7
-0.006, -9.918e-7, -5.804e-7, 4.113e-7
-0.007, -9.887e-7, -5.804e-7, 4.083e-7
-0.008, -9.887e-7, -5.774e-7, 4.113e-7
-0.009, -9.826e-7, -5.743e-7, 4.083e-7
-0.010, -9.826e-7, -5.743e-7, 4.083e-7
-0.011, -9.826e-7, -5.743e-7, 4.083e-7
-0.012, -9.796e-7, -5.713e-7, 4.083e-7
-0.013, -9.796e-7, -5.713e-7, 4.083e-7
-0.014, -9.765e-7, -5.682e-7, 4.083e-7
-0.015, -9.735e-7, -5.682e-7, 4.052e-7
-0.016, -9.735e-7, -5.682e-7, 4.052e-7
-0.017, -9.704e-7, -5.652e-7, 4.052e-7
-0.018, -9.704e-7, -5.652e-7, 4.052e-7
-0.019, -9.704e-7, -5.652e-7, 4.052e-7
-0.020, -9.643e-7, -5.621e-7, 4.022e-7
-0.021, -9.674e-7, -5.621e-7, 4.052e-7
-0.022, -9.612e-7, -5.591e-7, 4.022e-7
-0.023, -9.612e-7, -5.591e-7, 4.022e-7
-0.024, -9.612e-7, -5.591e-7, 4.022e-7
-0.025, -9.582e-7, -5.560e-7, 4.022e-7
-0.026, -9.551e-7, -5.560e-7, 3.991e-7
-0.027, -9.582e-7, -5.560e-7, 4.022e-7
-0.028, -9.551e-7, -5.530e-7, 4.022e-7
-0.029, -9.521e-7, -5.530e-7, 3.991e-7
-0.030, -9.521e-7, -5.499e-7, 4.022e-7
-0.031, -9.490e-7, -5.499e-7, 3.991e-7
-0.032, -9.490e-7, -5.499e-7, 3.991e-7
-0.033, -9.429e-7, -5.469e-7, 3.961e-7
-0.034, -9.460e-7, -5.469e-7, 3.991e-7
-0.035, -9.429e-7, -5.469e-7, 3.961e-7
-0.036, -9.429e-7, -5.469e-7, 3.961e-7
-0.037, -9.399e-7, -5.438e-7, 3.961e-7
-0.038, -9.368e-7, -5.438e-7, 3.930e-7
-0.039, -9.368e-7, -5.408e-7, 3.961e-7
-0.040, -9.338e-7, -5.408e-7, 3.930e-7
-0.041, -9.368e-7, -5.438e-7, 3.930e-7
-0.042, -9.338e-7, -5.377e-7, 3.961e-7
-0.043, -9.307e-7, -5.377e-7, 3.930e-7
-0.044, -9.277e-7, -5.377e-7, 3.900e-7
-0.045, -9.277e-7, -5.347e-7, 3.930e-7
-0.046, -9.246e-7, -5.347e-7, 3.900e-7
-0.047, -9.277e-7, -5.347e-7, 3.930e-7
-0.048, -9.246e-7, -5.316e-7, 3.930e-7
-0.049, -9.216e-7, -5.316e-7, 3.900e-7
-0.050, -9.216e-7, -5.316e-7, 3.900e-7
-0.051, -9.185e-7, -5.286e-7, 3.900e-7
-0.052, -9.185e-7, -5.286e-7, 3.900e-7
-0.053, -9.185e-7, -5.286e-7, 3.900e-7
-0.054, -9.155e-7, -5.286e-7, 3.869e-7
-0.055, -9.155e-7, -5.286e-7, 3.869e-7
-0.056, -9.124e-7, -5.255e-7, 3.869e-7
-0.057, -9.094e-7, -5.255e-7, 3.839e-7
-0.058, -9.124e-7, -5.255e-7, 3.869e-7
-0.059, -9.094e-7, -5.225e-7, 3.869e-7
-0.060, -9.063e-7, -5.225e-7, 3.839e-7
-0.061, -9.094e-7, -5.225e-7, 3.869e-7
-0.062, -9.033e-7, -5.194e-7, 3.839e-7
-0.063, -9.033e-7, -5.194e-7, 3.839e-7
-0.064, -9.002e-7, -5.194e-7, 3.808e-7
-0.065, -9.033e-7, -5.194e-7, 3.839e-7
-0.066, -9.033e-7, -5.194e-7, 3.839e-7
-0.067, -8.972e-7, -5.164e-7, 3.808e-7
-0.068, -8.972e-7, -5.164e-7, 3.808e-7
-0.069, -8.972e-7, -5.164e-7, 3.808e-7
-0.070, -8.941e-7, -5.133e-7, 3.808e-7
-0.071, -8.911e-7, -5.133e-7, 3.778e-7
-0.072, -8.941e-7, -5.133e-7, 3.808e-7
-0.073, -8.941e-7, -5.133e-7, 3.808e-7
-0.074, -8.880e-7, -5.103e-7, 3.778e-7
-0.075, -8.880e-7, -5.103e-7, 3.778e-7
-0.076, -8.850e-7, -5.072e-7, 3.778e-7
-0.077, -8.850e-7, -5.103e-7, 3.747e-7
-0.078, -8.850e-7, -5.103e-7, 3.747e-7
-0.079, -8.850e-7, -5.072e-7, 3.778e-7
-0.080, -8.819e-7, -5.072e-7, 3.747e-7
-0.081, -8.819e-7, -5.072e-7, 3.747e-7
-0.082, -8.819e-7, -5.042e-7, 3.777e-7
-0.083, -8.819e-7, -5.072e-7, 3.747e-7
-0.084, -8.819e-7, -5.072e-7, 3.747e-7
-0.085, -8.789e-7, -5.042e-7, 3.747e-7
-0.086, -8.758e-7, -5.042e-7, 3.716e-7
-0.087, -8.758e-7, -5.042e-7, 3.716e-7
-0.088, -8.758e-7, -5.011e-7, 3.747e-7
-0.089, -8.728e-7, -5.011e-7, 3.716e-7
-0.090, -8.728e-7, -5.011e-7, 3.716e-7
-0.091, -8.697e-7, -4.981e-7, 3.716e-7
-0.092, -8.697e-7, -5.011e-7, 3.686e-7
-0.093, -8.666e-7, -4.981e-7, 3.686e-7
-0.094, -8.666e-7, -4.981e-7, 3.686e-7
-0.095, -8.666e-7, -4.981e-7, 3.686e-7
-0.096, -8.666e-7, -4.981e-7, 3.686e-7
-0.097, -8.636e-7, -4.950e-7, 3.686e-7
-0.098, -8.605e-7, -4.950e-7, 3.655e-7
-0.099, -8.605e-7, -4.950e-7, 3.655e-7
-0.100, -8.575e-7, -4.920e-7, 3.655e-7
-0.101, -8.605e-7, -4.950e-7, 3.655e-7
-0.102, -8.605e-7, -4.950e-7, 3.655e-7
-0.103, -8.575e-7, -4.920e-7, 3.655e-7
-0.104, -8.544e-7, -4.920e-7, 3.625e-7
-0.105, -8.575e-7, -4.920e-7, 3.655e-7
-0.106, -8.544e-7, -4.920e-7, 3.625e-7
-0.107, -8.514e-7, -4.889e-7, 3.625e-7
-0.108, -8.514e-7, -4.889e-7, 3.625e-7
-0.109, -8.483e-7, -4.889e-7, 3.594e-7
-0.110, -8.514e-7, -4.889e-7, 3.625e-7
-0.111, -8.453e-7, -4.858e-7, 3.594e-7
-0.112, -8.453e-7, -4.858e-7, 3.594e-7
-0.113, -8.453e-7, -4.858e-7, 3.594e-7
-0.114, -8.483e-7, -4.889e-7, 3.594e-7
-0.115, -8.483e-7, -4.889e-7, 3.594e-7
-0.116, -8.453e-7, -4.858e-7, 3.594e-7
-0.117, -8.422e-7, -4.858e-7, 3.564e-7
-0.118, -8.453e-7, -4.858e-7, 3.594e-7
-0.119, -8.422e-7, -4.828e-7, 3.594e-7
-0.120, -8.422e-7, -4.858e-7, 3.564e-7
-0.121, -8.392e-7, -4.828e-7, 3.564e-7
-0.122, -8.361e-7, -4.797e-7, 3.564e-7
-0.123, -8.392e-7, -4.828e-7, 3.564e-7
-0.124, -8.361e-7, -4.797e-7, 3.564e-7
-0.125, -8.331e-7, -4.797e-7, 3.533e-7
-0.126, -8.361e-7, -4.828e-7, 3.533e-7
-0.127, -8.361e-7, -4.797e-7, 3.564e-7
-0.128, -8.300e-7, -4.767e-7, 3.533e-7
-0.129, -8.331e-7, -4.797e-7, 3.533e-7
-0.130, -8.300e-7, -4.767e-7, 3.533e-7
-0.131, -8.300e-7, -4.767e-7, 3.533e-7
-0.132, -8.331e-7, -4.797e-7, 3.533e-7
-0.133, -8.300e-7, -4.767e-7, 3.533e-7
-0.134, -8.300e-7, -4.767e-7, 3.533e-7
-0.135, -8.300e-7, -4.767e-7, 3.533e-7
-0.136, -8.300e-7, -4.767e-7, 3.533e-7
-0.137, -8.239e-7, -4.736e-7, 3.503e-7
-0.138, -8.270e-7, -4.767e-7, 3.503e-7
-0.139, -8.270e-7, -4.736e-7, 3.533e-7
-0.140, -8.270e-7, -4.767e-7, 3.503e-7
-0.141, -8.270e-7, -4.767e-7, 3.503e-7
-0.142, -8.270e-7, -4.736e-7, 3.533e-7
-0.143, -8.239e-7, -4.736e-7, 3.503e-7
-0.144, -8.239e-7, -4.736e-7, 3.503e-7
-0.145, -8.239e-7, -4.736e-7, 3.503e-7
-0.146, -8.209e-7, -4.706e-7, 3.503e-7
-0.147, -8.239e-7, -4.736e-7, 3.503e-7
-0.148, -8.209e-7, -4.706e-7, 3.503e-7
-0.149, -8.209e-7, -4.706e-7, 3.503e-7
-0.150, -8.209e-7, -4.706e-7, 3.503e-7
-0.151, -8.209e-7, -4.736e-7, 3.472e-7
-0.152, -8.178e-7, -4.706e-7, 3.472e-7
-0.153, -8.148e-7, -4.675e-7, 3.472e-7
-0.154, -8.178e-7, -4.706e-7, 3.472e-7
-0.155, -8.178e-7, -4.706e-7, 3.472e-7
-0.156, -8.148e-7, -4.675e-7, 3.472e-7
-0.157, -8.148e-7, -4.675e-7, 3.472e-7
-0.158, -8.148e-7, -4.675e-7, 3.472e-7
-0.159, -8.148e-7, -4.675e-7, 3.472e-7
-0.160, -8.148e-7, -4.675e-7, 3.472e-7
-0.161, -8.148e-7, -4.675e-7, 3.472e-7
-0.162, -8.178e-7, -4.706e-7, 3.472e-7
-0.163, -8.148e-7, -4.675e-7, 3.472e-7
-0.164, -8.117e-7, -4.645e-7, 3.472e-7
-0.165, -8.148e-7, -4.675e-7, 3.472e-7
-0.166, -8.117e-7, -4.675e-7, 3.442e-7
-0.167, -8.117e-7, -4.645e-7, 3.472e-7
-0.168, -8.117e-7, -4.645e-7, 3.472e-7
-0.169, -8.117e-7, -4.645e-7, 3.472e-7
-0.170, -8.117e-7, -4.645e-7, 3.472e-7
-0.171, -8.117e-7, -4.645e-7, 3.472e-7
-0.172, -8.117e-7, -4.645e-7, 3.472e-7
-0.173, -8.087e-7, -4.614e-7, 3.472e-7
-0.174, -8.087e-7, -4.645e-7, 3.442e-7
-0.175, -8.056e-7, -4.614e-7, 3.442e-7
-0.176, -8.056e-7, -4.614e-7, 3.442e-7
-0.177, -8.056e-7, -4.614e-7, 3.442e-7
-0.178, -8.087e-7, -4.645e-7, 3.442e-7
-0.179, -8.026e-7, -4.584e-7, 3.442e-7
-0.180, -8.056e-7, -4.614e-7, 3.442e-7
-0.181, -8.056e-7, -4.614e-7, 3.442e-7
-0.182, -8.026e-7, -4.584e-7, 3.442e-7
-0.183, -8.026e-7, -4.584e-7, 3.442e-7
-0.184, -8.026e-7, -4.614e-7, 3.411e-7
-0.185, -8.026e-7, -4.584e-7, 3.442e-7
-0.186, -8.026e-7, -4.584e-7, 3.442e-7
-0.187, -8.026e-7, -4.584e-7, 3.442e-7
-0.188, -7.995e-7, -4.553e-7, 3.442e-7
-0.189, -7.995e-7, -4.584e-7, 3.411e-7
-0.190, -7.995e-7, -4.553e-7, 3.442e-7
-0.191, -7.965e-7, -4.553e-7, 3.411e-7
-0.192, -7.965e-7, -4.553e-7, 3.411e-7
-0.193, -7.995e-7, -4.553e-7, 3.442e-7
-0.194, -7.934e-7, -4.523e-7, 3.411e-7
-0.195, -7.965e-7, -4.553e-7, 3.411e-7
-0.196, -7.995e-7, -4.584e-7, 3.411e-7
-0.197, -7.934e-7, -4.523e-7, 3.411e-7
-0.198, -7.934e-7, -4.523e-7, 3.411e-7
-0.199, -8.026e-7, -4.614e-7, 3.411e-7
-0.200, -7.904e-7, -4.492e-7, 3.411e-7
-0.201, -7.934e-7, -4.523e-7, 3.411e-7
-0.202, -7.934e-7, -4.523e-7, 3.411e-7
-0.203, -7.873e-7, -4.492e-7, 3.381e-7
-0.204, -7.904e-7, -4.492e-7, 3.411e-7
-0.205, -7.904e-7, -4.492e-7, 3.411e-7
-0.206, -7.904e-7, -4.523e-7, 3.381e-7
-0.207, -7.904e-7, -4.492e-7, 3.411e-7
-0.208, -7.873e-7, -4.492e-7, 3.381e-7
-0.209, -7.843e-7, -4.462e-7, 3.381e-7
-0.210, -7.843e-7, -4.462e-7, 3.381e-7
-0.211, -7.812e-7, -4.462e-7, 3.350e-7
-0.212, -7.843e-7, -4.462e-7, 3.381e-7
-0.213, -7.843e-7, -4.462e-7, 3.381e-7
-0.214, -7.843e-7, -4.462e-7, 3.381e-7
-0.215, -7.843e-7, -4.462e-7, 3.381e-7
-0.216, -7.812e-7, -4.431e-7, 3.381e-7
-0.217, -7.843e-7, -4.462e-7, 3.381e-7
-0.218, -7.812e-7, -4.431e-7, 3.381e-7
-0.219, -7.812e-7, -4.431e-7, 3.381e-7
-0.220, -7.812e-7, -4.462e-7, 3.350e-7
-0.221, -7.812e-7, -4.431e-7, 3.381e-7
-0.222, -7.751e-7, -4.401e-7, 3.350e-7
-0.223, -7.782e-7, -4.431e-7, 3.350e-7
-0.224, -7.782e-7, -4.401e-7, 3.381e-7
-0.225, -7.751e-7, -4.401e-7, 3.350e-7
-0.226, -7.782e-7, -4.431e-7, 3.350e-7
-0.227, -7.782e-7, -4.401e-7, 3.381e-7
-0.228, -7.751e-7, -4.401e-7, 3.350e-7
-0.229, -7.751e-7, -4.401e-7, 3.350e-7
-0.230, -7.751e-7, -4.401e-7, 3.350e-7
-0.231, -7.751e-7, -4.401e-7, 3.350e-7
-0.232, -7.751e-7, -4.401e-7, 3.350e-7
-0.233, -7.721e-7, -4.370e-7, 3.350e-7
-0.234, -7.690e-7, -4.370e-7, 3.320e-7
-0.235, -7.751e-7, -4.401e-7, 3.350e-7
-0.236, -7.690e-7, -4.340e-7, 3.350e-7
-0.237, -7.659e-7, -4.340e-7, 3.320e-7
-0.238, -7.721e-7, -4.370e-7, 3.350e-7
-0.239, -7.721e-7, -4.401e-7, 3.320e-7
-0.240, -7.659e-7, -4.340e-7, 3.320e-7
-0.241, -7.721e-7, -4.370e-7, 3.350e-7
-0.242, -7.690e-7, -4.340e-7, 3.350e-7
-0.243, -7.721e-7, -4.370e-7, 3.350e-7
-0.244, -7.751e-7, -4.401e-7, 3.350e-7
-0.245, -7.659e-7, -4.340e-7, 3.320e-7
-0.246, -7.659e-7, -4.340e-7, 3.320e-7
-0.247, -7.659e-7, -4.340e-7, 3.320e-7
-0.248, -7.690e-7, -4.340e-7, 3.350e-7
-0.249, -7.629e-7, -4.309e-7, 3.320e-7
-0.250, -7.659e-7, -4.309e-7, 3.350e-7
-0.251, -7.690e-7, -4.340e-7, 3.350e-7
-0.252, -7.629e-7, -4.309e-7, 3.320e-7
-0.253, -7.629e-7, -4.309e-7, 3.320e-7
-0.254, -7.629e-7, -4.309e-7, 3.320e-7
-0.255, -7.659e-7, -4.340e-7, 3.320e-7
-0.256, -7.629e-7, -4.309e-7, 3.320e-7
-0.257, -7.629e-7, -4.309e-7, 3.320e-7
-0.258, -7.598e-7, -4.279e-7, 3.320e-7
-0.259, -7.598e-7, -4.279e-7, 3.320e-7
-0.260, -7.598e-7, -4.279e-7, 3.320e-7
-0.261, -7.598e-7, -4.279e-7, 3.320e-7
-0.262, -7.598e-7, -4.279e-7, 3.320e-7
-0.263, -7.598e-7, -4.309e-7, 3.289e-7
-0.264, -7.598e-7, -4.279e-7, 3.320e-7
-0.265, -7.568e-7, -4.279e-7, 3.289e-7
-0.266, -7.568e-7, -4.279e-7, 3.289e-7
-0.267, -7.568e-7, -4.248e-7, 3.320e-7
-0.268, -7.568e-7, -4.279e-7, 3.289e-7
-0.269, -7.568e-7, -4.279e-7, 3.289e-7
-0.270, -7.537e-7, -4.248e-7, 3.289e-7
-0.271, -7.507e-7, -4.248e-7, 3.259e-7
-0.272, -7.537e-7, -4.248e-7, 3.289e-7
-0.273, -7.568e-7, -4.248e-7, 3.320e-7
-0.274, -7.568e-7, -4.279e-7, 3.289e-7
-0.275, -7.537e-7, -4.248e-7, 3.289e-7
-0.276, -7.476e-7, -4.218e-7, 3.259e-7
-0.277, -7.507e-7, -4.248e-7, 3.259e-7
-0.278, -7.537e-7, -4.248e-7, 3.289e-7
-0.279, -7.507e-7, -4.218e-7, 3.289e-7
-0.280, -7.507e-7, -4.218e-7, 3.289e-7
-0.281, -7.507e-7, -4.218e-7, 3.289e-7
-0.282, -7.476e-7, -4.218e-7, 3.259e-7
-0.283, -7.476e-7, -4.218e-7, 3.259e-7
-0.284, -7.568e-7, -4.279e-7, 3.289e-7
-0.285, -7.476e-7, -4.218e-7, 3.259e-7
-0.286, -7.507e-7, -4.248e-7, 3.259e-7
-0.287, -7.446e-7, -4.187e-7, 3.259e-7
-0.288, -7.446e-7, -4.187e-7, 3.259e-7
-0.289, -7.446e-7, -4.218e-7, 3.228e-7
-0.290, -7.446e-7, -4.187e-7, 3.259e-7
-0.291, -7.476e-7, -4.248e-7, 3.228e-7
-0.292, -7.446e-7, -4.187e-7, 3.259e-7
-0.293, -7.415e-7, -4.157e-7, 3.259e-7
-0.294, -7.415e-7, -4.187e-7, 3.228e-7
-0.295, -7.385e-7, -4.157e-7, 3.228e-7
-0.296, -7.385e-7, -4.157e-7, 3.228e-7
-0.297, -7.385e-7, -4.157e-7, 3.228e-7
-0.298, -7.385e-7, -4.157e-7, 3.228e-7
-0.299, -7.385e-7, -4.157e-7, 3.228e-7
-0.300, -7.354e-7, -4.157e-7, 3.198e-7
-0.301, -7.354e-7, -4.157e-7, 3.198e-7
-0.302, -7.385e-7, -4.157e-7, 3.228e-7
-0.303, -7.324e-7, -4.126e-7, 3.198e-7
-0.304, -7.354e-7, -4.157e-7, 3.198e-7
-0.305, -7.354e-7, -4.157e-7, 3.198e-7
-0.306, -7.354e-7, -4.157e-7, 3.198e-7
-0.307, -7.324e-7, -4.126e-7, 3.198e-7
-0.308, -7.415e-7, -4.218e-7, 3.198e-7
-0.309, -7.324e-7, -4.126e-7, 3.198e-7
-0.310, -7.324e-7, -4.126e-7, 3.198e-7
-0.311, -7.324e-7, -4.126e-7, 3.198e-7
-0.312, -7.324e-7, -4.126e-7, 3.198e-7
-0.313, -7.293e-7, -4.126e-7, 3.167e-7
-0.314, -7.293e-7, -4.126e-7, 3.167e-7
-0.315, -7.263e-7, -4.096e-7, 3.167e-7
-0.316, -7.263e-7, -4.096e-7, 3.167e-7
-0.317, -7.263e-7, -4.096e-7, 3.167e-7
-0.318, -7.293e-7, -4.126e-7, 3.167e-7
-0.319, -7.324e-7, -4.157e-7, 3.167e-7
-0.320, -7.293e-7, -4.157e-7, 3.137e-7
-0.321, -7.263e-7, -4.096e-7, 3.167e-7
-0.322, -7.263e-7, -4.096e-7, 3.167e-7
-0.323, -7.263e-7, -4.126e-7, 3.137e-7
-0.324, -7.293e-7, -4.126e-7, 3.167e-7
-0.325, -7.263e-7, -4.096e-7, 3.167e-7
-0.326, -7.232e-7, -4.096e-7, 3.137e-7
-0.327, -7.232e-7, -4.096e-7, 3.137e-7
-0.328, -7.232e-7, -4.096e-7, 3.137e-7
-0.329, -7.232e-7, -4.096e-7, 3.137e-7
-0.330, -7.232e-7, -4.096e-7, 3.137e-7
-0.331, -7.232e-7, -4.096e-7, 3.137e-7
-0.332, -7.263e-7, -4.126e-7, 3.137e-7
-0.333, -7.232e-7, -4.096e-7, 3.137e-7
-0.334, -7.202e-7, -4.065e-7, 3.137e-7
-0.335, -7.232e-7, -4.096e-7, 3.137e-7
-0.336, -7.232e-7, -4.096e-7, 3.137e-7
-0.337, -7.202e-7, -4.096e-7, 3.106e-7
-0.338, -7.232e-7, -4.096e-7, 3.137e-7
-0.339, -7.202e-7, -4.065e-7, 3.137e-7
-0.340, -7.171e-7, -4.065e-7, 3.106e-7
-0.341, -7.232e-7, -4.096e-7, 3.137e-7
-0.342, -7.171e-7, -4.065e-7, 3.106e-7
-0.343, -7.202e-7, -4.096e-7, 3.106e-7
-0.344, -7.232e-7, -4.096e-7, 3.137e-7
-0.345, -7.171e-7, -4.065e-7, 3.106e-7
-0.346, -7.232e-7, -4.126e-7, 3.106e-7
-0.347, -7.202e-7, -4.096e-7, 3.106e-7
-0.348, -7.171e-7, -4.065e-7, 3.106e-7
-0.349, -7.202e-7, -4.096e-7, 3.106e-7
-0.350, -7.202e-7, -4.096e-7, 3.106e-7
-0.351, -7.202e-7, -4.096e-7, 3.106e-7
-0.352, -7.171e-7, -4.065e-7, 3.106e-7
-0.353, -7.202e-7, -4.096e-7, 3.106e-7
-0.354, -7.171e-7, -4.065e-7, 3.106e-7
-0.355, -7.171e-7, -4.065e-7, 3.106e-7
-0.356, -7.171e-7, -4.065e-7, 3.106e-7
-0.357, -7.171e-7, -4.065e-7, 3.106e-7
-0.358, -7.171e-7, -4.096e-7, 3.076e-7
-0.359, -7.171e-7, -4.096e-7, 3.076e-7
-0.360, -7.171e-7, -4.096e-7, 3.076e-7
-0.361, -7.202e-7, -4.096e-7, 3.106e-7
-0.362, -7.171e-7, -4.096e-7, 3.076e-7
-0.363, -7.171e-7, -4.096e-7, 3.076e-7
-0.364, -7.141e-7, -4.065e-7, 3.076e-7
-0.365, -7.141e-7, -4.065e-7, 3.076e-7
-0.366, -7.202e-7, -4.096e-7, 3.106e-7
-0.367, -7.141e-7, -4.065e-7, 3.076e-7
-0.368, -7.202e-7, -4.126e-7, 3.076e-7
-0.369, -7.171e-7, -4.096e-7, 3.076e-7
-0.370, -7.171e-7, -4.096e-7, 3.076e-7
-0.371, -7.171e-7, -4.096e-7, 3.076e-7
-0.372, -7.171e-7, -4.096e-7, 3.076e-7
-0.373, -7.171e-7, -4.096e-7, 3.076e-7
-0.374, -7.171e-7, -4.096e-7, 3.076e-7
-0.375, -7.141e-7, -4.096e-7, 3.045e-7
-0.376, -7.141e-7, -4.065e-7, 3.076e-7
-0.377, -7.141e-7, -4.096e-7, 3.045e-7
-0.378, -7.171e-7, -4.096e-7, 3.076e-7
-0.379, -7.171e-7, -4.096e-7, 3.076e-7
-0.380, -7.141e-7, -4.096e-7, 3.045e-7
-0.381, -7.171e-7, -4.096e-7, 3.076e-7
-0.382, -7.141e-7, -4.096e-7, 3.045e-7
-0.383, -7.171e-7, -4.126e-7, 3.045e-7
-0.384, -7.141e-7, -4.096e-7, 3.045e-7
-0.385, -7.141e-7, -4.096e-7, 3.045e-7
-0.386, -7.110e-7, -4.096e-7, 3.015e-7
-0.387, -7.141e-7, -4.096e-7, 3.045e-7
-0.388, -7.141e-7, -4.096e-7, 3.045e-7
-0.389, -7.110e-7, -4.096e-7, 3.015e-7
-0.390, -7.110e-7, -4.065e-7, 3.045e-7
-0.391, -7.141e-7, -4.096e-7, 3.045e-7
-0.392, -7.141e-7, -4.096e-7, 3.045e-7
-0.393, -7.141e-7, -4.096e-7, 3.045e-7
-0.394, -7.110e-7, -4.096e-7, 3.015e-7
-0.395, -7.141e-7, -4.126e-7, 3.015e-7
-0.396, -7.110e-7, -4.096e-7, 3.015e-7
-0.397, -7.141e-7, -4.126e-7, 3.015e-7
-0.398, -7.110e-7, -4.096e-7, 3.015e-7
-0.399, -7.141e-7, -4.126e-7, 3.015e-7
-0.400, -7.141e-7, -4.126e-7, 3.015e-7
