Feb. 28, 2018   13:48:16
Square Wave Voltammetry
File: c:\users\electrochemist\desktop\2018\28022018_unbuffered_9,2\34_e2_9,2_0118_ph7,08_5.txt
Data Source:  Experiment
Instrument Model:  CHI1040A
Header: 
Note: 

Init E (V) = 0.5
Final E (V) = -0.05
Incr E (V) = 0.001
Amplitude (V) = 0.1
Frequency (Hz) = 150
Quiet Time (sec) = 0
Sensitivity (A/V) = 1e-6

Difference:

Forward:

Reverse:

Potential/V, Diff(i/A), For(i/A), Rev(i/A)

0.499, -4.925e-7, -1.243e-7, 3.683e-7
0.498, -6.002e-7, -2.817e-7, 3.185e-7
0.497, -5.911e-7, -2.909e-7, 3.002e-7
0.496, -5.865e-7, -2.961e-7, 2.905e-7
0.495, -5.810e-7, -2.985e-7, 2.825e-7
0.494, -5.777e-7, -3.009e-7, 2.767e-7
0.493, -5.755e-7, -3.034e-7, 2.722e-7
0.492, -5.725e-7, -3.037e-7, 2.688e-7
0.491, -5.700e-7, -3.043e-7, 2.657e-7
0.490, -5.688e-7, -3.064e-7, 2.624e-7
0.489, -5.691e-7, -3.080e-7, 2.612e-7
0.488, -5.645e-7, -3.064e-7, 2.581e-7
0.487, -5.667e-7, -3.086e-7, 2.581e-7
0.486, -5.648e-7, -3.086e-7, 2.563e-7
0.485, -5.642e-7, -3.104e-7, 2.538e-7
0.484, -5.633e-7, -3.101e-7, 2.532e-7
0.483, -5.624e-7, -3.113e-7, 2.511e-7
0.482, -5.621e-7, -3.113e-7, 2.508e-7
0.481, -5.609e-7, -3.122e-7, 2.487e-7
0.480, -5.597e-7, -3.116e-7, 2.480e-7
0.479, -5.603e-7, -3.128e-7, 2.474e-7
0.478, -5.603e-7, -3.125e-7, 2.477e-7
0.477, -5.591e-7, -3.134e-7, 2.456e-7
0.476, -5.584e-7, -3.141e-7, 2.444e-7
0.475, -5.587e-7, -3.153e-7, 2.435e-7
0.474, -5.591e-7, -3.141e-7, 2.450e-7
0.473, -5.594e-7, -3.150e-7, 2.444e-7
0.472, -5.594e-7, -3.156e-7, 2.438e-7
0.471, -5.581e-7, -3.159e-7, 2.422e-7
0.470, -5.597e-7, -3.177e-7, 2.419e-7
0.469, -5.591e-7, -3.177e-7, 2.413e-7
0.468, -5.572e-7, -3.156e-7, 2.416e-7
0.467, -5.591e-7, -3.183e-7, 2.407e-7
0.466, -5.609e-7, -3.196e-7, 2.413e-7
0.465, -5.600e-7, -3.186e-7, 2.413e-7
0.464, -5.603e-7, -3.205e-7, 2.398e-7
0.463, -5.584e-7, -3.202e-7, 2.383e-7
0.462, -5.581e-7, -3.199e-7, 2.383e-7
0.461, -5.591e-7, -3.208e-7, 2.383e-7
0.460, -5.581e-7, -3.208e-7, 2.374e-7
0.459, -5.603e-7, -3.211e-7, 2.392e-7
0.458, -5.624e-7, -3.238e-7, 2.386e-7
0.457, -5.594e-7, -3.208e-7, 2.386e-7
0.456, -5.624e-7, -3.232e-7, 2.392e-7
0.455, -5.600e-7, -3.235e-7, 2.364e-7
0.454, -5.606e-7, -3.241e-7, 2.364e-7
0.453, -5.606e-7, -3.238e-7, 2.368e-7
0.452, -5.615e-7, -3.244e-7, 2.371e-7
0.451, -5.624e-7, -3.266e-7, 2.358e-7
0.450, -5.627e-7, -3.247e-7, 2.380e-7
0.449, -5.609e-7, -3.250e-7, 2.358e-7
0.448, -5.624e-7, -3.269e-7, 2.355e-7
0.447, -5.639e-7, -3.269e-7, 2.371e-7
0.446, -5.624e-7, -3.272e-7, 2.352e-7
0.445, -5.636e-7, -3.278e-7, 2.358e-7
0.444, -5.639e-7, -3.281e-7, 2.358e-7
0.443, -5.630e-7, -3.290e-7, 2.340e-7
0.442, -5.652e-7, -3.296e-7, 2.355e-7
0.441, -5.630e-7, -3.275e-7, 2.355e-7
0.440, -5.633e-7, -3.293e-7, 2.340e-7
0.439, -5.658e-7, -3.308e-7, 2.349e-7
0.438, -5.648e-7, -3.299e-7, 2.349e-7
0.437, -5.664e-7, -3.318e-7, 2.346e-7
0.436, -5.655e-7, -3.318e-7, 2.337e-7
0.435, -5.667e-7, -3.315e-7, 2.352e-7
0.434, -5.661e-7, -3.333e-7, 2.328e-7
0.433, -5.661e-7, -3.342e-7, 2.319e-7
0.432, -5.664e-7, -3.324e-7, 2.340e-7
0.431, -5.682e-7, -3.342e-7, 2.340e-7
0.430, -5.694e-7, -3.351e-7, 2.343e-7
0.429, -5.688e-7, -3.348e-7, 2.340e-7
0.428, -5.710e-7, -3.366e-7, 2.343e-7
0.427, -5.697e-7, -3.357e-7, 2.340e-7
0.426, -5.676e-7, -3.348e-7, 2.328e-7
0.425, -5.713e-7, -3.373e-7, 2.340e-7
0.424, -5.706e-7, -3.376e-7, 2.331e-7
0.423, -5.722e-7, -3.385e-7, 2.337e-7
0.422, -5.725e-7, -3.397e-7, 2.328e-7
0.421, -5.737e-7, -3.391e-7, 2.346e-7
0.420, -5.716e-7, -3.391e-7, 2.325e-7
0.419, -5.731e-7, -3.394e-7, 2.337e-7
0.418, -5.740e-7, -3.400e-7, 2.340e-7
0.417, -5.740e-7, -3.403e-7, 2.337e-7
0.416, -5.755e-7, -3.427e-7, 2.328e-7
0.415, -5.749e-7, -3.415e-7, 2.334e-7
0.414, -5.761e-7, -3.418e-7, 2.343e-7
0.413, -5.771e-7, -3.434e-7, 2.337e-7
0.412, -5.761e-7, -3.424e-7, 2.337e-7
0.411, -5.780e-7, -3.437e-7, 2.343e-7
0.410, -5.767e-7, -3.437e-7, 2.331e-7
0.409, -5.783e-7, -3.449e-7, 2.334e-7
0.408, -5.780e-7, -3.449e-7, 2.331e-7
0.407, -5.813e-7, -3.467e-7, 2.346e-7
0.406, -5.795e-7, -3.461e-7, 2.334e-7
0.405, -5.807e-7, -3.461e-7, 2.346e-7
0.404, -5.813e-7, -3.482e-7, 2.331e-7
0.403, -5.819e-7, -3.482e-7, 2.337e-7
0.402, -5.822e-7, -3.485e-7, 2.337e-7
0.401, -5.813e-7, -3.492e-7, 2.322e-7
0.400, -5.838e-7, -3.492e-7, 2.346e-7
0.399, -5.844e-7, -3.498e-7, 2.346e-7
0.398, -5.859e-7, -3.522e-7, 2.337e-7
0.397, -5.856e-7, -3.510e-7, 2.346e-7
0.396, -5.856e-7, -3.522e-7, 2.334e-7
0.395, -5.871e-7, -3.531e-7, 2.340e-7
0.394, -5.871e-7, -3.519e-7, 2.352e-7
0.393, -5.874e-7, -3.537e-7, 2.337e-7
0.392, -5.887e-7, -3.553e-7, 2.334e-7
0.391, -5.896e-7, -3.546e-7, 2.349e-7
0.390, -5.896e-7, -3.559e-7, 2.337e-7
0.389, -5.911e-7, -3.565e-7, 2.346e-7
0.388, -5.911e-7, -3.559e-7, 2.352e-7
0.387, -5.917e-7, -3.571e-7, 2.346e-7
0.386, -5.935e-7, -3.580e-7, 2.355e-7
0.385, -5.938e-7, -3.568e-7, 2.371e-7
0.384, -5.938e-7, -3.589e-7, 2.349e-7
0.383, -5.948e-7, -3.595e-7, 2.352e-7
0.382, -5.944e-7, -3.589e-7, 2.355e-7
0.381, -5.957e-7, -3.607e-7, 2.349e-7
0.380, -5.972e-7, -3.620e-7, 2.352e-7
0.379, -5.975e-7, -3.614e-7, 2.361e-7
0.378, -5.987e-7, -3.623e-7, 2.364e-7
0.377, -5.993e-7, -3.632e-7, 2.361e-7
0.376, -6.009e-7, -3.632e-7, 2.377e-7
0.375, -6.006e-7, -3.647e-7, 2.358e-7
0.374, -6.021e-7, -3.656e-7, 2.364e-7
0.373, -6.018e-7, -3.644e-7, 2.374e-7
0.372, -6.006e-7, -3.659e-7, 2.346e-7
0.371, -6.042e-7, -3.675e-7, 2.368e-7
0.370, -6.036e-7, -3.659e-7, 2.377e-7
0.369, -6.039e-7, -3.675e-7, 2.364e-7
0.368, -6.060e-7, -3.693e-7, 2.368e-7
0.367, -6.051e-7, -3.678e-7, 2.374e-7
0.366, -6.060e-7, -3.696e-7, 2.364e-7
0.365, -6.082e-7, -3.705e-7, 2.377e-7
0.364, -6.106e-7, -3.711e-7, 2.395e-7
0.363, -6.082e-7, -3.717e-7, 2.364e-7
0.362, -6.121e-7, -3.726e-7, 2.395e-7
0.361, -6.100e-7, -3.714e-7, 2.386e-7
0.360, -6.109e-7, -3.745e-7, 2.364e-7
0.359, -6.137e-7, -3.742e-7, 2.395e-7
0.358, -6.137e-7, -3.739e-7, 2.398e-7
0.357, -6.149e-7, -3.760e-7, 2.389e-7
0.356, -6.173e-7, -3.772e-7, 2.401e-7
0.355, -6.173e-7, -3.760e-7, 2.413e-7
0.354, -6.161e-7, -3.775e-7, 2.386e-7
0.353, -6.207e-7, -3.784e-7, 2.422e-7
0.352, -6.189e-7, -3.775e-7, 2.413e-7
0.351, -6.204e-7, -3.797e-7, 2.407e-7
0.350, -6.210e-7, -3.803e-7, 2.407e-7
0.349, -6.225e-7, -3.809e-7, 2.416e-7
0.348, -6.225e-7, -3.818e-7, 2.407e-7
0.347, -6.247e-7, -3.830e-7, 2.416e-7
0.346, -6.237e-7, -3.815e-7, 2.422e-7
0.345, -6.240e-7, -3.836e-7, 2.404e-7
0.344, -6.283e-7, -3.852e-7, 2.432e-7
0.343, -6.274e-7, -3.849e-7, 2.425e-7
0.342, -6.292e-7, -3.864e-7, 2.429e-7
0.341, -6.305e-7, -3.867e-7, 2.438e-7
0.340, -6.305e-7, -3.873e-7, 2.432e-7
0.339, -6.317e-7, -3.876e-7, 2.441e-7
0.338, -6.311e-7, -3.882e-7, 2.429e-7
0.337, -6.326e-7, -3.882e-7, 2.444e-7
0.336, -6.341e-7, -3.907e-7, 2.435e-7
0.335, -6.353e-7, -3.919e-7, 2.435e-7
0.334, -6.350e-7, -3.900e-7, 2.450e-7
0.333, -6.360e-7, -3.919e-7, 2.441e-7
0.332, -6.390e-7, -3.937e-7, 2.453e-7
0.331, -6.390e-7, -3.940e-7, 2.450e-7
0.330, -6.405e-7, -3.949e-7, 2.456e-7
0.329, -6.421e-7, -3.949e-7, 2.471e-7
0.328, -6.421e-7, -3.955e-7, 2.465e-7
0.327, -6.430e-7, -3.968e-7, 2.462e-7
0.326, -6.442e-7, -3.961e-7, 2.480e-7
0.325, -6.436e-7, -3.971e-7, 2.465e-7
0.324, -6.445e-7, -3.983e-7, 2.462e-7
0.323, -6.463e-7, -3.989e-7, 2.474e-7
0.322, -6.457e-7, -3.977e-7, 2.480e-7
0.321, -6.488e-7, -4.013e-7, 2.474e-7
0.320, -6.485e-7, -4.010e-7, 2.474e-7
0.319, -6.506e-7, -4.023e-7, 2.483e-7
0.318, -6.521e-7, -4.029e-7, 2.493e-7
0.317, -6.546e-7, -4.041e-7, 2.505e-7
0.316, -6.536e-7, -4.050e-7, 2.487e-7
0.315, -6.549e-7, -4.059e-7, 2.490e-7
0.314, -6.567e-7, -4.068e-7, 2.499e-7
0.313, -6.570e-7, -4.071e-7, 2.499e-7
0.312, -6.579e-7, -4.080e-7, 2.499e-7
0.311, -6.601e-7, -4.093e-7, 2.508e-7
0.310, -6.594e-7, -4.087e-7, 2.508e-7
0.309, -6.610e-7, -4.105e-7, 2.505e-7
0.308, -6.634e-7, -4.117e-7, 2.517e-7
0.307, -6.622e-7, -4.111e-7, 2.511e-7
0.306, -6.625e-7, -4.114e-7, 2.511e-7
0.305, -6.665e-7, -4.135e-7, 2.529e-7
0.304, -6.668e-7, -4.142e-7, 2.526e-7
0.303, -6.668e-7, -4.138e-7, 2.529e-7
0.302, -6.674e-7, -4.151e-7, 2.523e-7
0.301, -6.680e-7, -4.151e-7, 2.529e-7
0.300, -6.695e-7, -4.166e-7, 2.529e-7
0.299, -6.713e-7, -4.175e-7, 2.538e-7
0.298, -6.726e-7, -4.181e-7, 2.545e-7
0.297, -6.756e-7, -4.203e-7, 2.554e-7
0.296, -6.756e-7, -4.206e-7, 2.551e-7
0.295, -6.778e-7, -4.224e-7, 2.554e-7
0.294, -6.787e-7, -4.221e-7, 2.566e-7
0.293, -6.790e-7, -4.224e-7, 2.566e-7
0.292, -6.790e-7, -4.227e-7, 2.563e-7
0.291, -6.811e-7, -4.242e-7, 2.569e-7
0.290, -6.811e-7, -4.245e-7, 2.566e-7
0.289, -6.842e-7, -4.257e-7, 2.584e-7
0.288, -6.848e-7, -4.270e-7, 2.578e-7
0.287, -6.866e-7, -4.285e-7, 2.581e-7
0.286, -6.875e-7, -4.285e-7, 2.590e-7
0.285, -6.897e-7, -4.300e-7, 2.596e-7
0.284, -6.894e-7, -4.294e-7, 2.599e-7
0.283, -6.903e-7, -4.303e-7, 2.599e-7
0.282, -6.906e-7, -4.315e-7, 2.590e-7
0.281, -6.930e-7, -4.325e-7, 2.606e-7
0.280, -6.909e-7, -4.322e-7, 2.587e-7
0.279, -6.948e-7, -4.337e-7, 2.612e-7
0.278, -6.970e-7, -4.352e-7, 2.618e-7
0.277, -6.982e-7, -4.367e-7, 2.615e-7
0.276, -6.985e-7, -4.361e-7, 2.624e-7
0.275, -7.003e-7, -4.376e-7, 2.627e-7
0.274, -7.028e-7, -4.395e-7, 2.633e-7
0.273, -7.028e-7, -4.401e-7, 2.627e-7
0.272, -7.034e-7, -4.398e-7, 2.636e-7
0.271, -7.043e-7, -4.419e-7, 2.624e-7
0.270, -7.067e-7, -4.422e-7, 2.645e-7
0.269, -7.080e-7, -4.425e-7, 2.654e-7
0.268, -7.098e-7, -4.444e-7, 2.654e-7
0.267, -7.113e-7, -4.444e-7, 2.670e-7
0.266, -7.128e-7, -4.459e-7, 2.670e-7
0.265, -7.128e-7, -4.471e-7, 2.657e-7
0.264, -7.135e-7, -4.462e-7, 2.673e-7
0.263, -7.156e-7, -4.486e-7, 2.670e-7
0.262, -7.162e-7, -4.489e-7, 2.673e-7
0.261, -7.171e-7, -4.492e-7, 2.679e-7
0.260, -7.196e-7, -4.514e-7, 2.682e-7
0.259, -7.205e-7, -4.523e-7, 2.682e-7
0.258, -7.205e-7, -4.508e-7, 2.697e-7
0.257, -7.223e-7, -4.529e-7, 2.694e-7
0.256, -7.241e-7, -4.547e-7, 2.694e-7
0.255, -7.248e-7, -4.541e-7, 2.706e-7
0.254, -7.266e-7, -4.557e-7, 2.709e-7
0.253, -7.287e-7, -4.572e-7, 2.715e-7
0.252, -7.305e-7, -4.584e-7, 2.721e-7
0.251, -7.312e-7, -4.581e-7, 2.731e-7
0.250, -7.324e-7, -4.605e-7, 2.718e-7
0.249, -7.351e-7, -4.611e-7, 2.740e-7
0.248, -7.351e-7, -4.621e-7, 2.731e-7
0.247, -7.370e-7, -4.636e-7, 2.734e-7
0.246, -7.373e-7, -4.636e-7, 2.737e-7
0.245, -7.394e-7, -4.645e-7, 2.749e-7
0.244, -7.409e-7, -4.672e-7, 2.737e-7
0.243, -7.428e-7, -4.660e-7, 2.767e-7
0.242, -7.434e-7, -4.672e-7, 2.761e-7
0.241, -7.443e-7, -4.685e-7, 2.758e-7
0.240, -7.473e-7, -4.700e-7, 2.773e-7
0.239, -7.473e-7, -4.706e-7, 2.767e-7
0.238, -7.486e-7, -4.700e-7, 2.786e-7
0.237, -7.510e-7, -4.721e-7, 2.789e-7
0.236, -7.513e-7, -4.721e-7, 2.792e-7
0.235, -7.534e-7, -4.746e-7, 2.789e-7
0.234, -7.550e-7, -4.752e-7, 2.798e-7
0.233, -7.547e-7, -4.749e-7, 2.798e-7
0.232, -7.583e-7, -4.776e-7, 2.807e-7
0.231, -7.595e-7, -4.773e-7, 2.822e-7
0.230, -7.608e-7, -4.779e-7, 2.828e-7
0.229, -7.620e-7, -4.795e-7, 2.825e-7
0.228, -7.635e-7, -4.807e-7, 2.828e-7
0.227, -7.641e-7, -4.819e-7, 2.822e-7
0.226, -7.663e-7, -4.828e-7, 2.834e-7
0.225, -7.675e-7, -4.831e-7, 2.844e-7
0.224, -7.681e-7, -4.846e-7, 2.834e-7
0.223, -7.711e-7, -4.856e-7, 2.856e-7
0.222, -7.742e-7, -4.871e-7, 2.871e-7
0.221, -7.717e-7, -4.862e-7, 2.856e-7
0.220, -7.754e-7, -4.880e-7, 2.874e-7
0.219, -7.760e-7, -4.883e-7, 2.877e-7
0.218, -7.766e-7, -4.895e-7, 2.871e-7
0.217, -7.788e-7, -4.911e-7, 2.877e-7
0.216, -7.797e-7, -4.914e-7, 2.883e-7
0.215, -7.812e-7, -4.920e-7, 2.892e-7
0.214, -7.836e-7, -4.938e-7, 2.898e-7
0.213, -7.824e-7, -4.923e-7, 2.902e-7
0.212, -7.873e-7, -4.956e-7, 2.917e-7
0.211, -7.876e-7, -4.962e-7, 2.914e-7
0.210, -7.879e-7, -4.956e-7, 2.923e-7
0.209, -7.894e-7, -4.978e-7, 2.917e-7
0.208, -7.913e-7, -4.987e-7, 2.926e-7
0.207, -7.925e-7, -4.996e-7, 2.929e-7
0.206, -7.934e-7, -4.996e-7, 2.938e-7
0.205, -7.977e-7, -5.026e-7, 2.950e-7
0.204, -7.968e-7, -5.014e-7, 2.953e-7
0.203, -7.977e-7, -5.033e-7, 2.944e-7
0.202, -8.004e-7, -5.030e-7, 2.975e-7
0.201, -8.010e-7, -5.042e-7, 2.969e-7
0.200, -8.020e-7, -5.057e-7, 2.963e-7
0.199, -8.047e-7, -5.066e-7, 2.981e-7
0.198, -8.056e-7, -5.069e-7, 2.987e-7
0.197, -8.065e-7, -5.097e-7, 2.969e-7
0.196, -8.087e-7, -5.088e-7, 2.999e-7
0.195, -8.099e-7, -5.100e-7, 2.999e-7
0.194, -8.114e-7, -5.115e-7, 2.999e-7
0.193, -8.129e-7, -5.118e-7, 3.011e-7
0.192, -8.136e-7, -5.112e-7, 3.024e-7
0.191, -8.145e-7, -5.142e-7, 3.002e-7
0.190, -8.160e-7, -5.142e-7, 3.017e-7
0.189, -8.190e-7, -5.145e-7, 3.045e-7
0.188, -8.193e-7, -5.167e-7, 3.027e-7
0.187, -8.224e-7, -5.176e-7, 3.048e-7
0.186, -8.215e-7, -5.170e-7, 3.045e-7
0.185, -8.258e-7, -5.194e-7, 3.063e-7
0.184, -8.267e-7, -5.197e-7, 3.069e-7
0.183, -8.270e-7, -5.197e-7, 3.072e-7
0.182, -8.276e-7, -5.216e-7, 3.060e-7
0.181, -8.309e-7, -5.234e-7, 3.075e-7
0.180, -8.309e-7, -5.213e-7, 3.097e-7
0.179, -8.331e-7, -5.252e-7, 3.079e-7
0.178, -8.343e-7, -5.237e-7, 3.106e-7
0.177, -8.346e-7, -5.240e-7, 3.106e-7
0.176, -8.337e-7, -5.252e-7, 3.085e-7
0.175, -8.380e-7, -5.271e-7, 3.109e-7
0.174, -8.404e-7, -5.274e-7, 3.130e-7
0.173, -8.383e-7, -5.277e-7, 3.106e-7
0.172, -8.428e-7, -5.298e-7, 3.130e-7
0.171, -8.422e-7, -5.295e-7, 3.127e-7
0.170, -8.450e-7, -5.316e-7, 3.133e-7
0.169, -8.471e-7, -5.313e-7, 3.158e-7
0.168, -8.468e-7, -5.319e-7, 3.149e-7
0.167, -8.486e-7, -5.335e-7, 3.152e-7
0.166, -8.505e-7, -5.335e-7, 3.170e-7
0.165, -8.499e-7, -5.332e-7, 3.167e-7
0.164, -8.532e-7, -5.362e-7, 3.170e-7
0.163, -8.544e-7, -5.362e-7, 3.182e-7
0.162, -8.520e-7, -5.344e-7, 3.176e-7
0.161, -8.547e-7, -5.365e-7, 3.182e-7
0.160, -8.581e-7, -5.377e-7, 3.204e-7
0.159, -8.575e-7, -5.384e-7, 3.191e-7
0.158, -8.602e-7, -5.402e-7, 3.201e-7
0.157, -8.624e-7, -5.393e-7, 3.231e-7
0.156, -8.599e-7, -5.387e-7, 3.213e-7
0.155, -8.624e-7, -5.420e-7, 3.204e-7
0.154, -8.639e-7, -5.411e-7, 3.228e-7
0.153, -8.648e-7, -5.417e-7, 3.231e-7
0.152, -8.657e-7, -5.432e-7, 3.225e-7
0.151, -8.682e-7, -5.438e-7, 3.243e-7
0.150, -8.691e-7, -5.442e-7, 3.249e-7
0.149, -8.718e-7, -5.469e-7, 3.249e-7
0.148, -8.712e-7, -5.451e-7, 3.262e-7
0.147, -8.743e-7, -5.463e-7, 3.280e-7
0.146, -8.731e-7, -5.466e-7, 3.265e-7
0.145, -8.758e-7, -5.475e-7, 3.283e-7
0.144, -8.764e-7, -5.478e-7, 3.286e-7
0.143, -8.786e-7, -5.499e-7, 3.286e-7
0.142, -8.773e-7, -5.475e-7, 3.298e-7
0.141, -8.789e-7, -5.487e-7, 3.301e-7
0.140, -8.816e-7, -5.512e-7, 3.304e-7
0.139, -8.828e-7, -5.515e-7, 3.313e-7
0.138, -8.831e-7, -5.518e-7, 3.313e-7
0.137, -8.856e-7, -5.530e-7, 3.326e-7
0.136, -8.859e-7, -5.530e-7, 3.329e-7
0.135, -8.880e-7, -5.536e-7, 3.344e-7
0.134, -8.895e-7, -5.551e-7, 3.344e-7
0.133, -8.908e-7, -5.554e-7, 3.353e-7
0.132, -8.886e-7, -5.542e-7, 3.344e-7
0.131, -8.908e-7, -5.557e-7, 3.350e-7
0.130, -8.914e-7, -5.554e-7, 3.359e-7
0.129, -8.923e-7, -5.557e-7, 3.365e-7
0.128, -8.944e-7, -5.573e-7, 3.371e-7
0.127, -8.956e-7, -5.564e-7, 3.393e-7
0.126, -8.953e-7, -5.582e-7, 3.371e-7
0.125, -8.978e-7, -5.585e-7, 3.393e-7
0.124, -8.990e-7, -5.588e-7, 3.402e-7
0.123, -8.984e-7, -5.591e-7, 3.393e-7
0.122, -9.008e-7, -5.594e-7, 3.414e-7
0.121, -8.996e-7, -5.597e-7, 3.399e-7
0.120, -9.020e-7, -5.603e-7, 3.417e-7
0.119, -9.033e-7, -5.612e-7, 3.420e-7
0.118, -9.036e-7, -5.606e-7, 3.429e-7
0.117, -9.063e-7, -5.625e-7, 3.439e-7
0.116, -9.066e-7, -5.628e-7, 3.439e-7
0.115, -9.066e-7, -5.622e-7, 3.445e-7
0.114, -9.075e-7, -5.622e-7, 3.454e-7
0.113, -9.094e-7, -5.631e-7, 3.463e-7
0.112, -9.106e-7, -5.643e-7, 3.463e-7
0.111, -9.103e-7, -5.631e-7, 3.472e-7
0.110, -9.127e-7, -5.643e-7, 3.484e-7
0.109, -9.124e-7, -5.640e-7, 3.484e-7
0.108, -9.136e-7, -5.649e-7, 3.487e-7
0.107, -9.139e-7, -5.652e-7, 3.487e-7
0.106, -9.149e-7, -5.658e-7, 3.490e-7
0.105, -9.158e-7, -5.664e-7, 3.494e-7
0.104, -9.170e-7, -5.664e-7, 3.506e-7
0.103, -9.161e-7, -5.655e-7, 3.506e-7
0.102, -9.179e-7, -5.664e-7, 3.515e-7
0.101, -9.188e-7, -5.658e-7, 3.530e-7
0.100, -9.188e-7, -5.676e-7, 3.512e-7
0.099, -9.197e-7, -5.676e-7, 3.521e-7
0.098, -9.207e-7, -5.664e-7, 3.542e-7
0.097, -9.216e-7, -5.676e-7, 3.539e-7
0.096, -9.219e-7, -5.676e-7, 3.542e-7
0.095, -9.237e-7, -5.676e-7, 3.561e-7
0.094, -9.252e-7, -5.686e-7, 3.567e-7
0.093, -9.231e-7, -5.676e-7, 3.555e-7
0.092, -9.249e-7, -5.680e-7, 3.570e-7
0.091, -9.255e-7, -5.680e-7, 3.576e-7
0.090, -9.252e-7, -5.680e-7, 3.573e-7
0.089, -9.255e-7, -5.683e-7, 3.573e-7
0.088, -9.262e-7, -5.683e-7, 3.579e-7
0.087, -9.274e-7, -5.695e-7, 3.579e-7
0.086, -9.258e-7, -5.667e-7, 3.591e-7
0.085, -9.265e-7, -5.686e-7, 3.579e-7
0.084, -9.286e-7, -5.698e-7, 3.588e-7
0.083, -9.289e-7, -5.683e-7, 3.606e-7
0.082, -9.286e-7, -5.686e-7, 3.600e-7
0.081, -9.298e-7, -5.695e-7, 3.603e-7
0.080, -9.304e-7, -5.683e-7, 3.622e-7
0.079, -9.292e-7, -5.680e-7, 3.613e-7
0.078, -9.316e-7, -5.689e-7, 3.628e-7
0.077, -9.313e-7, -5.689e-7, 3.625e-7
0.076, -9.316e-7, -5.680e-7, 3.637e-7
0.075, -9.316e-7, -5.692e-7, 3.625e-7
0.074, -9.320e-7, -5.680e-7, 3.640e-7
0.073, -9.320e-7, -5.680e-7, 3.640e-7
0.072, -9.341e-7, -5.692e-7, 3.649e-7
0.071, -9.338e-7, -5.683e-7, 3.655e-7
0.070, -9.338e-7, -5.683e-7, 3.655e-7
0.069, -9.332e-7, -5.680e-7, 3.652e-7
0.068, -9.329e-7, -5.673e-7, 3.655e-7
0.067, -9.344e-7, -5.689e-7, 3.655e-7
0.066, -9.353e-7, -5.683e-7, 3.671e-7
0.065, -9.326e-7, -5.667e-7, 3.658e-7
0.064, -9.332e-7, -5.661e-7, 3.671e-7
0.063, -9.365e-7, -5.680e-7, 3.686e-7
0.062, -9.350e-7, -5.661e-7, 3.689e-7
0.061, -9.344e-7, -5.667e-7, 3.677e-7
0.060, -9.353e-7, -5.664e-7, 3.689e-7
0.059, -9.359e-7, -5.664e-7, 3.695e-7
0.058, -9.350e-7, -5.661e-7, 3.689e-7
0.057, -9.371e-7, -5.670e-7, 3.701e-7
0.056, -9.347e-7, -5.646e-7, 3.701e-7
0.055, -9.356e-7, -5.661e-7, 3.695e-7
0.054, -9.356e-7, -5.655e-7, 3.701e-7
0.053, -9.341e-7, -5.634e-7, 3.707e-7
0.052, -9.353e-7, -5.646e-7, 3.707e-7
0.051, -9.359e-7, -5.640e-7, 3.719e-7
0.050, -9.356e-7, -5.634e-7, 3.722e-7
0.049, -9.335e-7, -5.625e-7, 3.710e-7
0.048, -9.365e-7, -5.643e-7, 3.722e-7
0.047, -9.350e-7, -5.628e-7, 3.722e-7
0.046, -9.350e-7, -5.631e-7, 3.719e-7
0.045, -9.359e-7, -5.622e-7, 3.738e-7
0.044, -9.347e-7, -5.622e-7, 3.725e-7
0.043, -9.335e-7, -5.619e-7, 3.716e-7
0.042, -9.368e-7, -5.631e-7, 3.738e-7
0.041, -9.347e-7, -5.606e-7, 3.741e-7
0.040, -9.347e-7, -5.612e-7, 3.735e-7
0.039, -9.338e-7, -5.594e-7, 3.744e-7
0.038, -9.310e-7, -5.579e-7, 3.732e-7
0.037, -9.335e-7, -5.591e-7, 3.744e-7
0.036, -9.329e-7, -5.588e-7, 3.741e-7
0.035, -9.320e-7, -5.579e-7, 3.741e-7
0.034, -9.326e-7, -5.579e-7, 3.747e-7
0.033, -9.326e-7, -5.576e-7, 3.750e-7
0.032, -9.320e-7, -5.567e-7, 3.753e-7
0.031, -9.313e-7, -5.561e-7, 3.753e-7
0.030, -9.320e-7, -5.557e-7, 3.762e-7
0.029, -9.310e-7, -5.554e-7, 3.756e-7
0.028, -9.301e-7, -5.545e-7, 3.756e-7
0.027, -9.292e-7, -5.533e-7, 3.759e-7
0.026, -9.295e-7, -5.530e-7, 3.765e-7
0.025, -9.298e-7, -5.527e-7, 3.771e-7
0.024, -9.283e-7, -5.527e-7, 3.756e-7
0.023, -9.274e-7, -5.515e-7, 3.759e-7
0.022, -9.292e-7, -5.530e-7, 3.762e-7
0.021, -9.283e-7, -5.506e-7, 3.777e-7
0.020, -9.262e-7, -5.503e-7, 3.759e-7
0.019, -9.255e-7, -5.496e-7, 3.759e-7
0.018, -9.258e-7, -5.484e-7, 3.774e-7
0.017, -9.243e-7, -5.478e-7, 3.765e-7
0.016, -9.252e-7, -5.478e-7, 3.774e-7
0.015, -9.258e-7, -5.478e-7, 3.780e-7
0.014, -9.231e-7, -5.466e-7, 3.765e-7
0.013, -9.234e-7, -5.463e-7, 3.771e-7
0.012, -9.228e-7, -5.454e-7, 3.774e-7
0.011, -9.219e-7, -5.457e-7, 3.762e-7
0.010, -9.216e-7, -5.448e-7, 3.768e-7
0.009, -9.222e-7, -5.438e-7, 3.783e-7
0.008, -9.204e-7, -5.435e-7, 3.768e-7
0.007, -9.204e-7, -5.432e-7, 3.771e-7
0.006, -9.194e-7, -5.417e-7, 3.777e-7
0.005, -9.170e-7, -5.414e-7, 3.756e-7
0.004, -9.179e-7, -5.414e-7, 3.765e-7
0.003, -9.170e-7, -5.390e-7, 3.780e-7
0.002, -9.149e-7, -5.390e-7, 3.759e-7
0.001, -9.167e-7, -5.396e-7, 3.771e-7
-0.000, -9.139e-7, -5.377e-7, 3.762e-7
-0.001, -9.146e-7, -5.374e-7, 3.771e-7
-0.002, -9.152e-7, -5.380e-7, 3.771e-7
-0.003, -9.127e-7, -5.353e-7, 3.774e-7
-0.004, -9.109e-7, -5.359e-7, 3.750e-7
-0.005, -9.121e-7, -5.368e-7, 3.753e-7
-0.006, -9.115e-7, -5.338e-7, 3.777e-7
-0.007, -9.091e-7, -5.335e-7, 3.756e-7
-0.008, -9.106e-7, -5.344e-7, 3.762e-7
-0.009, -9.082e-7, -5.316e-7, 3.765e-7
-0.010, -9.054e-7, -5.304e-7, 3.750e-7
-0.011, -9.094e-7, -5.319e-7, 3.774e-7
-0.012, -9.060e-7, -5.292e-7, 3.768e-7
-0.013, -9.039e-7, -5.298e-7, 3.741e-7
-0.014, -9.060e-7, -5.298e-7, 3.762e-7
-0.015, -9.033e-7, -5.274e-7, 3.759e-7
-0.016, -9.024e-7, -5.280e-7, 3.744e-7
-0.017, -9.039e-7, -5.286e-7, 3.753e-7
-0.018, -9.014e-7, -5.261e-7, 3.753e-7
-0.019, -8.999e-7, -5.252e-7, 3.747e-7
-0.020, -8.993e-7, -5.249e-7, 3.744e-7
-0.021, -9.002e-7, -5.243e-7, 3.759e-7
-0.022, -8.969e-7, -5.234e-7, 3.735e-7
-0.023, -8.984e-7, -5.237e-7, 3.747e-7
-0.024, -8.962e-7, -5.222e-7, 3.741e-7
-0.025, -8.944e-7, -5.210e-7, 3.735e-7
-0.026, -8.962e-7, -5.216e-7, 3.747e-7
-0.027, -8.938e-7, -5.200e-7, 3.738e-7
-0.028, -8.926e-7, -5.210e-7, 3.716e-7
-0.029, -8.944e-7, -5.210e-7, 3.735e-7
-0.030, -8.926e-7, -5.191e-7, 3.735e-7
-0.031, -8.905e-7, -5.182e-7, 3.722e-7
-0.032, -8.898e-7, -5.182e-7, 3.716e-7
-0.033, -8.886e-7, -5.164e-7, 3.722e-7
-0.034, -8.880e-7, -5.164e-7, 3.716e-7
-0.035, -8.889e-7, -5.167e-7, 3.722e-7
-0.036, -8.880e-7, -5.158e-7, 3.722e-7
-0.037, -8.862e-7, -5.149e-7, 3.713e-7
-0.038, -8.856e-7, -5.146e-7, 3.710e-7
-0.039, -8.850e-7, -5.136e-7, 3.713e-7
-0.040, -8.831e-7, -5.133e-7, 3.698e-7
-0.041, -8.822e-7, -5.130e-7, 3.692e-7
-0.042, -8.843e-7, -5.130e-7, 3.713e-7
-0.043, -8.804e-7, -5.115e-7, 3.689e-7
-0.044, -8.813e-7, -5.112e-7, 3.701e-7
-0.045, -8.792e-7, -5.103e-7, 3.689e-7
-0.046, -8.773e-7, -5.097e-7, 3.677e-7
-0.047, -8.798e-7, -5.103e-7, 3.695e-7
-0.048, -8.779e-7, -5.088e-7, 3.692e-7
-0.049, -8.773e-7, -5.084e-7, 3.689e-7
-0.050, -8.764e-7, -5.091e-7, 3.674e-7
