Mar. 20, 2018   14:40:29
Square Wave Voltammetry
File: c:\users\electrochemist\desktop\2018\20032018_unbufarray_unpap\34_g1_ph7,00_1.txt
Data Source:  Experiment
Instrument Model:  CHI1040A
Header: 
Note: 

Init E (V) = 0.7
Final E (V) = -0.4
Incr E (V) = 0.001
Amplitude (V) = 0.1
Frequency (Hz) = 152
Quiet Time (sec) = 2
Sensitivity (A/V) = 1e-5

Difference:

Forward:

Reverse:

Potential/V, Diff(i/A), For(i/A), Rev(i/A)

0.699, -5.981e-7, -2.020e-7, 3.961e-7
0.698, -7.141e-7, -3.638e-7, 3.503e-7
0.697, -7.171e-7, -3.760e-7, 3.411e-7
0.696, -7.141e-7, -3.760e-7, 3.381e-7
0.695, -7.110e-7, -3.790e-7, 3.320e-7
0.694, -7.110e-7, -3.821e-7, 3.289e-7
0.693, -7.080e-7, -3.790e-7, 3.289e-7
0.692, -7.080e-7, -3.851e-7, 3.228e-7
0.691, -7.080e-7, -3.821e-7, 3.259e-7
0.690, -7.019e-7, -3.790e-7, 3.228e-7
0.689, -7.019e-7, -3.821e-7, 3.198e-7
0.688, -7.019e-7, -3.821e-7, 3.198e-7
0.687, -6.988e-7, -3.821e-7, 3.167e-7
0.686, -7.019e-7, -3.851e-7, 3.167e-7
0.685, -6.988e-7, -3.821e-7, 3.167e-7
0.684, -6.988e-7, -3.821e-7, 3.167e-7
0.683, -6.988e-7, -3.851e-7, 3.137e-7
0.682, -7.019e-7, -3.882e-7, 3.137e-7
0.681, -6.988e-7, -3.851e-7, 3.137e-7
0.680, -6.958e-7, -3.851e-7, 3.106e-7
0.679, -6.927e-7, -3.851e-7, 3.076e-7
0.678, -6.927e-7, -3.851e-7, 3.076e-7
0.677, -6.958e-7, -3.882e-7, 3.076e-7
0.676, -6.927e-7, -3.851e-7, 3.076e-7
0.675, -6.866e-7, -3.851e-7, 3.015e-7
0.674, -6.897e-7, -3.851e-7, 3.045e-7
0.673, -6.897e-7, -3.851e-7, 3.045e-7
0.672, -6.866e-7, -3.851e-7, 3.015e-7
0.671, -6.897e-7, -3.882e-7, 3.015e-7
0.670, -6.897e-7, -3.882e-7, 3.015e-7
0.669, -6.897e-7, -3.882e-7, 3.015e-7
0.668, -6.866e-7, -3.851e-7, 3.015e-7
0.667, -6.897e-7, -3.882e-7, 3.015e-7
0.666, -6.927e-7, -3.882e-7, 3.045e-7
0.665, -6.866e-7, -3.882e-7, 2.984e-7
0.664, -6.897e-7, -3.882e-7, 3.015e-7
0.663, -6.866e-7, -3.882e-7, 2.984e-7
0.662, -6.866e-7, -3.882e-7, 2.984e-7
0.661, -6.836e-7, -3.882e-7, 2.954e-7
0.660, -6.836e-7, -3.882e-7, 2.954e-7
0.659, -6.836e-7, -3.882e-7, 2.954e-7
0.658, -6.805e-7, -3.882e-7, 2.923e-7
0.657, -6.866e-7, -3.912e-7, 2.954e-7
0.656, -6.836e-7, -3.882e-7, 2.954e-7
0.655, -6.805e-7, -3.882e-7, 2.923e-7
0.654, -6.866e-7, -3.912e-7, 2.954e-7
0.653, -6.836e-7, -3.912e-7, 2.923e-7
0.652, -6.805e-7, -3.912e-7, 2.893e-7
0.651, -6.836e-7, -3.882e-7, 2.954e-7
0.650, -6.836e-7, -3.912e-7, 2.923e-7
0.649, -6.805e-7, -3.912e-7, 2.893e-7
0.648, -6.836e-7, -3.912e-7, 2.923e-7
0.647, -6.836e-7, -3.912e-7, 2.923e-7
0.646, -6.805e-7, -3.943e-7, 2.862e-7
0.645, -6.866e-7, -3.943e-7, 2.923e-7
0.644, -6.775e-7, -3.882e-7, 2.893e-7
0.643, -6.836e-7, -3.943e-7, 2.893e-7
0.642, -6.836e-7, -3.943e-7, 2.893e-7
0.641, -6.805e-7, -3.912e-7, 2.893e-7
0.640, -6.866e-7, -3.973e-7, 2.893e-7
0.639, -6.836e-7, -3.943e-7, 2.893e-7
0.638, -6.805e-7, -3.943e-7, 2.862e-7
0.637, -6.866e-7, -3.973e-7, 2.893e-7
0.636, -6.866e-7, -3.973e-7, 2.893e-7
0.635, -6.775e-7, -3.912e-7, 2.862e-7
0.634, -6.866e-7, -4.004e-7, 2.862e-7
0.633, -6.836e-7, -3.943e-7, 2.893e-7
0.632, -6.805e-7, -3.943e-7, 2.862e-7
0.631, -6.866e-7, -4.004e-7, 2.862e-7
0.630, -6.866e-7, -3.973e-7, 2.893e-7
0.629, -6.836e-7, -3.973e-7, 2.862e-7
0.628, -6.836e-7, -4.004e-7, 2.832e-7
0.627, -6.836e-7, -3.973e-7, 2.862e-7
0.626, -6.836e-7, -4.004e-7, 2.832e-7
0.625, -6.866e-7, -4.004e-7, 2.862e-7
0.624, -6.836e-7, -3.973e-7, 2.862e-7
0.623, -6.836e-7, -3.973e-7, 2.862e-7
0.622, -6.897e-7, -4.034e-7, 2.862e-7
0.621, -6.836e-7, -4.004e-7, 2.832e-7
0.620, -6.897e-7, -4.034e-7, 2.862e-7
0.619, -6.927e-7, -4.065e-7, 2.862e-7
0.618, -6.836e-7, -4.004e-7, 2.832e-7
0.617, -6.897e-7, -4.034e-7, 2.862e-7
0.616, -6.866e-7, -4.034e-7, 2.832e-7
0.615, -6.866e-7, -4.034e-7, 2.832e-7
0.614, -6.866e-7, -4.034e-7, 2.832e-7
0.613, -6.897e-7, -4.034e-7, 2.862e-7
0.612, -6.866e-7, -4.034e-7, 2.832e-7
0.611, -6.897e-7, -4.034e-7, 2.862e-7
0.610, -6.897e-7, -4.065e-7, 2.832e-7
0.609, -6.897e-7, -4.065e-7, 2.832e-7
0.608, -6.897e-7, -4.065e-7, 2.832e-7
0.607, -6.958e-7, -4.096e-7, 2.862e-7
0.606, -6.897e-7, -4.065e-7, 2.832e-7
0.605, -6.927e-7, -4.096e-7, 2.832e-7
0.604, -6.927e-7, -4.065e-7, 2.862e-7
0.603, -6.927e-7, -4.096e-7, 2.832e-7
0.602, -6.927e-7, -4.096e-7, 2.832e-7
0.601, -6.958e-7, -4.096e-7, 2.862e-7
0.600, -6.958e-7, -4.096e-7, 2.862e-7
0.599, -6.958e-7, -4.126e-7, 2.832e-7
0.598, -6.927e-7, -4.096e-7, 2.832e-7
0.597, -6.958e-7, -4.126e-7, 2.832e-7
0.596, -6.958e-7, -4.126e-7, 2.832e-7
0.595, -6.958e-7, -4.126e-7, 2.832e-7
0.594, -6.927e-7, -4.126e-7, 2.801e-7
0.593, -6.958e-7, -4.126e-7, 2.832e-7
0.592, -6.958e-7, -4.126e-7, 2.832e-7
0.591, -6.988e-7, -4.157e-7, 2.832e-7
0.590, -6.988e-7, -4.126e-7, 2.862e-7
0.589, -6.958e-7, -4.126e-7, 2.832e-7
0.588, -7.019e-7, -4.157e-7, 2.862e-7
0.587, -7.019e-7, -4.157e-7, 2.862e-7
0.586, -6.958e-7, -4.157e-7, 2.801e-7
0.585, -7.019e-7, -4.218e-7, 2.801e-7
0.584, -7.019e-7, -4.157e-7, 2.862e-7
0.583, -7.019e-7, -4.187e-7, 2.832e-7
0.582, -7.019e-7, -4.187e-7, 2.832e-7
0.581, -7.019e-7, -4.157e-7, 2.862e-7
0.580, -7.019e-7, -4.187e-7, 2.832e-7
0.579, -7.049e-7, -4.218e-7, 2.832e-7
0.578, -7.049e-7, -4.187e-7, 2.862e-7
0.577, -7.019e-7, -4.218e-7, 2.801e-7
0.576, -7.049e-7, -4.218e-7, 2.832e-7
0.575, -7.080e-7, -4.218e-7, 2.862e-7
0.574, -7.049e-7, -4.218e-7, 2.832e-7
0.573, -7.080e-7, -4.218e-7, 2.862e-7
0.572, -7.049e-7, -4.218e-7, 2.832e-7
0.571, -7.019e-7, -4.218e-7, 2.801e-7
0.570, -7.080e-7, -4.248e-7, 2.832e-7
0.569, -7.049e-7, -4.218e-7, 2.832e-7
0.568, -7.110e-7, -4.279e-7, 2.832e-7
0.567, -7.110e-7, -4.279e-7, 2.832e-7
0.566, -7.080e-7, -4.248e-7, 2.832e-7
0.565, -7.080e-7, -4.248e-7, 2.832e-7
0.564, -7.110e-7, -4.279e-7, 2.832e-7
0.563, -7.080e-7, -4.248e-7, 2.832e-7
0.562, -7.080e-7, -4.279e-7, 2.801e-7
0.561, -7.110e-7, -4.279e-7, 2.832e-7
0.560, -7.049e-7, -4.248e-7, 2.801e-7
0.559, -7.141e-7, -4.309e-7, 2.832e-7
0.558, -7.110e-7, -4.279e-7, 2.832e-7
0.557, -7.080e-7, -4.279e-7, 2.801e-7
0.556, -7.141e-7, -4.309e-7, 2.832e-7
0.555, -7.141e-7, -4.309e-7, 2.832e-7
0.554, -7.141e-7, -4.309e-7, 2.832e-7
0.553, -7.110e-7, -4.309e-7, 2.801e-7
0.552, -7.141e-7, -4.309e-7, 2.832e-7
0.551, -7.141e-7, -4.340e-7, 2.801e-7
0.550, -7.141e-7, -4.340e-7, 2.801e-7
0.549, -7.141e-7, -4.340e-7, 2.801e-7
0.548, -7.141e-7, -4.340e-7, 2.801e-7
0.547, -7.171e-7, -4.340e-7, 2.832e-7
0.546, -7.110e-7, -4.309e-7, 2.801e-7
0.545, -7.141e-7, -4.340e-7, 2.801e-7
0.544, -7.202e-7, -4.370e-7, 2.832e-7
0.543, -7.141e-7, -4.340e-7, 2.801e-7
0.542, -7.202e-7, -4.370e-7, 2.832e-7
0.541, -7.202e-7, -4.370e-7, 2.832e-7
0.540, -7.110e-7, -4.309e-7, 2.801e-7
0.539, -7.171e-7, -4.370e-7, 2.801e-7
0.538, -7.171e-7, -4.370e-7, 2.801e-7
0.537, -7.171e-7, -4.370e-7, 2.801e-7
0.536, -7.202e-7, -4.370e-7, 2.832e-7
0.535, -7.232e-7, -4.401e-7, 2.832e-7
0.534, -7.202e-7, -4.401e-7, 2.801e-7
0.533, -7.202e-7, -4.401e-7, 2.801e-7
0.532, -7.232e-7, -4.401e-7, 2.832e-7
0.531, -7.232e-7, -4.401e-7, 2.832e-7
0.530, -7.232e-7, -4.431e-7, 2.801e-7
0.529, -7.202e-7, -4.401e-7, 2.801e-7
0.528, -7.263e-7, -4.431e-7, 2.832e-7
0.527, -7.293e-7, -4.431e-7, 2.862e-7
0.526, -7.263e-7, -4.431e-7, 2.832e-7
0.525, -7.293e-7, -4.462e-7, 2.832e-7
0.524, -7.293e-7, -4.431e-7, 2.862e-7
0.523, -7.293e-7, -4.462e-7, 2.832e-7
0.522, -7.293e-7, -4.462e-7, 2.832e-7
0.521, -7.293e-7, -4.462e-7, 2.832e-7
0.520, -7.263e-7, -4.431e-7, 2.832e-7
0.519, -7.263e-7, -4.462e-7, 2.801e-7
0.518, -7.293e-7, -4.462e-7, 2.832e-7
0.517, -7.263e-7, -4.462e-7, 2.801e-7
0.516, -7.324e-7, -4.492e-7, 2.832e-7
0.515, -7.354e-7, -4.492e-7, 2.862e-7
0.514, -7.324e-7, -4.492e-7, 2.832e-7
0.513, -7.385e-7, -4.553e-7, 2.832e-7
0.512, -7.385e-7, -4.523e-7, 2.862e-7
0.511, -7.324e-7, -4.492e-7, 2.832e-7
0.510, -7.385e-7, -4.553e-7, 2.832e-7
0.509, -7.385e-7, -4.523e-7, 2.862e-7
0.508, -7.354e-7, -4.523e-7, 2.832e-7
0.507, -7.385e-7, -4.553e-7, 2.832e-7
0.506, -7.415e-7, -4.553e-7, 2.862e-7
0.505, -7.385e-7, -4.553e-7, 2.832e-7
0.504, -7.415e-7, -4.584e-7, 2.832e-7
0.503, -7.415e-7, -4.553e-7, 2.862e-7
0.502, -7.385e-7, -4.553e-7, 2.832e-7
0.501, -7.415e-7, -4.584e-7, 2.832e-7
0.500, -7.446e-7, -4.584e-7, 2.862e-7
0.499, -7.446e-7, -4.584e-7, 2.862e-7
0.498, -7.507e-7, -4.645e-7, 2.862e-7
0.497, -7.476e-7, -4.614e-7, 2.862e-7
0.496, -7.476e-7, -4.614e-7, 2.862e-7
0.495, -7.476e-7, -4.645e-7, 2.832e-7
0.494, -7.476e-7, -4.614e-7, 2.862e-7
0.493, -7.537e-7, -4.645e-7, 2.893e-7
0.492, -7.537e-7, -4.645e-7, 2.893e-7
0.491, -7.507e-7, -4.645e-7, 2.862e-7
0.490, -7.507e-7, -4.645e-7, 2.862e-7
0.489, -7.537e-7, -4.645e-7, 2.893e-7
0.488, -7.568e-7, -4.675e-7, 2.893e-7
0.487, -7.537e-7, -4.675e-7, 2.862e-7
0.486, -7.568e-7, -4.706e-7, 2.862e-7
0.485, -7.598e-7, -4.706e-7, 2.893e-7
0.484, -7.598e-7, -4.706e-7, 2.893e-7
0.483, -7.598e-7, -4.706e-7, 2.893e-7
0.482, -7.568e-7, -4.706e-7, 2.862e-7
0.481, -7.629e-7, -4.736e-7, 2.893e-7
0.480, -7.598e-7, -4.706e-7, 2.893e-7
0.479, -7.629e-7, -4.736e-7, 2.893e-7
0.478, -7.690e-7, -4.767e-7, 2.923e-7
0.477, -7.690e-7, -4.767e-7, 2.923e-7
0.476, -7.659e-7, -4.767e-7, 2.893e-7
0.475, -7.690e-7, -4.767e-7, 2.923e-7
0.474, -7.690e-7, -4.767e-7, 2.923e-7
0.473, -7.659e-7, -4.767e-7, 2.893e-7
0.472, -7.690e-7, -4.767e-7, 2.923e-7
0.471, -7.690e-7, -4.797e-7, 2.893e-7
0.470, -7.690e-7, -4.797e-7, 2.893e-7
0.469, -7.721e-7, -4.797e-7, 2.923e-7
0.468, -7.690e-7, -4.797e-7, 2.893e-7
0.467, -7.721e-7, -4.828e-7, 2.893e-7
0.466, -7.782e-7, -4.828e-7, 2.954e-7
0.465, -7.721e-7, -4.828e-7, 2.893e-7
0.464, -7.782e-7, -4.858e-7, 2.923e-7
0.463, -7.782e-7, -4.828e-7, 2.954e-7
0.462, -7.782e-7, -4.858e-7, 2.923e-7
0.461, -7.751e-7, -4.828e-7, 2.923e-7
0.460, -7.751e-7, -4.828e-7, 2.923e-7
0.459, -7.782e-7, -4.858e-7, 2.923e-7
0.458, -7.812e-7, -4.889e-7, 2.923e-7
0.457, -7.812e-7, -4.858e-7, 2.954e-7
0.456, -7.782e-7, -4.889e-7, 2.893e-7
0.455, -7.873e-7, -4.919e-7, 2.954e-7
0.454, -7.843e-7, -4.889e-7, 2.954e-7
0.453, -7.812e-7, -4.889e-7, 2.923e-7
0.452, -7.904e-7, -4.950e-7, 2.954e-7
0.451, -7.873e-7, -4.919e-7, 2.954e-7
0.450, -7.843e-7, -4.919e-7, 2.923e-7
0.449, -7.934e-7, -4.980e-7, 2.954e-7
0.448, -7.873e-7, -4.919e-7, 2.954e-7
0.447, -7.873e-7, -4.950e-7, 2.923e-7
0.446, -7.965e-7, -4.980e-7, 2.984e-7
0.445, -7.934e-7, -4.950e-7, 2.984e-7
0.444, -7.934e-7, -4.980e-7, 2.954e-7
0.443, -7.995e-7, -5.011e-7, 2.984e-7
0.442, -7.965e-7, -4.980e-7, 2.984e-7
0.441, -7.934e-7, -4.980e-7, 2.954e-7
0.440, -7.995e-7, -5.011e-7, 2.984e-7
0.439, -7.965e-7, -5.011e-7, 2.954e-7
0.438, -7.965e-7, -5.011e-7, 2.954e-7
0.437, -7.995e-7, -5.011e-7, 2.984e-7
0.436, -7.995e-7, -5.011e-7, 2.984e-7
0.435, -8.026e-7, -5.042e-7, 2.984e-7
0.434, -7.995e-7, -5.011e-7, 2.984e-7
0.433, -8.026e-7, -5.042e-7, 2.984e-7
0.432, -8.026e-7, -5.042e-7, 2.984e-7
0.431, -8.026e-7, -5.042e-7, 2.984e-7
0.430, -7.995e-7, -5.042e-7, 2.954e-7
0.429, -8.026e-7, -5.072e-7, 2.954e-7
0.428, -8.056e-7, -5.072e-7, 2.984e-7
0.427, -8.056e-7, -5.072e-7, 2.984e-7
0.426, -8.087e-7, -5.103e-7, 2.984e-7
0.425, -8.117e-7, -5.103e-7, 3.015e-7
0.424, -8.087e-7, -5.103e-7, 2.984e-7
0.423, -8.117e-7, -5.103e-7, 3.015e-7
0.422, -8.087e-7, -5.103e-7, 2.984e-7
0.421, -8.117e-7, -5.133e-7, 2.984e-7
0.420, -8.148e-7, -5.133e-7, 3.015e-7
0.419, -8.148e-7, -5.133e-7, 3.015e-7
0.418, -8.148e-7, -5.164e-7, 2.984e-7
0.417, -8.178e-7, -5.164e-7, 3.015e-7
0.416, -8.178e-7, -5.164e-7, 3.015e-7
0.415, -8.209e-7, -5.194e-7, 3.015e-7
0.414, -8.178e-7, -5.164e-7, 3.015e-7
0.413, -8.178e-7, -5.164e-7, 3.015e-7
0.412, -8.209e-7, -5.194e-7, 3.015e-7
0.411, -8.239e-7, -5.194e-7, 3.045e-7
0.410, -8.209e-7, -5.194e-7, 3.015e-7
0.409, -8.239e-7, -5.225e-7, 3.015e-7
0.408, -8.239e-7, -5.194e-7, 3.045e-7
0.407, -8.270e-7, -5.255e-7, 3.015e-7
0.406, -8.300e-7, -5.255e-7, 3.045e-7
0.405, -8.270e-7, -5.225e-7, 3.045e-7
0.404, -8.270e-7, -5.255e-7, 3.015e-7
0.403, -8.300e-7, -5.255e-7, 3.045e-7
0.402, -8.300e-7, -5.255e-7, 3.045e-7
0.401, -8.331e-7, -5.286e-7, 3.045e-7
0.400, -8.331e-7, -5.286e-7, 3.045e-7
0.399, -8.331e-7, -5.286e-7, 3.045e-7
0.398, -8.331e-7, -5.316e-7, 3.015e-7
0.397, -8.361e-7, -5.286e-7, 3.076e-7
0.396, -8.392e-7, -5.316e-7, 3.076e-7
0.395, -8.392e-7, -5.347e-7, 3.045e-7
0.394, -8.392e-7, -5.316e-7, 3.076e-7
0.393, -8.422e-7, -5.347e-7, 3.076e-7
0.392, -8.453e-7, -5.377e-7, 3.076e-7
0.391, -8.453e-7, -5.347e-7, 3.106e-7
0.390, -8.453e-7, -5.377e-7, 3.076e-7
0.389, -8.422e-7, -5.377e-7, 3.045e-7
0.388, -8.483e-7, -5.377e-7, 3.106e-7
0.387, -8.453e-7, -5.377e-7, 3.076e-7
0.386, -8.483e-7, -5.408e-7, 3.076e-7
0.385, -8.544e-7, -5.408e-7, 3.137e-7
0.384, -8.514e-7, -5.408e-7, 3.106e-7
0.383, -8.514e-7, -5.438e-7, 3.076e-7
0.382, -8.514e-7, -5.408e-7, 3.106e-7
0.381, -8.544e-7, -5.438e-7, 3.106e-7
0.380, -8.575e-7, -5.469e-7, 3.106e-7
0.379, -8.605e-7, -5.469e-7, 3.137e-7
0.378, -8.605e-7, -5.469e-7, 3.137e-7
0.377, -8.605e-7, -5.499e-7, 3.106e-7
0.376, -8.605e-7, -5.469e-7, 3.137e-7
0.375, -8.636e-7, -5.499e-7, 3.137e-7
0.374, -8.636e-7, -5.499e-7, 3.137e-7
0.373, -8.666e-7, -5.499e-7, 3.167e-7
0.372, -8.666e-7, -5.530e-7, 3.137e-7
0.371, -8.697e-7, -5.530e-7, 3.167e-7
0.370, -8.728e-7, -5.560e-7, 3.167e-7
0.369, -8.697e-7, -5.560e-7, 3.137e-7
0.368, -8.728e-7, -5.560e-7, 3.167e-7
0.367, -8.728e-7, -5.560e-7, 3.167e-7
0.366, -8.758e-7, -5.591e-7, 3.167e-7
0.365, -8.758e-7, -5.591e-7, 3.167e-7
0.364, -8.789e-7, -5.591e-7, 3.198e-7
0.363, -8.789e-7, -5.621e-7, 3.167e-7
0.362, -8.789e-7, -5.591e-7, 3.198e-7
0.361, -8.789e-7, -5.621e-7, 3.167e-7
0.360, -8.819e-7, -5.652e-7, 3.167e-7
0.359, -8.850e-7, -5.652e-7, 3.198e-7
0.358, -8.850e-7, -5.652e-7, 3.198e-7
0.357, -8.850e-7, -5.652e-7, 3.198e-7
0.356, -8.911e-7, -5.682e-7, 3.228e-7
0.355, -8.880e-7, -5.682e-7, 3.198e-7
0.354, -8.941e-7, -5.713e-7, 3.228e-7
0.353, -8.972e-7, -5.713e-7, 3.259e-7
0.352, -8.941e-7, -5.713e-7, 3.228e-7
0.351, -8.972e-7, -5.713e-7, 3.259e-7
0.350, -8.972e-7, -5.743e-7, 3.228e-7
0.349, -8.972e-7, -5.743e-7, 3.228e-7
0.348, -9.002e-7, -5.743e-7, 3.259e-7
0.347, -9.002e-7, -5.743e-7, 3.259e-7
0.346, -9.033e-7, -5.774e-7, 3.259e-7
0.345, -9.033e-7, -5.774e-7, 3.259e-7
0.344, -9.033e-7, -5.774e-7, 3.259e-7
0.343, -9.094e-7, -5.804e-7, 3.289e-7
0.342, -9.124e-7, -5.835e-7, 3.289e-7
0.341, -9.094e-7, -5.835e-7, 3.259e-7
0.340, -9.124e-7, -5.835e-7, 3.289e-7
0.339, -9.124e-7, -5.835e-7, 3.289e-7
0.338, -9.124e-7, -5.865e-7, 3.259e-7
0.337, -9.155e-7, -5.865e-7, 3.289e-7
0.336, -9.185e-7, -5.865e-7, 3.320e-7
0.335, -9.185e-7, -5.896e-7, 3.289e-7
0.334, -9.216e-7, -5.926e-7, 3.289e-7
0.333, -9.216e-7, -5.896e-7, 3.320e-7
0.332, -9.216e-7, -5.926e-7, 3.289e-7
0.331, -9.246e-7, -5.926e-7, 3.320e-7
0.330, -9.277e-7, -5.926e-7, 3.350e-7
0.329, -9.246e-7, -5.926e-7, 3.320e-7
0.328, -9.277e-7, -5.957e-7, 3.320e-7
0.327, -9.307e-7, -5.957e-7, 3.350e-7
0.326, -9.307e-7, -5.988e-7, 3.320e-7
0.325, -9.368e-7, -6.018e-7, 3.350e-7
0.324, -9.368e-7, -5.988e-7, 3.381e-7
0.323, -9.338e-7, -5.988e-7, 3.350e-7
0.322, -9.368e-7, -6.018e-7, 3.350e-7
0.321, -9.399e-7, -6.018e-7, 3.381e-7
0.320, -9.368e-7, -6.049e-7, 3.320e-7
0.319, -9.460e-7, -6.049e-7, 3.411e-7
0.318, -9.399e-7, -6.018e-7, 3.381e-7
0.317, -9.429e-7, -6.049e-7, 3.381e-7
0.316, -9.490e-7, -6.110e-7, 3.381e-7
0.315, -9.460e-7, -6.079e-7, 3.381e-7
0.314, -9.490e-7, -6.110e-7, 3.381e-7
0.313, -9.460e-7, -6.079e-7, 3.381e-7
0.312, -9.521e-7, -6.110e-7, 3.411e-7
0.311, -9.551e-7, -6.140e-7, 3.411e-7
0.310, -9.551e-7, -6.140e-7, 3.411e-7
0.309, -9.551e-7, -6.140e-7, 3.411e-7
0.308, -9.582e-7, -6.171e-7, 3.411e-7
0.307, -9.551e-7, -6.140e-7, 3.411e-7
0.306, -9.582e-7, -6.201e-7, 3.381e-7
0.305, -9.612e-7, -6.201e-7, 3.411e-7
0.304, -9.612e-7, -6.201e-7, 3.411e-7
0.303, -9.643e-7, -6.232e-7, 3.411e-7
0.302, -9.643e-7, -6.201e-7, 3.442e-7
0.301, -9.674e-7, -6.201e-7, 3.472e-7
0.300, -9.674e-7, -6.232e-7, 3.442e-7
0.299, -9.704e-7, -6.262e-7, 3.442e-7
0.298, -9.704e-7, -6.232e-7, 3.472e-7
0.297, -9.735e-7, -6.293e-7, 3.442e-7
0.296, -9.735e-7, -6.293e-7, 3.442e-7
0.295, -9.704e-7, -6.262e-7, 3.442e-7
0.294, -9.765e-7, -6.323e-7, 3.442e-7
0.293, -9.796e-7, -6.323e-7, 3.472e-7
0.292, -9.796e-7, -6.323e-7, 3.472e-7
0.291, -9.796e-7, -6.323e-7, 3.472e-7
0.290, -9.857e-7, -6.354e-7, 3.503e-7
0.289, -9.857e-7, -6.354e-7, 3.503e-7
0.288, -9.887e-7, -6.384e-7, 3.503e-7
0.287, -9.887e-7, -6.384e-7, 3.503e-7
0.286, -9.918e-7, -6.415e-7, 3.503e-7
0.285, -9.948e-7, -6.415e-7, 3.533e-7
0.284, -9.948e-7, -6.415e-7, 3.533e-7
0.283, -9.979e-7, -6.445e-7, 3.533e-7
0.282, -9.979e-7, -6.445e-7, 3.533e-7
0.281, -9.979e-7, -6.445e-7, 3.533e-7
0.280, -1.004e-6, -6.506e-7, 3.533e-7
0.279, -1.004e-6, -6.476e-7, 3.564e-7
0.278, -1.004e-6, -6.476e-7, 3.564e-7
0.277, -1.007e-6, -6.537e-7, 3.533e-7
0.276, -1.010e-6, -6.537e-7, 3.564e-7
0.275, -1.007e-6, -6.506e-7, 3.564e-7
0.274, -1.010e-6, -6.567e-7, 3.533e-7
0.273, -1.013e-6, -6.537e-7, 3.594e-7
0.272, -1.013e-6, -6.567e-7, 3.564e-7
0.271, -1.019e-6, -6.598e-7, 3.594e-7
0.270, -1.022e-6, -6.598e-7, 3.625e-7
0.269, -1.022e-6, -6.598e-7, 3.625e-7
0.268, -1.022e-6, -6.628e-7, 3.594e-7
0.267, -1.028e-6, -6.628e-7, 3.655e-7
0.266, -1.031e-6, -6.659e-7, 3.655e-7
0.265, -1.028e-6, -6.659e-7, 3.625e-7
0.264, -1.034e-6, -6.689e-7, 3.655e-7
0.263, -1.031e-6, -6.659e-7, 3.655e-7
0.262, -1.034e-6, -6.720e-7, 3.625e-7
0.261, -1.041e-6, -6.720e-7, 3.686e-7
0.260, -1.038e-6, -6.720e-7, 3.655e-7
0.259, -1.041e-6, -6.750e-7, 3.655e-7
0.258, -1.047e-6, -6.750e-7, 3.717e-7
0.257, -1.041e-6, -6.720e-7, 3.686e-7
0.256, -1.047e-6, -6.781e-7, 3.686e-7
0.255, -1.050e-6, -6.781e-7, 3.717e-7
0.254, -1.053e-6, -6.811e-7, 3.717e-7
0.253, -1.053e-6, -6.811e-7, 3.717e-7
0.252, -1.056e-6, -6.811e-7, 3.747e-7
0.251, -1.059e-6, -6.842e-7, 3.747e-7
0.250, -1.062e-6, -6.872e-7, 3.747e-7
0.249, -1.059e-6, -6.842e-7, 3.747e-7
0.248, -1.068e-6, -6.903e-7, 3.778e-7
0.247, -1.068e-6, -6.903e-7, 3.778e-7
0.246, -1.068e-6, -6.903e-7, 3.778e-7
0.245, -1.074e-6, -6.934e-7, 3.808e-7
0.244, -1.077e-6, -6.964e-7, 3.808e-7
0.243, -1.071e-6, -6.934e-7, 3.778e-7
0.242, -1.077e-6, -6.964e-7, 3.808e-7
0.241, -1.083e-6, -6.995e-7, 3.839e-7
0.240, -1.080e-6, -6.995e-7, 3.808e-7
0.239, -1.086e-6, -7.025e-7, 3.839e-7
0.238, -1.086e-6, -7.025e-7, 3.839e-7
0.237, -1.089e-6, -7.056e-7, 3.839e-7
0.236, -1.089e-6, -7.056e-7, 3.839e-7
0.235, -1.092e-6, -7.056e-7, 3.869e-7
0.234, -1.092e-6, -7.086e-7, 3.839e-7
0.233, -1.099e-6, -7.117e-7, 3.869e-7
0.232, -1.102e-6, -7.117e-7, 3.900e-7
0.231, -1.102e-6, -7.117e-7, 3.900e-7
0.230, -1.105e-6, -7.147e-7, 3.900e-7
0.229, -1.105e-6, -7.147e-7, 3.900e-7
0.228, -1.105e-6, -7.178e-7, 3.869e-7
0.227, -1.114e-6, -7.178e-7, 3.961e-7
0.226, -1.114e-6, -7.208e-7, 3.930e-7
0.225, -1.114e-6, -7.208e-7, 3.930e-7
0.224, -1.123e-6, -7.239e-7, 3.991e-7
0.223, -1.120e-6, -7.239e-7, 3.961e-7
0.222, -1.120e-6, -7.239e-7, 3.961e-7
0.221, -1.123e-6, -7.239e-7, 3.991e-7
0.220, -1.129e-6, -7.300e-7, 3.991e-7
0.219, -1.129e-6, -7.300e-7, 3.991e-7
0.218, -1.132e-6, -7.300e-7, 4.022e-7
0.217, -1.132e-6, -7.330e-7, 3.991e-7
0.216, -1.135e-6, -7.330e-7, 4.022e-7
0.215, -1.138e-6, -7.330e-7, 4.052e-7
0.214, -1.138e-6, -7.361e-7, 4.022e-7
0.213, -1.144e-6, -7.391e-7, 4.052e-7
0.212, -1.147e-6, -7.391e-7, 4.083e-7
0.211, -1.144e-6, -7.391e-7, 4.052e-7
0.210, -1.157e-6, -7.452e-7, 4.113e-7
0.209, -1.153e-6, -7.422e-7, 4.113e-7
0.208, -1.153e-6, -7.452e-7, 4.083e-7
0.207, -1.160e-6, -7.483e-7, 4.113e-7
0.206, -1.157e-6, -7.452e-7, 4.113e-7
0.205, -1.160e-6, -7.483e-7, 4.113e-7
0.204, -1.169e-6, -7.544e-7, 4.144e-7
0.203, -1.166e-6, -7.513e-7, 4.144e-7
0.202, -1.169e-6, -7.544e-7, 4.144e-7
0.201, -1.172e-6, -7.544e-7, 4.174e-7
0.200, -1.172e-6, -7.544e-7, 4.174e-7
0.199, -1.169e-6, -7.544e-7, 4.144e-7
0.198, -1.178e-6, -7.605e-7, 4.174e-7
0.197, -1.178e-6, -7.574e-7, 4.205e-7
0.196, -1.181e-6, -7.605e-7, 4.205e-7
0.195, -1.181e-6, -7.605e-7, 4.205e-7
0.194, -1.187e-6, -7.635e-7, 4.235e-7
0.193, -1.187e-6, -7.666e-7, 4.205e-7
0.192, -1.190e-6, -7.635e-7, 4.266e-7
0.191, -1.190e-6, -7.666e-7, 4.235e-7
0.190, -1.193e-6, -7.696e-7, 4.235e-7
0.189, -1.196e-6, -7.696e-7, 4.266e-7
0.188, -1.196e-6, -7.696e-7, 4.266e-7
0.187, -1.199e-6, -7.727e-7, 4.266e-7
0.186, -1.202e-6, -7.727e-7, 4.296e-7
0.185, -1.199e-6, -7.727e-7, 4.266e-7
0.184, -1.205e-6, -7.757e-7, 4.296e-7
0.183, -1.208e-6, -7.788e-7, 4.296e-7
0.182, -1.205e-6, -7.757e-7, 4.296e-7
0.181, -1.211e-6, -7.788e-7, 4.327e-7
0.180, -1.215e-6, -7.788e-7, 4.357e-7
0.179, -1.215e-6, -7.818e-7, 4.327e-7
0.178, -1.218e-6, -7.818e-7, 4.357e-7
0.177, -1.221e-6, -7.849e-7, 4.357e-7
0.176, -1.221e-6, -7.849e-7, 4.357e-7
0.175, -1.224e-6, -7.849e-7, 4.388e-7
0.174, -1.224e-6, -7.849e-7, 4.388e-7
0.173, -1.233e-6, -7.910e-7, 4.418e-7
0.172, -1.233e-6, -7.910e-7, 4.418e-7
0.171, -1.230e-6, -7.910e-7, 4.388e-7
0.170, -1.233e-6, -7.910e-7, 4.418e-7
0.169, -1.239e-6, -7.941e-7, 4.449e-7
0.168, -1.239e-6, -7.971e-7, 4.418e-7
0.167, -1.245e-6, -7.971e-7, 4.479e-7
0.166, -1.245e-6, -7.971e-7, 4.479e-7
0.165, -1.242e-6, -7.971e-7, 4.449e-7
0.164, -1.248e-6, -8.002e-7, 4.479e-7
0.163, -1.248e-6, -7.971e-7, 4.510e-7
0.162, -1.254e-6, -8.032e-7, 4.510e-7
0.161, -1.257e-6, -8.032e-7, 4.540e-7
0.160, -1.257e-6, -8.032e-7, 4.540e-7
0.159, -1.254e-6, -8.032e-7, 4.510e-7
0.158, -1.263e-6, -8.063e-7, 4.571e-7
0.157, -1.263e-6, -8.063e-7, 4.571e-7
0.156, -1.266e-6, -8.093e-7, 4.571e-7
0.155, -1.269e-6, -8.093e-7, 4.601e-7
0.154, -1.266e-6, -8.093e-7, 4.571e-7
0.153, -1.269e-6, -8.124e-7, 4.571e-7
0.152, -1.279e-6, -8.124e-7, 4.662e-7
0.151, -1.273e-6, -8.093e-7, 4.632e-7
0.150, -1.279e-6, -8.154e-7, 4.632e-7
0.149, -1.282e-6, -8.154e-7, 4.662e-7
0.148, -1.279e-6, -8.154e-7, 4.632e-7
0.147, -1.282e-6, -8.185e-7, 4.632e-7
0.146, -1.288e-6, -8.185e-7, 4.693e-7
0.145, -1.285e-6, -8.185e-7, 4.662e-7
0.144, -1.291e-6, -8.215e-7, 4.693e-7
0.143, -1.291e-6, -8.185e-7, 4.724e-7
0.142, -1.291e-6, -8.185e-7, 4.724e-7
0.141, -1.291e-6, -8.215e-7, 4.693e-7
0.140, -1.300e-6, -8.246e-7, 4.754e-7
0.139, -1.297e-6, -8.215e-7, 4.754e-7
0.138, -1.300e-6, -8.246e-7, 4.754e-7
0.137, -1.303e-6, -8.246e-7, 4.785e-7
0.136, -1.303e-6, -8.246e-7, 4.785e-7
0.135, -1.312e-6, -8.307e-7, 4.815e-7
0.134, -1.309e-6, -8.276e-7, 4.815e-7
0.133, -1.309e-6, -8.276e-7, 4.815e-7
0.132, -1.312e-6, -8.307e-7, 4.815e-7
0.131, -1.315e-6, -8.307e-7, 4.846e-7
0.130, -1.315e-6, -8.307e-7, 4.846e-7
0.129, -1.321e-6, -8.368e-7, 4.846e-7
0.128, -1.318e-6, -8.307e-7, 4.876e-7
0.127, -1.318e-6, -8.337e-7, 4.846e-7
0.126, -1.324e-6, -8.337e-7, 4.907e-7
0.125, -1.324e-6, -8.337e-7, 4.907e-7
0.124, -1.327e-6, -8.368e-7, 4.907e-7
0.123, -1.334e-6, -8.398e-7, 4.937e-7
0.122, -1.330e-6, -8.368e-7, 4.937e-7
0.121, -1.330e-6, -8.368e-7, 4.937e-7
0.120, -1.330e-6, -8.368e-7, 4.937e-7
0.119, -1.337e-6, -8.398e-7, 4.968e-7
0.118, -1.340e-6, -8.429e-7, 4.968e-7
0.117, -1.340e-6, -8.398e-7, 4.998e-7
0.116, -1.343e-6, -8.429e-7, 4.998e-7
0.115, -1.346e-6, -8.429e-7, 5.029e-7
0.114, -1.346e-6, -8.429e-7, 5.029e-7
0.113, -1.349e-6, -8.459e-7, 5.029e-7
0.112, -1.352e-6, -8.459e-7, 5.059e-7
0.111, -1.352e-6, -8.459e-7, 5.059e-7
0.110, -1.346e-6, -8.429e-7, 5.029e-7
0.109, -1.352e-6, -8.459e-7, 5.059e-7
0.108, -1.355e-6, -8.459e-7, 5.090e-7
0.107, -1.352e-6, -8.459e-7, 5.059e-7
0.106, -1.358e-6, -8.490e-7, 5.090e-7
0.105, -1.361e-6, -8.490e-7, 5.120e-7
0.104, -1.358e-6, -8.490e-7, 5.090e-7
0.103, -1.361e-6, -8.490e-7, 5.120e-7
0.102, -1.364e-6, -8.490e-7, 5.151e-7
0.101, -1.364e-6, -8.520e-7, 5.120e-7
0.100, -1.364e-6, -8.490e-7, 5.151e-7
0.099, -1.361e-6, -8.490e-7, 5.120e-7
0.098, -1.367e-6, -8.520e-7, 5.151e-7
0.097, -1.367e-6, -8.490e-7, 5.181e-7
0.096, -1.370e-6, -8.551e-7, 5.151e-7
0.095, -1.373e-6, -8.551e-7, 5.181e-7
0.094, -1.373e-6, -8.490e-7, 5.242e-7
0.093, -1.373e-6, -8.520e-7, 5.212e-7
0.092, -1.379e-6, -8.551e-7, 5.242e-7
0.091, -1.376e-6, -8.520e-7, 5.242e-7
0.090, -1.376e-6, -8.551e-7, 5.212e-7
0.089, -1.379e-6, -8.551e-7, 5.242e-7
0.088, -1.379e-6, -8.520e-7, 5.273e-7
0.087, -1.376e-6, -8.520e-7, 5.242e-7
0.086, -1.379e-6, -8.551e-7, 5.242e-7
0.085, -1.382e-6, -8.520e-7, 5.303e-7
0.084, -1.376e-6, -8.520e-7, 5.242e-7
0.083, -1.385e-6, -8.551e-7, 5.303e-7
0.082, -1.382e-6, -8.520e-7, 5.303e-7
0.081, -1.382e-6, -8.551e-7, 5.273e-7
0.080, -1.388e-6, -8.551e-7, 5.334e-7
0.079, -1.385e-6, -8.520e-7, 5.334e-7
0.078, -1.385e-6, -8.520e-7, 5.334e-7
0.077, -1.388e-6, -8.551e-7, 5.334e-7
0.076, -1.385e-6, -8.520e-7, 5.334e-7
0.075, -1.385e-6, -8.520e-7, 5.334e-7
0.074, -1.392e-6, -8.551e-7, 5.364e-7
0.073, -1.392e-6, -8.551e-7, 5.364e-7
0.072, -1.388e-6, -8.520e-7, 5.364e-7
0.071, -1.395e-6, -8.551e-7, 5.395e-7
0.070, -1.392e-6, -8.520e-7, 5.395e-7
0.069, -1.392e-6, -8.520e-7, 5.395e-7
0.068, -1.392e-6, -8.520e-7, 5.395e-7
0.067, -1.392e-6, -8.520e-7, 5.395e-7
0.066, -1.395e-6, -8.520e-7, 5.425e-7
0.065, -1.395e-6, -8.490e-7, 5.456e-7
0.064, -1.392e-6, -8.490e-7, 5.425e-7
0.063, -1.398e-6, -8.520e-7, 5.456e-7
0.062, -1.398e-6, -8.520e-7, 5.456e-7
0.061, -1.392e-6, -8.490e-7, 5.425e-7
0.060, -1.395e-6, -8.520e-7, 5.425e-7
0.059, -1.395e-6, -8.490e-7, 5.456e-7
0.058, -1.395e-6, -8.490e-7, 5.456e-7
0.057, -1.398e-6, -8.490e-7, 5.486e-7
0.056, -1.395e-6, -8.459e-7, 5.486e-7
0.055, -1.395e-6, -8.490e-7, 5.456e-7
0.054, -1.395e-6, -8.459e-7, 5.486e-7
0.053, -1.395e-6, -8.459e-7, 5.486e-7
0.052, -1.395e-6, -8.459e-7, 5.486e-7
0.051, -1.395e-6, -8.459e-7, 5.486e-7
0.050, -1.398e-6, -8.459e-7, 5.517e-7
0.049, -1.392e-6, -8.429e-7, 5.486e-7
0.048, -1.395e-6, -8.429e-7, 5.517e-7
0.047, -1.395e-6, -8.429e-7, 5.517e-7
0.046, -1.395e-6, -8.429e-7, 5.517e-7
0.045, -1.395e-6, -8.398e-7, 5.547e-7
0.044, -1.395e-6, -8.398e-7, 5.547e-7
0.043, -1.401e-6, -8.429e-7, 5.578e-7
0.042, -1.395e-6, -8.398e-7, 5.547e-7
0.041, -1.392e-6, -8.398e-7, 5.517e-7
0.040, -1.395e-6, -8.398e-7, 5.547e-7
0.039, -1.392e-6, -8.368e-7, 5.547e-7
0.038, -1.395e-6, -8.368e-7, 5.578e-7
0.037, -1.395e-6, -8.368e-7, 5.578e-7
0.036, -1.388e-6, -8.337e-7, 5.547e-7
0.035, -1.392e-6, -8.337e-7, 5.578e-7
0.034, -1.392e-6, -8.337e-7, 5.578e-7
0.033, -1.392e-6, -8.307e-7, 5.608e-7
0.032, -1.392e-6, -8.337e-7, 5.578e-7
0.031, -1.392e-6, -8.307e-7, 5.608e-7
0.030, -1.388e-6, -8.276e-7, 5.608e-7
0.029, -1.392e-6, -8.307e-7, 5.608e-7
0.028, -1.388e-6, -8.246e-7, 5.639e-7
0.027, -1.385e-6, -8.246e-7, 5.608e-7
0.026, -1.388e-6, -8.276e-7, 5.608e-7
0.025, -1.388e-6, -8.246e-7, 5.639e-7
0.024, -1.382e-6, -8.215e-7, 5.608e-7
0.023, -1.388e-6, -8.276e-7, 5.608e-7
0.022, -1.388e-6, -8.215e-7, 5.669e-7
0.021, -1.385e-6, -8.215e-7, 5.639e-7
0.020, -1.388e-6, -8.246e-7, 5.639e-7
0.019, -1.385e-6, -8.185e-7, 5.669e-7
0.018, -1.385e-6, -8.185e-7, 5.669e-7
0.017, -1.385e-6, -8.215e-7, 5.639e-7
0.016, -1.379e-6, -8.154e-7, 5.639e-7
0.015, -1.379e-6, -8.154e-7, 5.639e-7
0.014, -1.385e-6, -8.185e-7, 5.669e-7
0.013, -1.379e-6, -8.124e-7, 5.669e-7
0.012, -1.379e-6, -8.124e-7, 5.669e-7
0.011, -1.382e-6, -8.154e-7, 5.669e-7
0.010, -1.379e-6, -8.124e-7, 5.669e-7
0.009, -1.379e-6, -8.124e-7, 5.669e-7
0.008, -1.379e-6, -8.093e-7, 5.700e-7
0.007, -1.379e-6, -8.093e-7, 5.700e-7
0.006, -1.376e-6, -8.093e-7, 5.669e-7
0.005, -1.373e-6, -8.063e-7, 5.669e-7
0.004, -1.373e-6, -8.032e-7, 5.700e-7
0.003, -1.376e-6, -8.063e-7, 5.700e-7
0.002, -1.373e-6, -8.032e-7, 5.700e-7
0.001, -1.370e-6, -8.032e-7, 5.669e-7
0.000, -1.370e-6, -8.002e-7, 5.700e-7
-0.001, -1.373e-6, -8.032e-7, 5.700e-7
-0.002, -1.370e-6, -8.002e-7, 5.700e-7
-0.003, -1.370e-6, -8.002e-7, 5.700e-7
-0.004, -1.367e-6, -7.971e-7, 5.700e-7
-0.005, -1.367e-6, -7.971e-7, 5.700e-7
-0.006, -1.364e-6, -7.941e-7, 5.700e-7
-0.007, -1.367e-6, -7.941e-7, 5.731e-7
-0.008, -1.361e-6, -7.910e-7, 5.700e-7
-0.009, -1.361e-6, -7.910e-7, 5.700e-7
-0.010, -1.361e-6, -7.910e-7, 5.700e-7
-0.011, -1.361e-6, -7.910e-7, 5.700e-7
-0.012, -1.361e-6, -7.910e-7, 5.700e-7
-0.013, -1.355e-6, -7.849e-7, 5.700e-7
-0.014, -1.355e-6, -7.849e-7, 5.700e-7
-0.015, -1.355e-6, -7.849e-7, 5.700e-7
-0.016, -1.355e-6, -7.818e-7, 5.731e-7
-0.017, -1.358e-6, -7.849e-7, 5.731e-7
-0.018, -1.352e-6, -7.818e-7, 5.700e-7
-0.019, -1.349e-6, -7.788e-7, 5.700e-7
-0.020, -1.349e-6, -7.788e-7, 5.700e-7
-0.021, -1.346e-6, -7.757e-7, 5.700e-7
-0.022, -1.346e-6, -7.757e-7, 5.700e-7
-0.023, -1.349e-6, -7.757e-7, 5.731e-7
-0.024, -1.346e-6, -7.727e-7, 5.731e-7
-0.025, -1.343e-6, -7.727e-7, 5.700e-7
-0.026, -1.346e-6, -7.757e-7, 5.700e-7
-0.027, -1.343e-6, -7.696e-7, 5.731e-7
-0.028, -1.340e-6, -7.696e-7, 5.700e-7
-0.029, -1.343e-6, -7.696e-7, 5.731e-7
-0.030, -1.334e-6, -7.635e-7, 5.700e-7
-0.031, -1.330e-6, -7.635e-7, 5.669e-7
-0.032, -1.337e-6, -7.666e-7, 5.700e-7
-0.033, -1.334e-6, -7.605e-7, 5.731e-7
-0.034, -1.330e-6, -7.605e-7, 5.700e-7
-0.035, -1.330e-6, -7.605e-7, 5.700e-7
-0.036, -1.330e-6, -7.574e-7, 5.731e-7
-0.037, -1.324e-6, -7.574e-7, 5.669e-7
-0.038, -1.327e-6, -7.574e-7, 5.700e-7
-0.039, -1.324e-6, -7.544e-7, 5.700e-7
-0.040, -1.321e-6, -7.544e-7, 5.669e-7
-0.041, -1.324e-6, -7.544e-7, 5.700e-7
-0.042, -1.318e-6, -7.483e-7, 5.700e-7
-0.043, -1.318e-6, -7.513e-7, 5.669e-7
-0.044, -1.321e-6, -7.513e-7, 5.700e-7
-0.045, -1.315e-6, -7.483e-7, 5.669e-7
-0.046, -1.315e-6, -7.483e-7, 5.669e-7
-0.047, -1.312e-6, -7.452e-7, 5.669e-7
-0.048, -1.312e-6, -7.452e-7, 5.669e-7
-0.049, -1.309e-6, -7.422e-7, 5.669e-7
-0.050, -1.312e-6, -7.422e-7, 5.700e-7
-0.051, -1.306e-6, -7.391e-7, 5.669e-7
-0.052, -1.303e-6, -7.391e-7, 5.639e-7
-0.053, -1.306e-6, -7.391e-7, 5.669e-7
-0.054, -1.303e-6, -7.361e-7, 5.669e-7
-0.055, -1.300e-6, -7.361e-7, 5.639e-7
-0.056, -1.303e-6, -7.361e-7, 5.669e-7
-0.057, -1.297e-6, -7.330e-7, 5.639e-7
-0.058, -1.297e-6, -7.330e-7, 5.639e-7
-0.059, -1.297e-6, -7.300e-7, 5.669e-7
-0.060, -1.294e-6, -7.300e-7, 5.639e-7
-0.061, -1.291e-6, -7.269e-7, 5.639e-7
-0.062, -1.291e-6, -7.269e-7, 5.639e-7
-0.063, -1.288e-6, -7.269e-7, 5.608e-7
-0.064, -1.285e-6, -7.239e-7, 5.608e-7
-0.065, -1.288e-6, -7.239e-7, 5.639e-7
-0.066, -1.285e-6, -7.239e-7, 5.608e-7
-0.067, -1.282e-6, -7.208e-7, 5.608e-7
-0.068, -1.279e-6, -7.178e-7, 5.608e-7
-0.069, -1.276e-6, -7.178e-7, 5.578e-7
-0.070, -1.279e-6, -7.178e-7, 5.608e-7
-0.071, -1.279e-6, -7.178e-7, 5.608e-7
-0.072, -1.276e-6, -7.178e-7, 5.578e-7
-0.073, -1.279e-6, -7.178e-7, 5.608e-7
-0.074, -1.276e-6, -7.147e-7, 5.608e-7
-0.075, -1.269e-6, -7.117e-7, 5.578e-7
-0.076, -1.269e-6, -7.117e-7, 5.578e-7
-0.077, -1.269e-6, -7.117e-7, 5.578e-7
-0.078, -1.263e-6, -7.086e-7, 5.547e-7
-0.079, -1.266e-6, -7.086e-7, 5.578e-7
-0.080, -1.263e-6, -7.086e-7, 5.547e-7
-0.081, -1.260e-6, -7.056e-7, 5.547e-7
-0.082, -1.260e-6, -7.056e-7, 5.547e-7
-0.083, -1.263e-6, -7.086e-7, 5.547e-7
-0.084, -1.263e-6, -7.056e-7, 5.578e-7
-0.085, -1.257e-6, -7.025e-7, 5.547e-7
-0.086, -1.257e-6, -7.025e-7, 5.547e-7
-0.087, -1.257e-6, -7.025e-7, 5.547e-7
-0.088, -1.254e-6, -6.995e-7, 5.547e-7
-0.089, -1.254e-6, -7.025e-7, 5.517e-7
-0.090, -1.257e-6, -6.995e-7, 5.578e-7
-0.091, -1.248e-6, -6.964e-7, 5.517e-7
-0.092, -1.251e-6, -6.964e-7, 5.547e-7
-0.093, -1.251e-6, -6.964e-7, 5.547e-7
-0.094, -1.248e-6, -6.964e-7, 5.517e-7
-0.095, -1.248e-6, -6.964e-7, 5.517e-7
-0.096, -1.248e-6, -6.934e-7, 5.547e-7
-0.097, -1.242e-6, -6.903e-7, 5.517e-7
-0.098, -1.242e-6, -6.934e-7, 5.486e-7
-0.099, -1.245e-6, -6.903e-7, 5.547e-7
-0.100, -1.236e-6, -6.873e-7, 5.486e-7
-0.101, -1.245e-6, -6.934e-7, 5.517e-7
-0.102, -1.239e-6, -6.873e-7, 5.517e-7
-0.103, -1.236e-6, -6.873e-7, 5.486e-7
-0.104, -1.233e-6, -6.873e-7, 5.456e-7
-0.105, -1.239e-6, -6.873e-7, 5.517e-7
-0.106, -1.233e-6, -6.842e-7, 5.486e-7
-0.107, -1.236e-6, -6.873e-7, 5.486e-7
-0.108, -1.233e-6, -6.842e-7, 5.486e-7
-0.109, -1.230e-6, -6.811e-7, 5.486e-7
-0.110, -1.230e-6, -6.842e-7, 5.456e-7
-0.111, -1.233e-6, -6.811e-7, 5.517e-7
-0.112, -1.227e-6, -6.811e-7, 5.456e-7
-0.113, -1.230e-6, -6.842e-7, 5.456e-7
-0.114, -1.230e-6, -6.811e-7, 5.486e-7
-0.115, -1.227e-6, -6.781e-7, 5.486e-7
-0.116, -1.224e-6, -6.781e-7, 5.456e-7
-0.117, -1.224e-6, -6.781e-7, 5.456e-7
-0.118, -1.224e-6, -6.781e-7, 5.456e-7
-0.119, -1.224e-6, -6.781e-7, 5.456e-7
-0.120, -1.227e-6, -6.781e-7, 5.486e-7
-0.121, -1.221e-6, -6.781e-7, 5.425e-7
-0.122, -1.221e-6, -6.750e-7, 5.456e-7
-0.123, -1.218e-6, -6.750e-7, 5.425e-7
-0.124, -1.221e-6, -6.750e-7, 5.456e-7
-0.125, -1.215e-6, -6.720e-7, 5.425e-7
-0.126, -1.221e-6, -6.750e-7, 5.456e-7
-0.127, -1.221e-6, -6.750e-7, 5.456e-7
-0.128, -1.221e-6, -6.750e-7, 5.456e-7
-0.129, -1.215e-6, -6.720e-7, 5.425e-7
-0.130, -1.215e-6, -6.720e-7, 5.425e-7
-0.131, -1.215e-6, -6.720e-7, 5.425e-7
-0.132, -1.211e-6, -6.689e-7, 5.425e-7
-0.133, -1.215e-6, -6.720e-7, 5.425e-7
-0.134, -1.211e-6, -6.689e-7, 5.425e-7
-0.135, -1.211e-6, -6.689e-7, 5.425e-7
-0.136, -1.215e-6, -6.720e-7, 5.425e-7
-0.137, -1.215e-6, -6.720e-7, 5.425e-7
-0.138, -1.211e-6, -6.689e-7, 5.425e-7
-0.139, -1.211e-6, -6.689e-7, 5.425e-7
-0.140, -1.215e-6, -6.720e-7, 5.425e-7
-0.141, -1.211e-6, -6.689e-7, 5.425e-7
-0.142, -1.211e-6, -6.689e-7, 5.425e-7
-0.143, -1.208e-6, -6.689e-7, 5.395e-7
-0.144, -1.205e-6, -6.659e-7, 5.395e-7
-0.145, -1.208e-6, -6.659e-7, 5.425e-7
-0.146, -1.205e-6, -6.659e-7, 5.395e-7
-0.147, -1.205e-6, -6.659e-7, 5.395e-7
-0.148, -1.205e-6, -6.628e-7, 5.425e-7
-0.149, -1.205e-6, -6.659e-7, 5.395e-7
-0.150, -1.205e-6, -6.659e-7, 5.395e-7
-0.151, -1.205e-6, -6.628e-7, 5.425e-7
-0.152, -1.196e-6, -6.598e-7, 5.364e-7
-0.153, -1.202e-6, -6.628e-7, 5.395e-7
-0.154, -1.202e-6, -6.598e-7, 5.425e-7
-0.155, -1.199e-6, -6.628e-7, 5.364e-7
-0.156, -1.199e-6, -6.598e-7, 5.395e-7
-0.157, -1.199e-6, -6.598e-7, 5.395e-7
-0.158, -1.196e-6, -6.598e-7, 5.364e-7
-0.159, -1.196e-6, -6.598e-7, 5.364e-7
-0.160, -1.199e-6, -6.598e-7, 5.395e-7
-0.161, -1.199e-6, -6.628e-7, 5.364e-7
-0.162, -1.196e-6, -6.598e-7, 5.364e-7
-0.163, -1.196e-6, -6.567e-7, 5.395e-7
-0.164, -1.190e-6, -6.567e-7, 5.334e-7
-0.165, -1.196e-6, -6.598e-7, 5.364e-7
-0.166, -1.196e-6, -6.567e-7, 5.395e-7
-0.167, -1.196e-6, -6.598e-7, 5.364e-7
-0.168, -1.193e-6, -6.567e-7, 5.364e-7
-0.169, -1.193e-6, -6.567e-7, 5.364e-7
-0.170, -1.193e-6, -6.567e-7, 5.364e-7
-0.171, -1.193e-6, -6.567e-7, 5.364e-7
-0.172, -1.187e-6, -6.537e-7, 5.334e-7
-0.173, -1.193e-6, -6.598e-7, 5.334e-7
-0.174, -1.190e-6, -6.537e-7, 5.364e-7
-0.175, -1.190e-6, -6.567e-7, 5.334e-7
-0.176, -1.184e-6, -6.506e-7, 5.334e-7
-0.177, -1.190e-6, -6.537e-7, 5.364e-7
-0.178, -1.187e-6, -6.537e-7, 5.334e-7
-0.179, -1.187e-6, -6.537e-7, 5.334e-7
-0.180, -1.187e-6, -6.506e-7, 5.364e-7
-0.181, -1.187e-6, -6.537e-7, 5.334e-7
-0.182, -1.184e-6, -6.506e-7, 5.334e-7
-0.183, -1.184e-6, -6.506e-7, 5.334e-7
-0.184, -1.184e-6, -6.506e-7, 5.334e-7
-0.185, -1.187e-6, -6.537e-7, 5.334e-7
-0.186, -1.181e-6, -6.476e-7, 5.334e-7
-0.187, -1.181e-6, -6.476e-7, 5.334e-7
-0.188, -1.187e-6, -6.537e-7, 5.334e-7
-0.189, -1.184e-6, -6.506e-7, 5.334e-7
-0.190, -1.178e-6, -6.476e-7, 5.303e-7
-0.191, -1.184e-6, -6.506e-7, 5.334e-7
-0.192, -1.178e-6, -6.445e-7, 5.334e-7
-0.193, -1.181e-6, -6.476e-7, 5.334e-7
-0.194, -1.178e-6, -6.445e-7, 5.334e-7
-0.195, -1.181e-6, -6.506e-7, 5.303e-7
-0.196, -1.178e-6, -6.445e-7, 5.334e-7
-0.197, -1.178e-6, -6.445e-7, 5.334e-7
-0.198, -1.178e-6, -6.445e-7, 5.334e-7
-0.199, -1.178e-6, -6.476e-7, 5.303e-7
-0.200, -1.178e-6, -6.445e-7, 5.334e-7
-0.201, -1.178e-6, -6.445e-7, 5.334e-7
-0.202, -1.178e-6, -6.445e-7, 5.334e-7
-0.203, -1.175e-6, -6.415e-7, 5.334e-7
-0.204, -1.175e-6, -6.445e-7, 5.303e-7
-0.205, -1.184e-6, -6.506e-7, 5.334e-7
-0.206, -1.172e-6, -6.415e-7, 5.303e-7
-0.207, -1.175e-6, -6.445e-7, 5.303e-7
-0.208, -1.175e-6, -6.415e-7, 5.334e-7
-0.209, -1.172e-6, -6.384e-7, 5.334e-7
-0.210, -1.172e-6, -6.415e-7, 5.303e-7
-0.211, -1.175e-6, -6.415e-7, 5.334e-7
-0.212, -1.172e-6, -6.415e-7, 5.303e-7
-0.213, -1.175e-6, -6.445e-7, 5.303e-7
-0.214, -1.178e-6, -6.445e-7, 5.334e-7
-0.215, -1.172e-6, -6.415e-7, 5.303e-7
-0.216, -1.175e-6, -6.445e-7, 5.303e-7
-0.217, -1.172e-6, -6.384e-7, 5.334e-7
-0.218, -1.169e-6, -6.384e-7, 5.303e-7
-0.219, -1.175e-6, -6.415e-7, 5.334e-7
-0.220, -1.175e-6, -6.415e-7, 5.334e-7
-0.221, -1.169e-6, -6.384e-7, 5.303e-7
-0.222, -1.172e-6, -6.415e-7, 5.303e-7
-0.223, -1.172e-6, -6.384e-7, 5.334e-7
-0.224, -1.169e-6, -6.354e-7, 5.334e-7
-0.225, -1.169e-6, -6.384e-7, 5.303e-7
-0.226, -1.169e-6, -6.354e-7, 5.334e-7
-0.227, -1.172e-6, -6.384e-7, 5.334e-7
-0.228, -1.169e-6, -6.384e-7, 5.303e-7
-0.229, -1.169e-6, -6.354e-7, 5.334e-7
-0.230, -1.169e-6, -6.384e-7, 5.303e-7
-0.231, -1.169e-6, -6.384e-7, 5.303e-7
-0.232, -1.181e-6, -6.476e-7, 5.334e-7
-0.233, -1.166e-6, -6.323e-7, 5.334e-7
-0.234, -1.172e-6, -6.415e-7, 5.303e-7
-0.235, -1.172e-6, -6.384e-7, 5.334e-7
-0.236, -1.187e-6, -6.567e-7, 5.303e-7
-0.237, -1.169e-6, -6.354e-7, 5.334e-7
-0.238, -1.169e-6, -6.354e-7, 5.334e-7
-0.239, -1.166e-6, -6.354e-7, 5.303e-7
-0.240, -1.172e-6, -6.384e-7, 5.334e-7
-0.241, -1.169e-6, -6.354e-7, 5.334e-7
-0.242, -1.169e-6, -6.354e-7, 5.334e-7
-0.243, -1.169e-6, -6.354e-7, 5.334e-7
-0.244, -1.166e-6, -6.323e-7, 5.334e-7
-0.245, -1.169e-6, -6.354e-7, 5.334e-7
-0.246, -1.172e-6, -6.384e-7, 5.334e-7
-0.247, -1.169e-6, -6.354e-7, 5.334e-7
-0.248, -1.169e-6, -6.354e-7, 5.334e-7
-0.249, -1.169e-6, -6.354e-7, 5.334e-7
-0.250, -1.166e-6, -6.323e-7, 5.334e-7
-0.251, -1.166e-6, -6.323e-7, 5.334e-7
-0.252, -1.169e-6, -6.354e-7, 5.334e-7
-0.253, -1.169e-6, -6.354e-7, 5.334e-7
-0.254, -1.172e-6, -6.384e-7, 5.334e-7
-0.255, -1.163e-6, -6.293e-7, 5.334e-7
-0.256, -1.166e-6, -6.323e-7, 5.334e-7
-0.257, -1.169e-6, -6.354e-7, 5.334e-7
-0.258, -1.169e-6, -6.354e-7, 5.334e-7
-0.259, -1.163e-6, -6.323e-7, 5.303e-7
-0.260, -1.169e-6, -6.354e-7, 5.334e-7
-0.261, -1.169e-6, -6.354e-7, 5.334e-7
-0.262, -1.163e-6, -6.293e-7, 5.334e-7
-0.263, -1.169e-6, -6.323e-7, 5.364e-7
-0.264, -1.169e-6, -6.354e-7, 5.334e-7
-0.265, -1.169e-6, -6.354e-7, 5.334e-7
-0.266, -1.169e-6, -6.354e-7, 5.334e-7
-0.267, -1.169e-6, -6.354e-7, 5.334e-7
-0.268, -1.169e-6, -6.354e-7, 5.334e-7
-0.269, -1.172e-6, -6.354e-7, 5.364e-7
-0.270, -1.169e-6, -6.384e-7, 5.303e-7
-0.271, -1.166e-6, -6.323e-7, 5.334e-7
-0.272, -1.160e-6, -6.262e-7, 5.334e-7
-0.273, -1.163e-6, -6.323e-7, 5.303e-7
-0.274, -1.166e-6, -6.323e-7, 5.334e-7
-0.275, -1.166e-6, -6.323e-7, 5.334e-7
-0.276, -1.169e-6, -6.384e-7, 5.303e-7
-0.277, -1.166e-6, -6.323e-7, 5.334e-7
-0.278, -1.163e-6, -6.293e-7, 5.334e-7
-0.279, -1.166e-6, -6.323e-7, 5.334e-7
-0.280, -1.166e-6, -6.323e-7, 5.334e-7
-0.281, -1.169e-6, -6.323e-7, 5.364e-7
-0.282, -1.163e-6, -6.293e-7, 5.334e-7
-0.283, -1.163e-6, -6.293e-7, 5.334e-7
-0.284, -1.163e-6, -6.293e-7, 5.334e-7
-0.285, -1.160e-6, -6.293e-7, 5.303e-7
-0.286, -1.172e-6, -6.384e-7, 5.334e-7
-0.287, -1.163e-6, -6.293e-7, 5.334e-7
-0.288, -1.166e-6, -6.323e-7, 5.334e-7
-0.289, -1.166e-6, -6.323e-7, 5.334e-7
-0.290, -1.163e-6, -6.262e-7, 5.364e-7
-0.291, -1.163e-6, -6.293e-7, 5.334e-7
-0.292, -1.166e-6, -6.293e-7, 5.364e-7
-0.293, -1.163e-6, -6.293e-7, 5.334e-7
-0.294, -1.160e-6, -6.293e-7, 5.303e-7
-0.295, -1.163e-6, -6.293e-7, 5.334e-7
-0.296, -1.166e-6, -6.293e-7, 5.364e-7
-0.297, -1.163e-6, -6.323e-7, 5.303e-7
-0.298, -1.160e-6, -6.293e-7, 5.303e-7
-0.299, -1.160e-6, -6.293e-7, 5.303e-7
-0.300, -1.160e-6, -6.262e-7, 5.334e-7
-0.301, -1.160e-6, -6.293e-7, 5.303e-7
-0.302, -1.169e-6, -6.354e-7, 5.334e-7
-0.303, -1.163e-6, -6.323e-7, 5.303e-7
-0.304, -1.166e-6, -6.323e-7, 5.334e-7
-0.305, -1.160e-6, -6.293e-7, 5.303e-7
-0.306, -1.157e-6, -6.262e-7, 5.303e-7
-0.307, -1.160e-6, -6.293e-7, 5.303e-7
-0.308, -1.175e-6, -6.415e-7, 5.334e-7
-0.309, -1.160e-6, -6.262e-7, 5.334e-7
-0.310, -1.160e-6, -6.262e-7, 5.334e-7
-0.311, -1.163e-6, -6.293e-7, 5.334e-7
-0.312, -1.160e-6, -6.293e-7, 5.303e-7
-0.313, -1.163e-6, -6.293e-7, 5.334e-7
-0.314, -1.160e-6, -6.293e-7, 5.303e-7
-0.315, -1.163e-6, -6.293e-7, 5.334e-7
-0.316, -1.160e-6, -6.262e-7, 5.334e-7
-0.317, -1.166e-6, -6.354e-7, 5.303e-7
-0.318, -1.157e-6, -6.262e-7, 5.303e-7
-0.319, -1.166e-6, -6.354e-7, 5.303e-7
-0.320, -1.160e-6, -6.293e-7, 5.303e-7
-0.321, -1.157e-6, -6.232e-7, 5.334e-7
-0.322, -1.163e-6, -6.323e-7, 5.303e-7
-0.323, -1.160e-6, -6.293e-7, 5.303e-7
-0.324, -1.163e-6, -6.293e-7, 5.334e-7
-0.325, -1.160e-6, -6.293e-7, 5.303e-7
-0.326, -1.160e-6, -6.293e-7, 5.303e-7
-0.327, -1.163e-6, -6.323e-7, 5.303e-7
-0.328, -1.160e-6, -6.323e-7, 5.273e-7
-0.329, -1.166e-6, -6.323e-7, 5.334e-7
-0.330, -1.163e-6, -6.323e-7, 5.303e-7
-0.331, -1.163e-6, -6.323e-7, 5.303e-7
-0.332, -1.166e-6, -6.354e-7, 5.303e-7
-0.333, -1.163e-6, -6.323e-7, 5.303e-7
-0.334, -1.166e-6, -6.384e-7, 5.273e-7
-0.335, -1.166e-6, -6.354e-7, 5.303e-7
-0.336, -1.160e-6, -6.293e-7, 5.303e-7
-0.337, -1.163e-6, -6.354e-7, 5.273e-7
-0.338, -1.166e-6, -6.354e-7, 5.303e-7
-0.339, -1.163e-6, -6.323e-7, 5.303e-7
-0.340, -1.169e-6, -6.415e-7, 5.273e-7
-0.341, -1.169e-6, -6.354e-7, 5.334e-7
-0.342, -1.169e-6, -6.384e-7, 5.303e-7
-0.343, -1.169e-6, -6.415e-7, 5.273e-7
-0.344, -1.169e-6, -6.384e-7, 5.303e-7
-0.345, -1.163e-6, -6.354e-7, 5.273e-7
-0.346, -1.166e-6, -6.384e-7, 5.273e-7
-0.347, -1.169e-6, -6.384e-7, 5.303e-7
-0.348, -1.166e-6, -6.354e-7, 5.303e-7
-0.349, -1.169e-6, -6.384e-7, 5.303e-7
-0.350, -1.172e-6, -6.415e-7, 5.303e-7
-0.351, -1.169e-6, -6.384e-7, 5.303e-7
-0.352, -1.175e-6, -6.476e-7, 5.273e-7
-0.353, -1.175e-6, -6.415e-7, 5.334e-7
-0.354, -1.178e-6, -6.476e-7, 5.303e-7
-0.355, -1.172e-6, -6.415e-7, 5.303e-7
-0.356, -1.172e-6, -6.415e-7, 5.303e-7
-0.357, -1.172e-6, -6.415e-7, 5.303e-7
-0.358, -1.178e-6, -6.476e-7, 5.303e-7
-0.359, -1.172e-6, -6.415e-7, 5.303e-7
-0.360, -1.175e-6, -6.445e-7, 5.303e-7
-0.361, -1.175e-6, -6.445e-7, 5.303e-7
-0.362, -1.178e-6, -6.445e-7, 5.334e-7
-0.363, -1.175e-6, -6.476e-7, 5.273e-7
-0.364, -1.178e-6, -6.476e-7, 5.303e-7
-0.365, -1.181e-6, -6.476e-7, 5.334e-7
-0.366, -1.181e-6, -6.506e-7, 5.303e-7
-0.367, -1.184e-6, -6.506e-7, 5.334e-7
-0.368, -1.190e-6, -6.598e-7, 5.303e-7
-0.369, -1.181e-6, -6.506e-7, 5.303e-7
-0.370, -1.187e-6, -6.567e-7, 5.303e-7
-0.371, -1.190e-6, -6.567e-7, 5.334e-7
-0.372, -1.181e-6, -6.506e-7, 5.303e-7
-0.373, -1.190e-6, -6.537e-7, 5.364e-7
-0.374, -1.187e-6, -6.567e-7, 5.303e-7
-0.375, -1.187e-6, -6.567e-7, 5.303e-7
-0.376, -1.193e-6, -6.598e-7, 5.334e-7
-0.377, -1.190e-6, -6.567e-7, 5.334e-7
-0.378, -1.190e-6, -6.567e-7, 5.334e-7
-0.379, -1.190e-6, -6.567e-7, 5.334e-7
-0.380, -1.190e-6, -6.598e-7, 5.303e-7
-0.381, -1.193e-6, -6.598e-7, 5.334e-7
-0.382, -1.196e-6, -6.628e-7, 5.334e-7
-0.383, -1.193e-6, -6.628e-7, 5.303e-7
-0.384, -1.196e-6, -6.628e-7, 5.334e-7
-0.385, -1.196e-6, -6.628e-7, 5.334e-7
-0.386, -1.199e-6, -6.659e-7, 5.334e-7
-0.387, -1.199e-6, -6.659e-7, 5.334e-7
-0.388, -1.196e-6, -6.659e-7, 5.303e-7
-0.389, -1.205e-6, -6.720e-7, 5.334e-7
-0.390, -1.199e-6, -6.659e-7, 5.334e-7
-0.391, -1.202e-6, -6.689e-7, 5.334e-7
-0.392, -1.205e-6, -6.720e-7, 5.334e-7
-0.393, -1.205e-6, -6.720e-7, 5.334e-7
-0.394, -1.205e-6, -6.720e-7, 5.334e-7
-0.395, -1.211e-6, -6.781e-7, 5.334e-7
-0.396, -1.211e-6, -6.750e-7, 5.364e-7
-0.397, -1.211e-6, -6.781e-7, 5.334e-7
-0.398, -1.211e-6, -6.781e-7, 5.334e-7
-0.399, -1.215e-6, -6.781e-7, 5.364e-7
-0.400, -1.211e-6, -6.781e-7, 5.334e-7
