Feb. 28, 2018   11:14:31
Square Wave Voltammetry
File: c:\users\electrochemist\desktop\2018\28022018_unbuffered_9,2\3_e5_9,2_0118_ph4,07_3.txt
Data Source:  Experiment
Instrument Model:  CHI1040A
Header: 
Note: 

Init E (V) = 0.5
Final E (V) = -0.05
Incr E (V) = 0.001
Amplitude (V) = 0.1
Frequency (Hz) = 150
Quiet Time (sec) = 0
Sensitivity (A/V) = 1e-6

Difference:

Forward:

Reverse:

Potential/V, Diff(i/A), For(i/A), Rev(i/A)

0.499, -8.203e-7, -2.079e-7, 6.124e-7
0.498, -1.023e-6, -4.798e-7, 5.428e-7
0.497, -1.014e-6, -4.959e-7, 5.181e-7
0.496, -1.008e-6, -5.060e-7, 5.022e-7
0.495, -1.004e-6, -5.091e-7, 4.952e-7
0.494, -1.001e-6, -5.121e-7, 4.888e-7
0.493, -9.979e-7, -5.155e-7, 4.824e-7
0.492, -9.982e-7, -5.176e-7, 4.806e-7
0.491, -9.939e-7, -5.176e-7, 4.763e-7
0.490, -9.918e-7, -5.219e-7, 4.699e-7
0.489, -9.921e-7, -5.219e-7, 4.702e-7
0.488, -9.902e-7, -5.228e-7, 4.675e-7
0.487, -9.915e-7, -5.277e-7, 4.638e-7
0.486, -9.899e-7, -5.255e-7, 4.644e-7
0.485, -9.902e-7, -5.280e-7, 4.623e-7
0.484, -9.899e-7, -5.304e-7, 4.595e-7
0.483, -9.912e-7, -5.304e-7, 4.607e-7
0.482, -9.921e-7, -5.310e-7, 4.610e-7
0.481, -9.921e-7, -5.344e-7, 4.577e-7
0.480, -9.924e-7, -5.353e-7, 4.571e-7
0.479, -9.921e-7, -5.353e-7, 4.568e-7
0.478, -9.930e-7, -5.368e-7, 4.562e-7
0.477, -9.933e-7, -5.380e-7, 4.552e-7
0.476, -9.954e-7, -5.399e-7, 4.556e-7
0.475, -9.948e-7, -5.411e-7, 4.537e-7
0.474, -9.982e-7, -5.420e-7, 4.562e-7
0.473, -9.973e-7, -5.429e-7, 4.543e-7
0.472, -9.985e-7, -5.451e-7, 4.534e-7
0.471, -1.000e-6, -5.463e-7, 4.537e-7
0.470, -1.002e-6, -5.475e-7, 4.549e-7
0.469, -1.000e-6, -5.481e-7, 4.522e-7
0.468, -1.003e-6, -5.490e-7, 4.537e-7
0.467, -1.002e-6, -5.496e-7, 4.528e-7
0.466, -1.004e-6, -5.521e-7, 4.522e-7
0.465, -1.008e-6, -5.530e-7, 4.546e-7
0.464, -1.006e-6, -5.527e-7, 4.531e-7
0.463, -1.010e-6, -5.570e-7, 4.531e-7
0.462, -1.012e-6, -5.576e-7, 4.540e-7
0.461, -1.011e-6, -5.570e-7, 4.537e-7
0.460, -1.011e-6, -5.591e-7, 4.516e-7
0.459, -1.016e-6, -5.618e-7, 4.540e-7
0.458, -1.016e-6, -5.622e-7, 4.537e-7
0.457, -1.018e-6, -5.655e-7, 4.522e-7
0.456, -1.019e-6, -5.652e-7, 4.537e-7
0.455, -1.021e-6, -5.658e-7, 4.552e-7
0.454, -1.022e-6, -5.676e-7, 4.546e-7
0.453, -1.024e-6, -5.695e-7, 4.543e-7
0.452, -1.025e-6, -5.692e-7, 4.559e-7
0.451, -1.024e-6, -5.704e-7, 4.540e-7
0.450, -1.031e-6, -5.741e-7, 4.565e-7
0.449, -1.030e-6, -5.747e-7, 4.556e-7
0.448, -1.032e-6, -5.768e-7, 4.556e-7
0.447, -1.034e-6, -5.786e-7, 4.552e-7
0.446, -1.034e-6, -5.774e-7, 4.568e-7
0.445, -1.038e-6, -5.814e-7, 4.562e-7
0.444, -1.039e-6, -5.817e-7, 4.577e-7
0.443, -1.039e-6, -5.817e-7, 4.574e-7
0.442, -1.043e-6, -5.856e-7, 4.571e-7
0.441, -1.045e-6, -5.872e-7, 4.580e-7
0.440, -1.049e-6, -5.887e-7, 4.598e-7
0.439, -1.050e-6, -5.918e-7, 4.586e-7
0.438, -1.052e-6, -5.914e-7, 4.604e-7
0.437, -1.052e-6, -5.914e-7, 4.604e-7
0.436, -1.053e-6, -5.936e-7, 4.595e-7
0.435, -1.056e-6, -5.945e-7, 4.617e-7
0.434, -1.059e-6, -5.960e-7, 4.632e-7
0.433, -1.059e-6, -5.991e-7, 4.598e-7
0.432, -1.064e-6, -6.006e-7, 4.635e-7
0.431, -1.064e-6, -6.009e-7, 4.629e-7
0.430, -1.068e-6, -6.067e-7, 4.610e-7
0.429, -1.069e-6, -6.052e-7, 4.641e-7
0.428, -1.070e-6, -6.058e-7, 4.647e-7
0.427, -1.072e-6, -6.091e-7, 4.626e-7
0.426, -1.075e-6, -6.095e-7, 4.656e-7
0.425, -1.078e-6, -6.107e-7, 4.671e-7
0.424, -1.082e-6, -6.152e-7, 4.668e-7
0.423, -1.084e-6, -6.152e-7, 4.687e-7
0.422, -1.082e-6, -6.149e-7, 4.668e-7
0.421, -1.085e-6, -6.192e-7, 4.659e-7
0.420, -1.090e-6, -6.207e-7, 4.696e-7
0.419, -1.089e-6, -6.207e-7, 4.687e-7
0.418, -1.092e-6, -6.235e-7, 4.681e-7
0.417, -1.098e-6, -6.259e-7, 4.720e-7
0.416, -1.097e-6, -6.247e-7, 4.726e-7
0.415, -1.099e-6, -6.299e-7, 4.690e-7
0.414, -1.104e-6, -6.305e-7, 4.736e-7
0.413, -1.103e-6, -6.302e-7, 4.732e-7
0.412, -1.107e-6, -6.329e-7, 4.742e-7
0.411, -1.112e-6, -6.357e-7, 4.760e-7
0.410, -1.109e-6, -6.351e-7, 4.736e-7
0.409, -1.114e-6, -6.387e-7, 4.757e-7
0.408, -1.120e-6, -6.412e-7, 4.784e-7
0.407, -1.118e-6, -6.409e-7, 4.775e-7
0.406, -1.120e-6, -6.436e-7, 4.766e-7
0.405, -1.124e-6, -6.452e-7, 4.784e-7
0.404, -1.128e-6, -6.464e-7, 4.815e-7
0.403, -1.129e-6, -6.500e-7, 4.790e-7
0.402, -1.131e-6, -6.503e-7, 4.806e-7
0.401, -1.135e-6, -6.525e-7, 4.830e-7
0.400, -1.137e-6, -6.552e-7, 4.818e-7
0.399, -1.141e-6, -6.555e-7, 4.852e-7
0.398, -1.140e-6, -6.574e-7, 4.830e-7
0.397, -1.145e-6, -6.601e-7, 4.845e-7
0.396, -1.147e-6, -6.613e-7, 4.861e-7
0.395, -1.147e-6, -6.610e-7, 4.861e-7
0.394, -1.151e-6, -6.632e-7, 4.879e-7
0.393, -1.154e-6, -6.647e-7, 4.894e-7
0.392, -1.153e-6, -6.665e-7, 4.870e-7
0.391, -1.161e-6, -6.702e-7, 4.906e-7
0.390, -1.161e-6, -6.708e-7, 4.897e-7
0.389, -1.163e-6, -6.708e-7, 4.925e-7
0.388, -1.167e-6, -6.754e-7, 4.913e-7
0.387, -1.169e-6, -6.754e-7, 4.937e-7
0.386, -1.170e-6, -6.760e-7, 4.940e-7
0.385, -1.175e-6, -6.806e-7, 4.949e-7
0.384, -1.178e-6, -6.815e-7, 4.967e-7
0.383, -1.179e-6, -6.824e-7, 4.971e-7
0.382, -1.182e-6, -6.854e-7, 4.967e-7
0.381, -1.185e-6, -6.860e-7, 4.989e-7
0.380, -1.184e-6, -6.860e-7, 4.977e-7
0.379, -1.190e-6, -6.906e-7, 4.998e-7
0.378, -1.191e-6, -6.903e-7, 5.010e-7
0.377, -1.194e-6, -6.915e-7, 5.022e-7
0.376, -1.197e-6, -6.958e-7, 5.016e-7
0.375, -1.200e-6, -6.976e-7, 5.028e-7
0.374, -1.202e-6, -6.973e-7, 5.047e-7
0.373, -1.208e-6, -7.007e-7, 5.071e-7
0.372, -1.208e-6, -7.010e-7, 5.068e-7
0.371, -1.209e-6, -7.022e-7, 5.068e-7
0.370, -1.213e-6, -7.053e-7, 5.074e-7
0.369, -1.216e-6, -7.056e-7, 5.108e-7
0.368, -1.216e-6, -7.062e-7, 5.102e-7
0.367, -1.221e-6, -7.098e-7, 5.114e-7
0.366, -1.223e-6, -7.098e-7, 5.135e-7
0.365, -1.225e-6, -7.108e-7, 5.144e-7
0.364, -1.228e-6, -7.156e-7, 5.123e-7
0.363, -1.233e-6, -7.153e-7, 5.172e-7
0.362, -1.232e-6, -7.156e-7, 5.166e-7
0.361, -1.239e-6, -7.211e-7, 5.178e-7
0.360, -1.238e-6, -7.196e-7, 5.187e-7
0.359, -1.242e-6, -7.208e-7, 5.212e-7
0.358, -1.244e-6, -7.236e-7, 5.205e-7
0.357, -1.248e-6, -7.239e-7, 5.239e-7
0.356, -1.248e-6, -7.254e-7, 5.224e-7
0.355, -1.251e-6, -7.269e-7, 5.239e-7
0.354, -1.253e-6, -7.269e-7, 5.260e-7
0.353, -1.254e-6, -7.279e-7, 5.263e-7
0.352, -1.259e-6, -7.333e-7, 5.257e-7
0.351, -1.262e-6, -7.324e-7, 5.300e-7
0.350, -1.262e-6, -7.324e-7, 5.294e-7
0.349, -1.265e-6, -7.358e-7, 5.291e-7
0.348, -1.270e-6, -7.373e-7, 5.324e-7
0.347, -1.270e-6, -7.376e-7, 5.321e-7
0.346, -1.273e-6, -7.391e-7, 5.340e-7
0.345, -1.277e-6, -7.410e-7, 5.358e-7
0.344, -1.277e-6, -7.413e-7, 5.361e-7
0.343, -1.280e-6, -7.428e-7, 5.370e-7
0.342, -1.283e-6, -7.434e-7, 5.395e-7
0.341, -1.287e-6, -7.465e-7, 5.404e-7
0.340, -1.286e-6, -7.480e-7, 5.379e-7
0.339, -1.291e-6, -7.480e-7, 5.428e-7
0.338, -1.293e-6, -7.483e-7, 5.444e-7
0.337, -1.294e-6, -7.510e-7, 5.434e-7
0.336, -1.298e-6, -7.517e-7, 5.462e-7
0.335, -1.298e-6, -7.514e-7, 5.462e-7
0.334, -1.300e-6, -7.544e-7, 5.453e-7
0.333, -1.302e-6, -7.538e-7, 5.486e-7
0.332, -1.303e-6, -7.529e-7, 5.505e-7
0.331, -1.305e-6, -7.568e-7, 5.486e-7
0.330, -1.311e-6, -7.578e-7, 5.532e-7
0.329, -1.310e-6, -7.568e-7, 5.529e-7
0.328, -1.312e-6, -7.590e-7, 5.532e-7
0.327, -1.316e-6, -7.602e-7, 5.563e-7
0.326, -1.316e-6, -7.593e-7, 5.572e-7
0.325, -1.319e-6, -7.629e-7, 5.556e-7
0.324, -1.324e-6, -7.645e-7, 5.599e-7
0.323, -1.321e-6, -7.620e-7, 5.587e-7
0.322, -1.324e-6, -7.648e-7, 5.593e-7
0.321, -1.327e-6, -7.657e-7, 5.608e-7
0.320, -1.328e-6, -7.654e-7, 5.627e-7
0.319, -1.330e-6, -7.684e-7, 5.620e-7
0.318, -1.333e-6, -7.663e-7, 5.663e-7
0.317, -1.333e-6, -7.660e-7, 5.666e-7
0.316, -1.337e-6, -7.706e-7, 5.663e-7
0.315, -1.337e-6, -7.684e-7, 5.685e-7
0.314, -1.337e-6, -7.684e-7, 5.682e-7
0.313, -1.339e-6, -7.700e-7, 5.694e-7
0.312, -1.345e-6, -7.712e-7, 5.736e-7
0.311, -1.340e-6, -7.684e-7, 5.715e-7
0.310, -1.345e-6, -7.724e-7, 5.727e-7
0.309, -1.346e-6, -7.715e-7, 5.743e-7
0.308, -1.346e-6, -7.706e-7, 5.758e-7
0.307, -1.349e-6, -7.748e-7, 5.743e-7
0.306, -1.353e-6, -7.742e-7, 5.791e-7
0.305, -1.352e-6, -7.715e-7, 5.801e-7
0.304, -1.354e-6, -7.755e-7, 5.785e-7
0.303, -1.357e-6, -7.752e-7, 5.822e-7
0.302, -1.358e-6, -7.742e-7, 5.840e-7
0.301, -1.356e-6, -7.745e-7, 5.816e-7
0.300, -1.358e-6, -7.752e-7, 5.831e-7
0.299, -1.359e-6, -7.733e-7, 5.852e-7
0.298, -1.360e-6, -7.767e-7, 5.834e-7
0.297, -1.363e-6, -7.752e-7, 5.883e-7
0.296, -1.361e-6, -7.739e-7, 5.868e-7
0.295, -1.364e-6, -7.752e-7, 5.886e-7
0.294, -1.368e-6, -7.770e-7, 5.913e-7
0.293, -1.365e-6, -7.745e-7, 5.907e-7
0.292, -1.369e-6, -7.776e-7, 5.910e-7
0.291, -1.370e-6, -7.755e-7, 5.947e-7
0.290, -1.369e-6, -7.758e-7, 5.935e-7
0.289, -1.369e-6, -7.758e-7, 5.935e-7
0.288, -1.372e-6, -7.767e-7, 5.956e-7
0.287, -1.371e-6, -7.748e-7, 5.962e-7
0.286, -1.371e-6, -7.752e-7, 5.956e-7
0.285, -1.374e-6, -7.758e-7, 5.978e-7
0.284, -1.374e-6, -7.730e-7, 6.008e-7
0.283, -1.374e-6, -7.745e-7, 5.999e-7
0.282, -1.379e-6, -7.758e-7, 6.029e-7
0.281, -1.375e-6, -7.739e-7, 6.008e-7
0.280, -1.377e-6, -7.748e-7, 6.026e-7
0.279, -1.378e-6, -7.739e-7, 6.045e-7
0.278, -1.379e-6, -7.745e-7, 6.048e-7
0.277, -1.379e-6, -7.755e-7, 6.039e-7
0.276, -1.380e-6, -7.736e-7, 6.063e-7
0.275, -1.379e-6, -7.721e-7, 6.066e-7
0.274, -1.384e-6, -7.752e-7, 6.087e-7
0.273, -1.382e-6, -7.730e-7, 6.087e-7
0.272, -1.381e-6, -7.718e-7, 6.093e-7
0.271, -1.381e-6, -7.730e-7, 6.081e-7
0.270, -1.383e-6, -7.718e-7, 6.112e-7
0.269, -1.383e-6, -7.706e-7, 6.124e-7
0.268, -1.382e-6, -7.718e-7, 6.103e-7
0.267, -1.384e-6, -7.709e-7, 6.133e-7
0.266, -1.381e-6, -7.681e-7, 6.124e-7
0.265, -1.381e-6, -7.687e-7, 6.124e-7
0.264, -1.383e-6, -7.675e-7, 6.155e-7
0.263, -1.383e-6, -7.672e-7, 6.161e-7
0.262, -1.383e-6, -7.684e-7, 6.145e-7
0.261, -1.381e-6, -7.654e-7, 6.158e-7
0.260, -1.380e-6, -7.636e-7, 6.167e-7
0.259, -1.380e-6, -7.645e-7, 6.155e-7
0.258, -1.381e-6, -7.633e-7, 6.182e-7
0.257, -1.381e-6, -7.623e-7, 6.188e-7
0.256, -1.383e-6, -7.642e-7, 6.188e-7
0.255, -1.382e-6, -7.620e-7, 6.197e-7
0.254, -1.381e-6, -7.605e-7, 6.203e-7
0.253, -1.380e-6, -7.608e-7, 6.191e-7
0.252, -1.382e-6, -7.605e-7, 6.219e-7
0.251, -1.381e-6, -7.584e-7, 6.222e-7
0.250, -1.379e-6, -7.596e-7, 6.197e-7
0.249, -1.382e-6, -7.578e-7, 6.243e-7
0.248, -1.379e-6, -7.565e-7, 6.225e-7
0.247, -1.378e-6, -7.568e-7, 6.216e-7
0.246, -1.379e-6, -7.559e-7, 6.234e-7
0.245, -1.378e-6, -7.541e-7, 6.240e-7
0.244, -1.379e-6, -7.559e-7, 6.231e-7
0.243, -1.380e-6, -7.532e-7, 6.267e-7
0.242, -1.374e-6, -7.498e-7, 6.246e-7
0.241, -1.375e-6, -7.523e-7, 6.231e-7
0.240, -1.377e-6, -7.514e-7, 6.258e-7
0.239, -1.372e-6, -7.474e-7, 6.243e-7
0.238, -1.372e-6, -7.483e-7, 6.240e-7
0.237, -1.373e-6, -7.465e-7, 6.267e-7
0.236, -1.372e-6, -7.456e-7, 6.264e-7
0.235, -1.372e-6, -7.459e-7, 6.261e-7
0.234, -1.370e-6, -7.440e-7, 6.264e-7
0.233, -1.369e-6, -7.425e-7, 6.267e-7
0.232, -1.368e-6, -7.437e-7, 6.246e-7
0.231, -1.368e-6, -7.413e-7, 6.264e-7
0.230, -1.366e-6, -7.388e-7, 6.274e-7
0.229, -1.365e-6, -7.404e-7, 6.243e-7
0.228, -1.365e-6, -7.373e-7, 6.277e-7
0.227, -1.363e-6, -7.367e-7, 6.267e-7
0.226, -1.363e-6, -7.376e-7, 6.249e-7
0.225, -1.363e-6, -7.358e-7, 6.274e-7
0.224, -1.359e-6, -7.340e-7, 6.252e-7
0.223, -1.359e-6, -7.340e-7, 6.249e-7
0.222, -1.358e-6, -7.318e-7, 6.264e-7
0.221, -1.356e-6, -7.297e-7, 6.267e-7
0.220, -1.355e-6, -7.306e-7, 6.243e-7
0.219, -1.356e-6, -7.300e-7, 6.264e-7
0.218, -1.350e-6, -7.257e-7, 6.246e-7
0.217, -1.352e-6, -7.272e-7, 6.243e-7
0.216, -1.351e-6, -7.245e-7, 6.261e-7
0.215, -1.348e-6, -7.227e-7, 6.252e-7
0.214, -1.347e-6, -7.233e-7, 6.234e-7
0.213, -1.348e-6, -7.221e-7, 6.258e-7
0.212, -1.343e-6, -7.196e-7, 6.234e-7
0.211, -1.341e-6, -7.199e-7, 6.216e-7
0.210, -1.344e-6, -7.199e-7, 6.243e-7
0.209, -1.339e-6, -7.178e-7, 6.216e-7
0.208, -1.341e-6, -7.184e-7, 6.222e-7
0.207, -1.337e-6, -7.153e-7, 6.219e-7
0.206, -1.335e-6, -7.132e-7, 6.216e-7
0.205, -1.334e-6, -7.144e-7, 6.194e-7
0.204, -1.335e-6, -7.120e-7, 6.228e-7
0.203, -1.331e-6, -7.105e-7, 6.203e-7
0.202, -1.329e-6, -7.117e-7, 6.173e-7
0.201, -1.330e-6, -7.095e-7, 6.200e-7
0.200, -1.325e-6, -7.059e-7, 6.194e-7
0.199, -1.325e-6, -7.074e-7, 6.173e-7
0.198, -1.326e-6, -7.053e-7, 6.203e-7
0.197, -1.319e-6, -7.025e-7, 6.161e-7
0.196, -1.319e-6, -7.031e-7, 6.155e-7
0.195, -1.320e-6, -7.025e-7, 6.173e-7
0.194, -1.317e-6, -7.013e-7, 6.161e-7
0.193, -1.315e-6, -7.010e-7, 6.136e-7
0.192, -1.314e-6, -6.989e-7, 6.151e-7
0.191, -1.314e-6, -6.976e-7, 6.164e-7
0.190, -1.312e-6, -6.995e-7, 6.130e-7
0.189, -1.310e-6, -6.961e-7, 6.142e-7
0.188, -1.308e-6, -6.946e-7, 6.130e-7
0.187, -1.305e-6, -6.937e-7, 6.109e-7
0.186, -1.304e-6, -6.934e-7, 6.109e-7
0.185, -1.302e-6, -6.915e-7, 6.103e-7
0.184, -1.299e-6, -6.915e-7, 6.075e-7
0.183, -1.302e-6, -6.903e-7, 6.115e-7
0.182, -1.295e-6, -6.882e-7, 6.066e-7
0.181, -1.292e-6, -6.876e-7, 6.042e-7
0.180, -1.293e-6, -6.864e-7, 6.066e-7
0.179, -1.287e-6, -6.827e-7, 6.042e-7
0.178, -1.286e-6, -6.845e-7, 6.017e-7
0.177, -1.289e-6, -6.848e-7, 6.042e-7
0.176, -1.283e-6, -6.806e-7, 6.026e-7
0.175, -1.285e-6, -6.830e-7, 6.017e-7
0.174, -1.283e-6, -6.806e-7, 6.023e-7
0.173, -1.279e-6, -6.790e-7, 5.996e-7
0.172, -1.279e-6, -6.796e-7, 5.990e-7
0.171, -1.278e-6, -6.772e-7, 6.005e-7
0.170, -1.275e-6, -6.751e-7, 5.996e-7
0.169, -1.273e-6, -6.751e-7, 5.974e-7
0.168, -1.273e-6, -6.738e-7, 5.987e-7
0.167, -1.266e-6, -6.711e-7, 5.947e-7
0.166, -1.268e-6, -6.732e-7, 5.944e-7
0.165, -1.269e-6, -6.723e-7, 5.971e-7
0.164, -1.260e-6, -6.687e-7, 5.916e-7
0.163, -1.261e-6, -6.699e-7, 5.910e-7
0.162, -1.262e-6, -6.677e-7, 5.941e-7
0.161, -1.255e-6, -6.653e-7, 5.898e-7
0.160, -1.255e-6, -6.665e-7, 5.880e-7
0.159, -1.253e-6, -6.644e-7, 5.886e-7
0.158, -1.253e-6, -6.638e-7, 5.889e-7
0.157, -1.250e-6, -6.626e-7, 5.871e-7
0.156, -1.249e-6, -6.622e-7, 5.871e-7
0.155, -1.244e-6, -6.604e-7, 5.834e-7
0.154, -1.242e-6, -6.598e-7, 5.819e-7
0.153, -1.240e-6, -6.580e-7, 5.822e-7
0.152, -1.240e-6, -6.589e-7, 5.816e-7
0.151, -1.236e-6, -6.580e-7, 5.776e-7
0.150, -1.236e-6, -6.561e-7, 5.794e-7
0.149, -1.231e-6, -6.540e-7, 5.773e-7
0.148, -1.230e-6, -6.546e-7, 5.755e-7
0.147, -1.233e-6, -6.546e-7, 5.779e-7
0.146, -1.228e-6, -6.525e-7, 5.752e-7
0.145, -1.225e-6, -6.528e-7, 5.724e-7
0.144, -1.225e-6, -6.519e-7, 5.733e-7
0.143, -1.222e-6, -6.482e-7, 5.739e-7
0.142, -1.221e-6, -6.510e-7, 5.703e-7
0.141, -1.220e-6, -6.488e-7, 5.715e-7
0.140, -1.216e-6, -6.458e-7, 5.706e-7
0.139, -1.215e-6, -6.482e-7, 5.669e-7
0.138, -1.213e-6, -6.445e-7, 5.685e-7
0.137, -1.209e-6, -6.418e-7, 5.672e-7
0.136, -1.209e-6, -6.445e-7, 5.645e-7
0.135, -1.209e-6, -6.430e-7, 5.657e-7
0.134, -1.204e-6, -6.409e-7, 5.630e-7
0.133, -1.205e-6, -6.424e-7, 5.627e-7
0.132, -1.204e-6, -6.409e-7, 5.630e-7
0.131, -1.201e-6, -6.391e-7, 5.624e-7
0.130, -1.198e-6, -6.397e-7, 5.581e-7
0.129, -1.197e-6, -6.384e-7, 5.587e-7
0.128, -1.196e-6, -6.366e-7, 5.590e-7
0.127, -1.193e-6, -6.369e-7, 5.556e-7
0.126, -1.193e-6, -6.366e-7, 5.559e-7
0.125, -1.187e-6, -6.326e-7, 5.544e-7
0.124, -1.187e-6, -6.342e-7, 5.529e-7
0.123, -1.186e-6, -6.314e-7, 5.547e-7
0.122, -1.183e-6, -6.308e-7, 5.520e-7
0.121, -1.183e-6, -6.314e-7, 5.517e-7
0.120, -1.181e-6, -6.293e-7, 5.520e-7
0.119, -1.177e-6, -6.275e-7, 5.498e-7
0.118, -1.179e-6, -6.308e-7, 5.480e-7
0.117, -1.174e-6, -6.265e-7, 5.474e-7
0.116, -1.173e-6, -6.250e-7, 5.477e-7
0.115, -1.171e-6, -6.272e-7, 5.440e-7
0.114, -1.172e-6, -6.259e-7, 5.459e-7
0.113, -1.165e-6, -6.229e-7, 5.425e-7
0.112, -1.165e-6, -6.232e-7, 5.419e-7
0.111, -1.167e-6, -6.232e-7, 5.440e-7
0.110, -1.160e-6, -6.201e-7, 5.398e-7
0.109, -1.162e-6, -6.220e-7, 5.398e-7
0.108, -1.162e-6, -6.207e-7, 5.416e-7
0.107, -1.155e-6, -6.180e-7, 5.373e-7
0.106, -1.157e-6, -6.201e-7, 5.364e-7
0.105, -1.155e-6, -6.174e-7, 5.379e-7
0.104, -1.152e-6, -6.171e-7, 5.349e-7
0.103, -1.149e-6, -6.162e-7, 5.331e-7
0.102, -1.152e-6, -6.156e-7, 5.361e-7
0.101, -1.149e-6, -6.153e-7, 5.337e-7
0.100, -1.148e-6, -6.146e-7, 5.331e-7
0.099, -1.145e-6, -6.128e-7, 5.318e-7
0.098, -1.141e-6, -6.107e-7, 5.306e-7
0.097, -1.141e-6, -6.110e-7, 5.300e-7
0.096, -1.139e-6, -6.107e-7, 5.288e-7
0.095, -1.137e-6, -6.088e-7, 5.285e-7
0.094, -1.137e-6, -6.095e-7, 5.273e-7
0.093, -1.137e-6, -6.082e-7, 5.285e-7
0.092, -1.135e-6, -6.079e-7, 5.273e-7
0.091, -1.132e-6, -6.079e-7, 5.245e-7
0.090, -1.131e-6, -6.061e-7, 5.251e-7
0.089, -1.127e-6, -6.040e-7, 5.230e-7
0.088, -1.129e-6, -6.064e-7, 5.227e-7
0.087, -1.129e-6, -6.049e-7, 5.242e-7
0.086, -1.123e-6, -6.018e-7, 5.215e-7
0.085, -1.124e-6, -6.030e-7, 5.205e-7
0.084, -1.122e-6, -6.000e-7, 5.218e-7
0.083, -1.120e-6, -5.997e-7, 5.199e-7
0.082, -1.117e-6, -6.003e-7, 5.169e-7
0.081, -1.119e-6, -5.997e-7, 5.193e-7
0.080, -1.114e-6, -5.963e-7, 5.178e-7
0.079, -1.113e-6, -5.985e-7, 5.147e-7
0.078, -1.114e-6, -5.972e-7, 5.169e-7
0.077, -1.111e-6, -5.954e-7, 5.160e-7
0.076, -1.111e-6, -5.960e-7, 5.151e-7
0.075, -1.111e-6, -5.948e-7, 5.166e-7
0.074, -1.109e-6, -5.945e-7, 5.141e-7
0.073, -1.106e-6, -5.936e-7, 5.123e-7
0.072, -1.103e-6, -5.924e-7, 5.108e-7
0.071, -1.103e-6, -5.908e-7, 5.117e-7
0.070, -1.101e-6, -5.924e-7, 5.089e-7
0.069, -1.102e-6, -5.905e-7, 5.117e-7
0.068, -1.099e-6, -5.893e-7, 5.096e-7
0.067, -1.097e-6, -5.896e-7, 5.077e-7
0.066, -1.096e-6, -5.872e-7, 5.089e-7
0.065, -1.093e-6, -5.866e-7, 5.062e-7
0.064, -1.093e-6, -5.875e-7, 5.056e-7
0.063, -1.091e-6, -5.853e-7, 5.059e-7
0.062, -1.088e-6, -5.823e-7, 5.059e-7
0.061, -1.088e-6, -5.838e-7, 5.044e-7
0.060, -1.088e-6, -5.823e-7, 5.053e-7
0.059, -1.086e-6, -5.823e-7, 5.035e-7
0.058, -1.085e-6, -5.826e-7, 5.025e-7
0.057, -1.082e-6, -5.799e-7, 5.025e-7
0.056, -1.083e-6, -5.799e-7, 5.028e-7
0.055, -1.080e-6, -5.799e-7, 4.998e-7
0.054, -1.079e-6, -5.786e-7, 5.007e-7
0.053, -1.077e-6, -5.765e-7, 5.007e-7
0.052, -1.077e-6, -5.783e-7, 4.986e-7
0.051, -1.075e-6, -5.756e-7, 4.992e-7
0.050, -1.074e-6, -5.750e-7, 4.989e-7
0.049, -1.072e-6, -5.750e-7, 4.970e-7
0.048, -1.072e-6, -5.747e-7, 4.970e-7
0.047, -1.069e-6, -5.722e-7, 4.967e-7
0.046, -1.069e-6, -5.734e-7, 4.958e-7
0.045, -1.069e-6, -5.728e-7, 4.964e-7
0.044, -1.065e-6, -5.701e-7, 4.952e-7
0.043, -1.064e-6, -5.704e-7, 4.934e-7
0.042, -1.065e-6, -5.710e-7, 4.937e-7
0.041, -1.061e-6, -5.676e-7, 4.934e-7
0.040, -1.061e-6, -5.686e-7, 4.925e-7
0.039, -1.061e-6, -5.680e-7, 4.928e-7
0.038, -1.056e-6, -5.637e-7, 4.919e-7
0.037, -1.056e-6, -5.655e-7, 4.903e-7
0.036, -1.056e-6, -5.649e-7, 4.913e-7
0.035, -1.054e-6, -5.637e-7, 4.903e-7
0.034, -1.053e-6, -5.646e-7, 4.882e-7
0.033, -1.053e-6, -5.628e-7, 4.906e-7
0.032, -1.051e-6, -5.603e-7, 4.906e-7
0.031, -1.048e-6, -5.612e-7, 4.867e-7
0.030, -1.046e-6, -5.594e-7, 4.870e-7
0.029, -1.046e-6, -5.591e-7, 4.870e-7
0.028, -1.045e-6, -5.594e-7, 4.858e-7
0.027, -1.045e-6, -5.582e-7, 4.873e-7
0.026, -1.042e-6, -5.567e-7, 4.851e-7
0.025, -1.041e-6, -5.570e-7, 4.836e-7
0.024, -1.040e-6, -5.567e-7, 4.833e-7
0.023, -1.038e-6, -5.539e-7, 4.839e-7
0.022, -1.038e-6, -5.561e-7, 4.824e-7
0.021, -1.039e-6, -5.536e-7, 4.855e-7
0.020, -1.034e-6, -5.524e-7, 4.821e-7
0.019, -1.033e-6, -5.530e-7, 4.797e-7
0.018, -1.034e-6, -5.518e-7, 4.827e-7
0.017, -1.032e-6, -5.515e-7, 4.809e-7
0.016, -1.029e-6, -5.503e-7, 4.787e-7
0.015, -1.031e-6, -5.499e-7, 4.806e-7
0.014, -1.029e-6, -5.490e-7, 4.800e-7
0.013, -1.027e-6, -5.481e-7, 4.787e-7
0.012, -1.027e-6, -5.481e-7, 4.787e-7
0.011, -1.024e-6, -5.463e-7, 4.778e-7
0.010, -1.024e-6, -5.469e-7, 4.769e-7
0.009, -1.023e-6, -5.451e-7, 4.778e-7
0.008, -1.021e-6, -5.451e-7, 4.757e-7
0.007, -1.020e-6, -5.442e-7, 4.754e-7
0.006, -1.021e-6, -5.435e-7, 4.772e-7
0.005, -1.017e-6, -5.426e-7, 4.745e-7
0.004, -1.017e-6, -5.429e-7, 4.739e-7
0.003, -1.014e-6, -5.405e-7, 4.732e-7
0.002, -1.015e-6, -5.405e-7, 4.745e-7
0.001, -1.012e-6, -5.408e-7, 4.714e-7
-0.000, -1.010e-6, -5.377e-7, 4.726e-7
-0.001, -1.009e-6, -5.390e-7, 4.702e-7
-0.002, -1.009e-6, -5.390e-7, 4.699e-7
-0.003, -1.008e-6, -5.377e-7, 4.702e-7
-0.004, -1.008e-6, -5.371e-7, 4.708e-7
-0.005, -1.004e-6, -5.356e-7, 4.687e-7
-0.006, -1.003e-6, -5.347e-7, 4.684e-7
-0.007, -1.002e-6, -5.338e-7, 4.678e-7
-0.008, -1.002e-6, -5.341e-7, 4.681e-7
-0.009, -1.002e-6, -5.332e-7, 4.693e-7
-0.010, -9.994e-7, -5.319e-7, 4.674e-7
-0.011, -9.994e-7, -5.335e-7, 4.659e-7
-0.012, -9.970e-7, -5.298e-7, 4.671e-7
-0.013, -9.939e-7, -5.301e-7, 4.638e-7
-0.014, -9.948e-7, -5.313e-7, 4.635e-7
-0.015, -9.945e-7, -5.289e-7, 4.656e-7
-0.016, -9.921e-7, -5.271e-7, 4.650e-7
-0.017, -9.902e-7, -5.286e-7, 4.616e-7
-0.018, -9.918e-7, -5.271e-7, 4.647e-7
-0.019, -9.899e-7, -5.271e-7, 4.629e-7
-0.020, -9.884e-7, -5.271e-7, 4.613e-7
-0.021, -9.872e-7, -5.255e-7, 4.616e-7
-0.022, -9.841e-7, -5.234e-7, 4.607e-7
-0.023, -9.851e-7, -5.243e-7, 4.607e-7
-0.024, -9.860e-7, -5.240e-7, 4.620e-7
-0.025, -9.811e-7, -5.228e-7, 4.583e-7
-0.026, -9.799e-7, -5.219e-7, 4.580e-7
-0.027, -9.805e-7, -5.228e-7, 4.577e-7
-0.028, -9.771e-7, -5.194e-7, 4.577e-7
-0.029, -9.756e-7, -5.213e-7, 4.543e-7
-0.030, -9.768e-7, -5.197e-7, 4.571e-7
-0.031, -9.731e-7, -5.173e-7, 4.559e-7
-0.032, -9.725e-7, -5.188e-7, 4.537e-7
-0.033, -9.731e-7, -5.176e-7, 4.555e-7
-0.034, -9.707e-7, -5.176e-7, 4.531e-7
-0.035, -9.698e-7, -5.170e-7, 4.528e-7
-0.036, -9.713e-7, -5.164e-7, 4.549e-7
-0.037, -9.683e-7, -5.167e-7, 4.516e-7
-0.038, -9.680e-7, -5.158e-7, 4.522e-7
-0.039, -9.655e-7, -5.142e-7, 4.513e-7
-0.040, -9.661e-7, -5.136e-7, 4.525e-7
-0.041, -9.631e-7, -5.136e-7, 4.494e-7
-0.042, -9.643e-7, -5.130e-7, 4.513e-7
-0.043, -9.603e-7, -5.115e-7, 4.488e-7
-0.044, -9.612e-7, -5.121e-7, 4.491e-7
-0.045, -9.609e-7, -5.118e-7, 4.491e-7
-0.046, -9.567e-7, -5.091e-7, 4.476e-7
-0.047, -9.579e-7, -5.106e-7, 4.473e-7
-0.048, -9.555e-7, -5.075e-7, 4.479e-7
-0.049, -9.561e-7, -5.088e-7, 4.473e-7
-0.050, -9.539e-7, -5.088e-7, 4.452e-7
