Feb. 28, 2018   11:14:35
Square Wave Voltammetry
File: c:\users\electrochemist\desktop\2018\28022018_unbuffered_9,2\3_e5_9,2_0118_ph4,07_4.txt
Data Source:  Experiment
Instrument Model:  CHI1040A
Header: 
Note: 

Init E (V) = 0.5
Final E (V) = -0.05
Incr E (V) = 0.001
Amplitude (V) = 0.1
Frequency (Hz) = 150
Quiet Time (sec) = 0
Sensitivity (A/V) = 1e-6

Difference:

Forward:

Reverse:
Ep = 0.224V
ip = 1.364e-7A
Ah = 1.559e-8VA

Potential/V, Diff(i/A), For(i/A), Rev(i/A)

0.499, -8.230e-7, -2.076e-7, 6.155e-7
0.498, -1.025e-6, -4.831e-7, 5.416e-7
0.497, -1.019e-6, -4.987e-7, 5.199e-7
0.496, -1.013e-6, -5.066e-7, 5.068e-7
0.495, -1.009e-6, -5.118e-7, 4.977e-7
0.494, -1.006e-6, -5.149e-7, 4.913e-7
0.493, -1.001e-6, -5.164e-7, 4.842e-7
0.492, -1.000e-6, -5.203e-7, 4.800e-7
0.491, -9.979e-7, -5.216e-7, 4.763e-7
0.490, -9.976e-7, -5.246e-7, 4.729e-7
0.489, -9.954e-7, -5.252e-7, 4.702e-7
0.488, -9.979e-7, -5.268e-7, 4.711e-7
0.487, -9.945e-7, -5.283e-7, 4.662e-7
0.486, -9.954e-7, -5.304e-7, 4.650e-7
0.485, -9.942e-7, -5.298e-7, 4.644e-7
0.484, -9.915e-7, -5.316e-7, 4.598e-7
0.483, -9.970e-7, -5.335e-7, 4.635e-7
0.482, -9.957e-7, -5.344e-7, 4.613e-7
0.481, -9.963e-7, -5.368e-7, 4.595e-7
0.480, -9.970e-7, -5.368e-7, 4.601e-7
0.479, -9.957e-7, -5.374e-7, 4.583e-7
0.478, -9.991e-7, -5.396e-7, 4.595e-7
0.477, -9.985e-7, -5.411e-7, 4.574e-7
0.476, -1.001e-6, -5.429e-7, 4.577e-7
0.475, -1.001e-6, -5.435e-7, 4.571e-7
0.474, -1.004e-6, -5.466e-7, 4.577e-7
0.473, -1.001e-6, -5.469e-7, 4.543e-7
0.472, -1.004e-6, -5.478e-7, 4.562e-7
0.471, -1.006e-6, -5.503e-7, 4.559e-7
0.470, -1.007e-6, -5.493e-7, 4.577e-7
0.469, -1.003e-6, -5.484e-7, 4.546e-7
0.468, -1.008e-6, -5.524e-7, 4.559e-7
0.467, -1.010e-6, -5.548e-7, 4.556e-7
0.466, -1.010e-6, -5.554e-7, 4.546e-7
0.465, -1.014e-6, -5.576e-7, 4.568e-7
0.464, -1.014e-6, -5.579e-7, 4.559e-7
0.463, -1.013e-6, -5.582e-7, 4.543e-7
0.462, -1.016e-6, -5.603e-7, 4.552e-7
0.461, -1.017e-6, -5.603e-7, 4.568e-7
0.460, -1.017e-6, -5.628e-7, 4.540e-7
0.459, -1.019e-6, -5.643e-7, 4.549e-7
0.458, -1.021e-6, -5.664e-7, 4.549e-7
0.457, -1.023e-6, -5.676e-7, 4.549e-7
0.456, -1.024e-6, -5.689e-7, 4.552e-7
0.455, -1.024e-6, -5.689e-7, 4.552e-7
0.454, -1.027e-6, -5.698e-7, 4.571e-7
0.453, -1.031e-6, -5.728e-7, 4.583e-7
0.452, -1.030e-6, -5.725e-7, 4.574e-7
0.451, -1.031e-6, -5.759e-7, 4.556e-7
0.450, -1.033e-6, -5.762e-7, 4.568e-7
0.449, -1.036e-6, -5.792e-7, 4.568e-7
0.448, -1.036e-6, -5.786e-7, 4.574e-7
0.447, -1.041e-6, -5.820e-7, 4.586e-7
0.446, -1.039e-6, -5.811e-7, 4.583e-7
0.445, -1.043e-6, -5.838e-7, 4.592e-7
0.444, -1.044e-6, -5.847e-7, 4.592e-7
0.443, -1.045e-6, -5.853e-7, 4.598e-7
0.442, -1.047e-6, -5.860e-7, 4.607e-7
0.441, -1.052e-6, -5.905e-7, 4.613e-7
0.440, -1.052e-6, -5.902e-7, 4.613e-7
0.439, -1.053e-6, -5.927e-7, 4.607e-7
0.438, -1.058e-6, -5.942e-7, 4.641e-7
0.437, -1.060e-6, -5.957e-7, 4.641e-7
0.436, -1.059e-6, -5.979e-7, 4.613e-7
0.435, -1.063e-6, -5.985e-7, 4.644e-7
0.434, -1.063e-6, -5.991e-7, 4.641e-7
0.433, -1.065e-6, -6.009e-7, 4.638e-7
0.432, -1.068e-6, -6.030e-7, 4.647e-7
0.431, -1.068e-6, -6.027e-7, 4.653e-7
0.430, -1.075e-6, -6.079e-7, 4.668e-7
0.429, -1.072e-6, -6.070e-7, 4.647e-7
0.428, -1.078e-6, -6.098e-7, 4.681e-7
0.427, -1.079e-6, -6.122e-7, 4.668e-7
0.426, -1.083e-6, -6.140e-7, 4.690e-7
0.425, -1.082e-6, -6.146e-7, 4.675e-7
0.424, -1.084e-6, -6.152e-7, 4.684e-7
0.423, -1.089e-6, -6.198e-7, 4.690e-7
0.422, -1.087e-6, -6.168e-7, 4.705e-7
0.421, -1.093e-6, -6.223e-7, 4.708e-7
0.420, -1.097e-6, -6.250e-7, 4.723e-7
0.419, -1.098e-6, -6.250e-7, 4.726e-7
0.418, -1.097e-6, -6.247e-7, 4.720e-7
0.417, -1.104e-6, -6.290e-7, 4.748e-7
0.416, -1.103e-6, -6.287e-7, 4.745e-7
0.415, -1.103e-6, -6.305e-7, 4.723e-7
0.414, -1.107e-6, -6.317e-7, 4.757e-7
0.413, -1.111e-6, -6.345e-7, 4.769e-7
0.412, -1.112e-6, -6.369e-7, 4.751e-7
0.411, -1.113e-6, -6.363e-7, 4.769e-7
0.410, -1.118e-6, -6.400e-7, 4.784e-7
0.409, -1.117e-6, -6.400e-7, 4.766e-7
0.408, -1.120e-6, -6.418e-7, 4.784e-7
0.407, -1.124e-6, -6.439e-7, 4.803e-7
0.406, -1.125e-6, -6.467e-7, 4.784e-7
0.405, -1.131e-6, -6.482e-7, 4.827e-7
0.404, -1.128e-6, -6.479e-7, 4.803e-7
0.403, -1.132e-6, -6.510e-7, 4.812e-7
0.402, -1.137e-6, -6.531e-7, 4.836e-7
0.401, -1.139e-6, -6.540e-7, 4.848e-7
0.400, -1.142e-6, -6.571e-7, 4.848e-7
0.399, -1.146e-6, -6.592e-7, 4.870e-7
0.398, -1.147e-6, -6.604e-7, 4.864e-7
0.397, -1.147e-6, -6.610e-7, 4.864e-7
0.396, -1.153e-6, -6.644e-7, 4.885e-7
0.395, -1.155e-6, -6.644e-7, 4.906e-7
0.394, -1.157e-6, -6.674e-7, 4.900e-7
0.393, -1.157e-6, -6.677e-7, 4.894e-7
0.392, -1.162e-6, -6.699e-7, 4.925e-7
0.391, -1.162e-6, -6.708e-7, 4.913e-7
0.390, -1.166e-6, -6.726e-7, 4.937e-7
0.389, -1.170e-6, -6.751e-7, 4.952e-7
0.388, -1.171e-6, -6.775e-7, 4.937e-7
0.387, -1.175e-6, -6.781e-7, 4.964e-7
0.386, -1.178e-6, -6.802e-7, 4.974e-7
0.385, -1.179e-6, -6.821e-7, 4.967e-7
0.384, -1.184e-6, -6.842e-7, 4.995e-7
0.383, -1.186e-6, -6.851e-7, 5.004e-7
0.382, -1.186e-6, -6.867e-7, 4.992e-7
0.381, -1.191e-6, -6.897e-7, 5.010e-7
0.380, -1.192e-6, -6.897e-7, 5.025e-7
0.379, -1.195e-6, -6.934e-7, 5.013e-7
0.378, -1.197e-6, -6.928e-7, 5.041e-7
0.377, -1.202e-6, -6.952e-7, 5.068e-7
0.376, -1.203e-6, -6.976e-7, 5.050e-7
0.375, -1.206e-6, -6.989e-7, 5.068e-7
0.374, -1.207e-6, -7.007e-7, 5.065e-7
0.373, -1.211e-6, -7.016e-7, 5.093e-7
0.372, -1.214e-6, -7.037e-7, 5.099e-7
0.371, -1.215e-6, -7.056e-7, 5.099e-7
0.370, -1.218e-6, -7.074e-7, 5.108e-7
0.369, -1.221e-6, -7.077e-7, 5.132e-7
0.368, -1.222e-6, -7.089e-7, 5.132e-7
0.367, -1.225e-6, -7.120e-7, 5.132e-7
0.366, -1.229e-6, -7.141e-7, 5.144e-7
0.365, -1.229e-6, -7.132e-7, 5.163e-7
0.364, -1.233e-6, -7.163e-7, 5.169e-7
0.363, -1.236e-6, -7.172e-7, 5.184e-7
0.362, -1.238e-6, -7.184e-7, 5.199e-7
0.361, -1.240e-6, -7.208e-7, 5.187e-7
0.360, -1.245e-6, -7.227e-7, 5.224e-7
0.359, -1.245e-6, -7.239e-7, 5.212e-7
0.358, -1.249e-6, -7.254e-7, 5.236e-7
0.357, -1.251e-6, -7.269e-7, 5.245e-7
0.356, -1.253e-6, -7.282e-7, 5.248e-7
0.355, -1.256e-6, -7.294e-7, 5.267e-7
0.354, -1.258e-6, -7.303e-7, 5.279e-7
0.353, -1.261e-6, -7.312e-7, 5.297e-7
0.352, -1.263e-6, -7.333e-7, 5.294e-7
0.351, -1.263e-6, -7.333e-7, 5.300e-7
0.350, -1.268e-6, -7.361e-7, 5.318e-7
0.349, -1.269e-6, -7.376e-7, 5.318e-7
0.348, -1.273e-6, -7.394e-7, 5.331e-7
0.347, -1.273e-6, -7.385e-7, 5.349e-7
0.346, -1.276e-6, -7.425e-7, 5.337e-7
0.345, -1.281e-6, -7.443e-7, 5.367e-7
0.344, -1.282e-6, -7.440e-7, 5.376e-7
0.343, -1.285e-6, -7.459e-7, 5.395e-7
0.342, -1.287e-6, -7.452e-7, 5.416e-7
0.341, -1.288e-6, -7.471e-7, 5.413e-7
0.340, -1.291e-6, -7.495e-7, 5.413e-7
0.339, -1.294e-6, -7.501e-7, 5.434e-7
0.338, -1.294e-6, -7.498e-7, 5.440e-7
0.337, -1.299e-6, -7.517e-7, 5.471e-7
0.336, -1.301e-6, -7.538e-7, 5.474e-7
0.335, -1.303e-6, -7.535e-7, 5.492e-7
0.334, -1.305e-6, -7.562e-7, 5.489e-7
0.333, -1.309e-6, -7.587e-7, 5.498e-7
0.332, -1.307e-6, -7.556e-7, 5.511e-7
0.331, -1.311e-6, -7.584e-7, 5.526e-7
0.330, -1.310e-6, -7.581e-7, 5.520e-7
0.329, -1.314e-6, -7.590e-7, 5.553e-7
0.328, -1.316e-6, -7.602e-7, 5.556e-7
0.327, -1.320e-6, -7.629e-7, 5.572e-7
0.326, -1.320e-6, -7.614e-7, 5.584e-7
0.325, -1.323e-6, -7.648e-7, 5.578e-7
0.324, -1.327e-6, -7.639e-7, 5.627e-7
0.323, -1.325e-6, -7.633e-7, 5.614e-7
0.322, -1.329e-6, -7.663e-7, 5.627e-7
0.321, -1.331e-6, -7.657e-7, 5.657e-7
0.320, -1.331e-6, -7.669e-7, 5.642e-7
0.319, -1.335e-6, -7.690e-7, 5.660e-7
0.318, -1.338e-6, -7.687e-7, 5.688e-7
0.317, -1.336e-6, -7.687e-7, 5.669e-7
0.316, -1.338e-6, -7.706e-7, 5.678e-7
0.315, -1.340e-6, -7.700e-7, 5.703e-7
0.314, -1.342e-6, -7.700e-7, 5.724e-7
0.313, -1.344e-6, -7.712e-7, 5.724e-7
0.312, -1.345e-6, -7.715e-7, 5.736e-7
0.311, -1.345e-6, -7.709e-7, 5.746e-7
0.310, -1.351e-6, -7.752e-7, 5.761e-7
0.309, -1.352e-6, -7.739e-7, 5.776e-7
0.308, -1.351e-6, -7.727e-7, 5.779e-7
0.307, -1.352e-6, -7.745e-7, 5.770e-7
0.306, -1.358e-6, -7.773e-7, 5.810e-7
0.305, -1.356e-6, -7.748e-7, 5.807e-7
0.304, -1.359e-6, -7.764e-7, 5.822e-7
0.303, -1.358e-6, -7.752e-7, 5.825e-7
0.302, -1.359e-6, -7.739e-7, 5.846e-7
0.301, -1.361e-6, -7.767e-7, 5.843e-7
0.300, -1.362e-6, -7.758e-7, 5.859e-7
0.299, -1.363e-6, -7.764e-7, 5.871e-7
0.298, -1.362e-6, -7.761e-7, 5.862e-7
0.297, -1.365e-6, -7.767e-7, 5.883e-7
0.296, -1.368e-6, -7.776e-7, 5.907e-7
0.295, -1.369e-6, -7.785e-7, 5.904e-7
0.294, -1.371e-6, -7.767e-7, 5.941e-7
0.293, -1.372e-6, -7.782e-7, 5.935e-7
0.292, -1.372e-6, -7.779e-7, 5.938e-7
0.291, -1.371e-6, -7.770e-7, 5.944e-7
0.290, -1.372e-6, -7.776e-7, 5.947e-7
0.289, -1.373e-6, -7.782e-7, 5.950e-7
0.288, -1.375e-6, -7.770e-7, 5.984e-7
0.287, -1.377e-6, -7.761e-7, 6.005e-7
0.286, -1.375e-6, -7.782e-7, 5.971e-7
0.285, -1.377e-6, -7.776e-7, 5.993e-7
0.284, -1.377e-6, -7.755e-7, 6.011e-7
0.283, -1.378e-6, -7.770e-7, 6.008e-7
0.282, -1.381e-6, -7.785e-7, 6.029e-7
0.281, -1.381e-6, -7.779e-7, 6.032e-7
0.280, -1.380e-6, -7.767e-7, 6.029e-7
0.279, -1.380e-6, -7.752e-7, 6.051e-7
0.278, -1.381e-6, -7.742e-7, 6.063e-7
0.277, -1.382e-6, -7.758e-7, 6.063e-7
0.276, -1.385e-6, -7.755e-7, 6.097e-7
0.275, -1.383e-6, -7.748e-7, 6.084e-7
0.274, -1.384e-6, -7.745e-7, 6.093e-7
0.273, -1.384e-6, -7.745e-7, 6.097e-7
0.272, -1.383e-6, -7.721e-7, 6.109e-7
0.271, -1.384e-6, -7.727e-7, 6.109e-7
0.270, -1.384e-6, -7.724e-7, 6.112e-7
0.269, -1.384e-6, -7.709e-7, 6.130e-7
0.268, -1.384e-6, -7.712e-7, 6.127e-7
0.267, -1.386e-6, -7.712e-7, 6.148e-7
0.266, -1.385e-6, -7.697e-7, 6.155e-7
0.265, -1.385e-6, -7.697e-7, 6.155e-7
0.264, -1.385e-6, -7.706e-7, 6.148e-7
0.263, -1.386e-6, -7.678e-7, 6.182e-7
0.262, -1.386e-6, -7.687e-7, 6.176e-7
0.261, -1.383e-6, -7.654e-7, 6.179e-7
0.260, -1.384e-6, -7.666e-7, 6.176e-7
0.259, -1.383e-6, -7.654e-7, 6.176e-7
0.258, -1.387e-6, -7.675e-7, 6.191e-7
0.257, -1.383e-6, -7.636e-7, 6.197e-7
0.256, -1.385e-6, -7.654e-7, 6.197e-7
0.255, -1.386e-6, -7.642e-7, 6.216e-7
0.254, -1.383e-6, -7.623e-7, 6.209e-7
0.253, -1.385e-6, -7.629e-7, 6.216e-7
0.252, -1.382e-6, -7.611e-7, 6.212e-7
0.251, -1.384e-6, -7.602e-7, 6.240e-7
0.250, -1.382e-6, -7.596e-7, 6.222e-7
0.249, -1.381e-6, -7.584e-7, 6.222e-7
0.248, -1.383e-6, -7.587e-7, 6.240e-7
0.247, -1.381e-6, -7.565e-7, 6.243e-7
0.246, -1.381e-6, -7.550e-7, 6.258e-7
0.245, -1.381e-6, -7.559e-7, 6.249e-7
0.244, -1.379e-6, -7.538e-7, 6.252e-7
0.243, -1.379e-6, -7.538e-7, 6.252e-7
0.242, -1.378e-6, -7.517e-7, 6.264e-7
0.241, -1.378e-6, -7.535e-7, 6.249e-7
0.240, -1.375e-6, -7.498e-7, 6.255e-7
0.239, -1.375e-6, -7.495e-7, 6.258e-7
0.238, -1.377e-6, -7.510e-7, 6.264e-7
0.237, -1.376e-6, -7.486e-7, 6.270e-7
0.236, -1.372e-6, -7.465e-7, 6.255e-7
0.235, -1.372e-6, -7.456e-7, 6.261e-7
0.234, -1.374e-6, -7.465e-7, 6.280e-7
0.233, -1.371e-6, -7.431e-7, 6.283e-7
0.232, -1.370e-6, -7.431e-7, 6.264e-7
0.231, -1.369e-6, -7.413e-7, 6.274e-7
0.230, -1.367e-6, -7.413e-7, 6.255e-7
0.229, -1.366e-6, -7.388e-7, 6.270e-7
0.228, -1.367e-6, -7.395e-7, 6.277e-7
0.227, -1.364e-6, -7.373e-7, 6.267e-7
0.226, -1.365e-6, -7.373e-7, 6.274e-7
0.225, -1.364e-6, -7.361e-7, 6.283e-7
0.224, -1.363e-6, -7.340e-7, 6.289e-7
0.223, -1.361e-6, -7.349e-7, 6.261e-7
0.222, -1.360e-6, -7.337e-7, 6.261e-7
0.221, -1.357e-6, -7.300e-7, 6.267e-7
0.220, -1.358e-6, -7.309e-7, 6.267e-7
0.219, -1.355e-6, -7.288e-7, 6.264e-7
0.218, -1.353e-6, -7.282e-7, 6.246e-7
0.217, -1.354e-6, -7.282e-7, 6.255e-7
0.216, -1.353e-6, -7.269e-7, 6.261e-7
0.215, -1.351e-6, -7.257e-7, 6.255e-7
0.214, -1.347e-6, -7.236e-7, 6.234e-7
0.213, -1.349e-6, -7.230e-7, 6.261e-7
0.212, -1.346e-6, -7.218e-7, 6.240e-7
0.211, -1.345e-6, -7.205e-7, 6.246e-7
0.210, -1.346e-6, -7.193e-7, 6.267e-7
0.209, -1.341e-6, -7.172e-7, 6.237e-7
0.208, -1.340e-6, -7.175e-7, 6.225e-7
0.207, -1.340e-6, -7.166e-7, 6.237e-7
0.206, -1.337e-6, -7.147e-7, 6.219e-7
0.205, -1.338e-6, -7.147e-7, 6.228e-7
0.204, -1.335e-6, -7.129e-7, 6.219e-7
0.203, -1.333e-6, -7.117e-7, 6.209e-7
0.202, -1.333e-6, -7.126e-7, 6.200e-7
0.201, -1.328e-6, -7.095e-7, 6.185e-7
0.200, -1.326e-6, -7.071e-7, 6.191e-7
0.199, -1.325e-6, -7.074e-7, 6.176e-7
0.198, -1.324e-6, -7.056e-7, 6.185e-7
0.197, -1.323e-6, -7.041e-7, 6.185e-7
0.196, -1.319e-6, -7.034e-7, 6.158e-7
0.195, -1.319e-6, -7.025e-7, 6.164e-7
0.194, -1.318e-6, -7.016e-7, 6.164e-7
0.193, -1.317e-6, -7.007e-7, 6.164e-7
0.192, -1.313e-6, -6.983e-7, 6.145e-7
0.191, -1.310e-6, -6.976e-7, 6.127e-7
0.190, -1.310e-6, -6.983e-7, 6.118e-7
0.189, -1.310e-6, -6.955e-7, 6.142e-7
0.188, -1.305e-6, -6.937e-7, 6.115e-7
0.187, -1.306e-6, -6.949e-7, 6.109e-7
0.186, -1.304e-6, -6.928e-7, 6.109e-7
0.185, -1.301e-6, -6.909e-7, 6.097e-7
0.184, -1.299e-6, -6.900e-7, 6.093e-7
0.183, -1.298e-6, -6.894e-7, 6.081e-7
0.182, -1.294e-6, -6.870e-7, 6.075e-7
0.181, -1.297e-6, -6.882e-7, 6.087e-7
0.180, -1.294e-6, -6.867e-7, 6.069e-7
0.179, -1.291e-6, -6.854e-7, 6.057e-7
0.178, -1.288e-6, -6.845e-7, 6.039e-7
0.177, -1.287e-6, -6.833e-7, 6.032e-7
0.176, -1.285e-6, -6.821e-7, 6.032e-7
0.175, -1.283e-6, -6.806e-7, 6.020e-7
0.174, -1.281e-6, -6.790e-7, 6.023e-7
0.173, -1.279e-6, -6.778e-7, 6.014e-7
0.172, -1.280e-6, -6.781e-7, 6.014e-7
0.171, -1.277e-6, -6.766e-7, 6.002e-7
0.170, -1.273e-6, -6.748e-7, 5.978e-7
0.169, -1.271e-6, -6.745e-7, 5.962e-7
0.168, -1.269e-6, -6.723e-7, 5.965e-7
0.167, -1.267e-6, -6.726e-7, 5.944e-7
0.166, -1.268e-6, -6.726e-7, 5.953e-7
0.165, -1.267e-6, -6.714e-7, 5.953e-7
0.164, -1.262e-6, -6.696e-7, 5.929e-7
0.163, -1.261e-6, -6.690e-7, 5.920e-7
0.162, -1.262e-6, -6.690e-7, 5.926e-7
0.161, -1.257e-6, -6.668e-7, 5.904e-7
0.160, -1.258e-6, -6.677e-7, 5.904e-7
0.159, -1.254e-6, -6.650e-7, 5.886e-7
0.158, -1.250e-6, -6.632e-7, 5.868e-7
0.157, -1.249e-6, -6.632e-7, 5.859e-7
0.156, -1.247e-6, -6.622e-7, 5.846e-7
0.155, -1.244e-6, -6.592e-7, 5.846e-7
0.154, -1.242e-6, -6.586e-7, 5.831e-7
0.153, -1.243e-6, -6.595e-7, 5.831e-7
0.152, -1.240e-6, -6.583e-7, 5.822e-7
0.151, -1.239e-6, -6.577e-7, 5.810e-7
0.150, -1.236e-6, -6.558e-7, 5.804e-7
0.149, -1.233e-6, -6.546e-7, 5.779e-7
0.148, -1.232e-6, -6.540e-7, 5.776e-7
0.147, -1.230e-6, -6.525e-7, 5.773e-7
0.146, -1.229e-6, -6.525e-7, 5.761e-7
0.145, -1.225e-6, -6.516e-7, 5.736e-7
0.144, -1.225e-6, -6.513e-7, 5.736e-7
0.143, -1.222e-6, -6.507e-7, 5.718e-7
0.142, -1.222e-6, -6.500e-7, 5.724e-7
0.141, -1.220e-6, -6.482e-7, 5.715e-7
0.140, -1.214e-6, -6.442e-7, 5.694e-7
0.139, -1.213e-6, -6.458e-7, 5.669e-7
0.138, -1.213e-6, -6.455e-7, 5.672e-7
0.137, -1.211e-6, -6.439e-7, 5.666e-7
0.136, -1.209e-6, -6.439e-7, 5.651e-7
0.135, -1.206e-6, -6.421e-7, 5.639e-7
0.134, -1.204e-6, -6.409e-7, 5.633e-7
0.133, -1.202e-6, -6.381e-7, 5.639e-7
0.132, -1.201e-6, -6.391e-7, 5.617e-7
0.131, -1.197e-6, -6.378e-7, 5.590e-7
0.130, -1.197e-6, -6.381e-7, 5.590e-7
0.129, -1.196e-6, -6.372e-7, 5.584e-7
0.128, -1.193e-6, -6.357e-7, 5.575e-7
0.127, -1.192e-6, -6.351e-7, 5.566e-7
0.126, -1.190e-6, -6.339e-7, 5.559e-7
0.125, -1.186e-6, -6.314e-7, 5.550e-7
0.124, -1.187e-6, -6.330e-7, 5.538e-7
0.123, -1.186e-6, -6.323e-7, 5.538e-7
0.122, -1.184e-6, -6.314e-7, 5.523e-7
0.121, -1.181e-6, -6.299e-7, 5.511e-7
0.120, -1.177e-6, -6.290e-7, 5.483e-7
0.119, -1.176e-6, -6.275e-7, 5.483e-7
0.118, -1.177e-6, -6.281e-7, 5.489e-7
0.117, -1.174e-6, -6.262e-7, 5.474e-7
0.116, -1.173e-6, -6.272e-7, 5.462e-7
0.115, -1.170e-6, -6.259e-7, 5.443e-7
0.114, -1.169e-6, -6.238e-7, 5.450e-7
0.113, -1.167e-6, -6.235e-7, 5.437e-7
0.112, -1.167e-6, -6.226e-7, 5.440e-7
0.111, -1.165e-6, -6.223e-7, 5.431e-7
0.110, -1.163e-6, -6.226e-7, 5.407e-7
0.109, -1.162e-6, -6.198e-7, 5.419e-7
0.108, -1.161e-6, -6.201e-7, 5.404e-7
0.107, -1.157e-6, -6.186e-7, 5.379e-7
0.106, -1.156e-6, -6.177e-7, 5.379e-7
0.105, -1.153e-6, -6.165e-7, 5.370e-7
0.104, -1.152e-6, -6.162e-7, 5.361e-7
0.103, -1.151e-6, -6.156e-7, 5.355e-7
0.102, -1.147e-6, -6.128e-7, 5.346e-7
0.101, -1.147e-6, -6.143e-7, 5.324e-7
0.100, -1.145e-6, -6.137e-7, 5.312e-7
0.099, -1.143e-6, -6.119e-7, 5.312e-7
0.098, -1.142e-6, -6.119e-7, 5.300e-7
0.097, -1.142e-6, -6.122e-7, 5.297e-7
0.096, -1.137e-6, -6.076e-7, 5.297e-7
0.095, -1.138e-6, -6.088e-7, 5.291e-7
0.094, -1.136e-6, -6.088e-7, 5.273e-7
0.093, -1.135e-6, -6.079e-7, 5.273e-7
0.092, -1.132e-6, -6.076e-7, 5.248e-7
0.091, -1.131e-6, -6.067e-7, 5.245e-7
0.090, -1.130e-6, -6.055e-7, 5.248e-7
0.089, -1.126e-6, -6.046e-7, 5.218e-7
0.088, -1.127e-6, -6.037e-7, 5.233e-7
0.087, -1.126e-6, -6.034e-7, 5.227e-7
0.086, -1.124e-6, -6.018e-7, 5.218e-7
0.085, -1.122e-6, -6.018e-7, 5.199e-7
0.084, -1.122e-6, -5.997e-7, 5.227e-7
0.083, -1.120e-6, -5.997e-7, 5.199e-7
0.082, -1.117e-6, -5.994e-7, 5.181e-7
0.081, -1.118e-6, -5.991e-7, 5.190e-7
0.080, -1.113e-6, -5.963e-7, 5.166e-7
0.079, -1.113e-6, -5.972e-7, 5.160e-7
0.078, -1.112e-6, -5.963e-7, 5.157e-7
0.077, -1.108e-6, -5.951e-7, 5.132e-7
0.076, -1.107e-6, -5.936e-7, 5.138e-7
0.075, -1.107e-6, -5.939e-7, 5.135e-7
0.074, -1.105e-6, -5.924e-7, 5.129e-7
0.073, -1.105e-6, -5.921e-7, 5.126e-7
0.072, -1.102e-6, -5.915e-7, 5.105e-7
0.071, -1.101e-6, -5.902e-7, 5.105e-7
0.070, -1.100e-6, -5.896e-7, 5.105e-7
0.069, -1.099e-6, -5.899e-7, 5.093e-7
0.068, -1.098e-6, -5.890e-7, 5.086e-7
0.067, -1.097e-6, -5.884e-7, 5.083e-7
0.066, -1.094e-6, -5.863e-7, 5.080e-7
0.065, -1.095e-6, -5.872e-7, 5.077e-7
0.064, -1.092e-6, -5.850e-7, 5.074e-7
0.063, -1.090e-6, -5.835e-7, 5.062e-7
0.062, -1.090e-6, -5.847e-7, 5.050e-7
0.061, -1.088e-6, -5.835e-7, 5.041e-7
0.060, -1.086e-6, -5.814e-7, 5.047e-7
0.059, -1.084e-6, -5.814e-7, 5.025e-7
0.058, -1.082e-6, -5.805e-7, 5.016e-7
0.057, -1.082e-6, -5.799e-7, 5.025e-7
0.056, -1.080e-6, -5.792e-7, 5.010e-7
0.055, -1.077e-6, -5.777e-7, 4.995e-7
0.054, -1.076e-6, -5.765e-7, 4.992e-7
0.053, -1.075e-6, -5.768e-7, 4.986e-7
0.052, -1.075e-6, -5.750e-7, 5.004e-7
0.051, -1.073e-6, -5.741e-7, 4.986e-7
0.050, -1.072e-6, -5.747e-7, 4.977e-7
0.049, -1.070e-6, -5.738e-7, 4.958e-7
0.048, -1.070e-6, -5.725e-7, 4.970e-7
0.047, -1.069e-6, -5.722e-7, 4.967e-7
0.046, -1.068e-6, -5.719e-7, 4.964e-7
0.045, -1.067e-6, -5.710e-7, 4.961e-7
0.044, -1.065e-6, -5.707e-7, 4.943e-7
0.043, -1.063e-6, -5.683e-7, 4.952e-7
0.042, -1.061e-6, -5.676e-7, 4.934e-7
0.041, -1.061e-6, -5.683e-7, 4.931e-7
0.040, -1.060e-6, -5.670e-7, 4.934e-7
0.039, -1.057e-6, -5.667e-7, 4.906e-7
0.038, -1.056e-6, -5.655e-7, 4.909e-7
0.037, -1.056e-6, -5.646e-7, 4.909e-7
0.036, -1.053e-6, -5.631e-7, 4.900e-7
0.035, -1.052e-6, -5.634e-7, 4.882e-7
0.034, -1.050e-6, -5.628e-7, 4.873e-7
0.033, -1.050e-6, -5.615e-7, 4.882e-7
0.032, -1.049e-6, -5.606e-7, 4.885e-7
0.031, -1.046e-6, -5.588e-7, 4.876e-7
0.030, -1.046e-6, -5.585e-7, 4.873e-7
0.029, -1.046e-6, -5.591e-7, 4.867e-7
0.028, -1.044e-6, -5.585e-7, 4.858e-7
0.027, -1.045e-6, -5.579e-7, 4.867e-7
0.026, -1.038e-6, -5.548e-7, 4.827e-7
0.025, -1.040e-6, -5.554e-7, 4.848e-7
0.024, -1.038e-6, -5.536e-7, 4.845e-7
0.023, -1.037e-6, -5.545e-7, 4.821e-7
0.022, -1.037e-6, -5.542e-7, 4.824e-7
0.021, -1.035e-6, -5.536e-7, 4.818e-7
0.020, -1.033e-6, -5.518e-7, 4.815e-7
0.019, -1.034e-6, -5.524e-7, 4.815e-7
0.018, -1.030e-6, -5.506e-7, 4.793e-7
0.017, -1.030e-6, -5.512e-7, 4.790e-7
0.016, -1.028e-6, -5.478e-7, 4.800e-7
0.015, -1.026e-6, -5.475e-7, 4.784e-7
0.014, -1.027e-6, -5.478e-7, 4.787e-7
0.013, -1.025e-6, -5.469e-7, 4.784e-7
0.012, -1.023e-6, -5.460e-7, 4.769e-7
0.011, -1.021e-6, -5.448e-7, 4.763e-7
0.010, -1.022e-6, -5.445e-7, 4.775e-7
0.009, -1.021e-6, -5.438e-7, 4.769e-7
0.008, -1.018e-6, -5.435e-7, 4.745e-7
0.007, -1.017e-6, -5.423e-7, 4.751e-7
0.006, -1.015e-6, -5.408e-7, 4.742e-7
0.005, -1.015e-6, -5.411e-7, 4.739e-7
0.004, -1.014e-6, -5.405e-7, 4.739e-7
0.003, -1.013e-6, -5.402e-7, 4.732e-7
0.002, -1.013e-6, -5.402e-7, 4.726e-7
0.001, -1.011e-6, -5.393e-7, 4.714e-7
-0.000, -1.010e-6, -5.384e-7, 4.717e-7
-0.001, -1.008e-6, -5.374e-7, 4.702e-7
-0.002, -1.009e-6, -5.374e-7, 4.720e-7
-0.003, -1.006e-6, -5.365e-7, 4.699e-7
-0.004, -1.002e-6, -5.341e-7, 4.684e-7
-0.005, -1.005e-6, -5.353e-7, 4.699e-7
-0.006, -1.004e-6, -5.344e-7, 4.693e-7
-0.007, -9.997e-7, -5.323e-7, 4.674e-7
-0.008, -9.991e-7, -5.326e-7, 4.665e-7
-0.009, -9.976e-7, -5.310e-7, 4.665e-7
-0.010, -9.973e-7, -5.319e-7, 4.653e-7
-0.011, -9.954e-7, -5.316e-7, 4.638e-7
-0.012, -9.948e-7, -5.295e-7, 4.653e-7
-0.013, -9.951e-7, -5.292e-7, 4.659e-7
-0.014, -9.930e-7, -5.280e-7, 4.650e-7
-0.015, -9.915e-7, -5.271e-7, 4.644e-7
-0.016, -9.905e-7, -5.268e-7, 4.638e-7
-0.017, -9.887e-7, -5.271e-7, 4.616e-7
-0.018, -9.869e-7, -5.249e-7, 4.620e-7
-0.019, -9.893e-7, -5.277e-7, 4.616e-7
-0.020, -9.866e-7, -5.249e-7, 4.616e-7
-0.021, -9.835e-7, -5.225e-7, 4.610e-7
-0.022, -9.829e-7, -5.234e-7, 4.595e-7
-0.023, -9.820e-7, -5.222e-7, 4.598e-7
-0.024, -9.802e-7, -5.213e-7, 4.589e-7
-0.025, -9.802e-7, -5.210e-7, 4.592e-7
-0.026, -9.796e-7, -5.219e-7, 4.577e-7
-0.027, -9.774e-7, -5.203e-7, 4.571e-7
-0.028, -9.762e-7, -5.194e-7, 4.568e-7
-0.029, -9.765e-7, -5.194e-7, 4.571e-7
-0.030, -9.738e-7, -5.191e-7, 4.546e-7
-0.031, -9.731e-7, -5.179e-7, 4.552e-7
-0.032, -9.722e-7, -5.167e-7, 4.555e-7
-0.033, -9.722e-7, -5.170e-7, 4.552e-7
-0.034, -9.655e-7, -5.142e-7, 4.513e-7
-0.035, -9.698e-7, -5.152e-7, 4.546e-7
-0.036, -9.664e-7, -5.146e-7, 4.519e-7
-0.037, -9.661e-7, -5.142e-7, 4.519e-7
-0.038, -9.655e-7, -5.136e-7, 4.519e-7
-0.039, -9.628e-7, -5.124e-7, 4.504e-7
-0.040, -9.628e-7, -5.121e-7, 4.507e-7
-0.041, -9.631e-7, -5.124e-7, 4.507e-7
-0.042, -9.591e-7, -5.100e-7, 4.491e-7
-0.043, -9.603e-7, -5.106e-7, 4.497e-7
-0.044, -9.588e-7, -5.103e-7, 4.485e-7
-0.045, -9.564e-7, -5.088e-7, 4.476e-7
-0.046, -9.564e-7, -5.091e-7, 4.473e-7
-0.047, -9.548e-7, -5.088e-7, 4.461e-7
-0.048, -9.548e-7, -5.075e-7, 4.473e-7
-0.049, -9.518e-7, -5.066e-7, 4.452e-7
-0.050, -9.527e-7, -5.075e-7, 4.452e-7
