Feb. 28, 2018   11:14:21
Square Wave Voltammetry
File: c:\users\electrochemist\desktop\2018\28022018_unbuffered_9,2\3_e5_9,2_0118_ph4,07_1.txt
Data Source:  Experiment
Instrument Model:  CHI1040A
Header: 
Note: 

Init E (V) = 0.5
Final E (V) = -0.05
Incr E (V) = 0.001
Amplitude (V) = 0.1
Frequency (Hz) = 150
Quiet Time (sec) = 0
Sensitivity (A/V) = 1e-6

Difference:
Ep = 0.264V
ip = -3.785e-7A
Ap = -8.924e-8VA

Forward:

Reverse:
Ep = 0.230V
ip = 2.136e-9A
Ah = 1.056e-9VA

Potential/V, Diff(i/A), For(i/A), Rev(i/A)

0.499, -6.820e-7, -2.131e-7, 4.690e-7
0.498, -8.767e-7, -4.520e-7, 4.247e-7
0.497, -8.831e-7, -4.639e-7, 4.192e-7
0.496, -8.828e-7, -4.679e-7, 4.150e-7
0.495, -8.865e-7, -4.730e-7, 4.134e-7
0.494, -8.883e-7, -4.740e-7, 4.144e-7
0.493, -8.874e-7, -4.737e-7, 4.137e-7
0.492, -8.886e-7, -4.779e-7, 4.107e-7
0.491, -8.895e-7, -4.770e-7, 4.125e-7
0.490, -8.877e-7, -4.773e-7, 4.104e-7
0.489, -8.914e-7, -4.798e-7, 4.116e-7
0.488, -8.941e-7, -4.825e-7, 4.116e-7
0.487, -8.932e-7, -4.819e-7, 4.113e-7
0.486, -8.947e-7, -4.856e-7, 4.092e-7
0.485, -8.953e-7, -4.846e-7, 4.107e-7
0.484, -8.978e-7, -4.862e-7, 4.116e-7
0.483, -8.975e-7, -4.877e-7, 4.098e-7
0.482, -9.008e-7, -4.889e-7, 4.119e-7
0.481, -9.008e-7, -4.907e-7, 4.101e-7
0.480, -9.008e-7, -4.917e-7, 4.092e-7
0.479, -9.057e-7, -4.932e-7, 4.125e-7
0.478, -9.039e-7, -4.929e-7, 4.110e-7
0.477, -9.054e-7, -4.956e-7, 4.098e-7
0.476, -9.082e-7, -4.965e-7, 4.116e-7
0.475, -9.082e-7, -4.972e-7, 4.110e-7
0.474, -9.097e-7, -4.993e-7, 4.104e-7
0.473, -9.124e-7, -4.990e-7, 4.134e-7
0.472, -9.109e-7, -4.993e-7, 4.116e-7
0.471, -9.146e-7, -5.030e-7, 4.116e-7
0.470, -9.161e-7, -5.020e-7, 4.140e-7
0.469, -9.170e-7, -5.036e-7, 4.134e-7
0.468, -9.185e-7, -5.060e-7, 4.125e-7
0.467, -9.201e-7, -5.066e-7, 4.134e-7
0.466, -9.197e-7, -5.069e-7, 4.128e-7
0.465, -9.246e-7, -5.109e-7, 4.137e-7
0.464, -9.262e-7, -5.118e-7, 4.144e-7
0.463, -9.252e-7, -5.112e-7, 4.140e-7
0.462, -9.283e-7, -5.155e-7, 4.128e-7
0.461, -9.307e-7, -5.158e-7, 4.150e-7
0.460, -9.316e-7, -5.158e-7, 4.159e-7
0.459, -9.338e-7, -5.185e-7, 4.153e-7
0.458, -9.350e-7, -5.188e-7, 4.162e-7
0.457, -9.374e-7, -5.207e-7, 4.168e-7
0.456, -9.365e-7, -5.222e-7, 4.144e-7
0.455, -9.390e-7, -5.231e-7, 4.159e-7
0.454, -9.417e-7, -5.249e-7, 4.168e-7
0.453, -9.423e-7, -5.258e-7, 4.165e-7
0.452, -9.475e-7, -5.289e-7, 4.186e-7
0.451, -9.457e-7, -5.286e-7, 4.171e-7
0.450, -9.493e-7, -5.319e-7, 4.174e-7
0.449, -9.521e-7, -5.332e-7, 4.189e-7
0.448, -9.530e-7, -5.335e-7, 4.195e-7
0.447, -9.548e-7, -5.350e-7, 4.198e-7
0.446, -9.573e-7, -5.365e-7, 4.208e-7
0.445, -9.585e-7, -5.371e-7, 4.214e-7
0.444, -9.619e-7, -5.411e-7, 4.208e-7
0.443, -9.631e-7, -5.408e-7, 4.223e-7
0.442, -9.634e-7, -5.423e-7, 4.211e-7
0.441, -9.677e-7, -5.451e-7, 4.226e-7
0.440, -9.701e-7, -5.454e-7, 4.247e-7
0.439, -9.698e-7, -5.469e-7, 4.229e-7
0.438, -9.762e-7, -5.515e-7, 4.247e-7
0.437, -9.771e-7, -5.509e-7, 4.263e-7
0.436, -9.777e-7, -5.527e-7, 4.250e-7
0.435, -9.783e-7, -5.548e-7, 4.235e-7
0.434, -9.823e-7, -5.557e-7, 4.266e-7
0.433, -9.823e-7, -5.557e-7, 4.266e-7
0.432, -9.860e-7, -5.603e-7, 4.256e-7
0.431, -9.915e-7, -5.631e-7, 4.284e-7
0.430, -9.905e-7, -5.618e-7, 4.287e-7
0.429, -9.936e-7, -5.646e-7, 4.290e-7
0.428, -9.982e-7, -5.670e-7, 4.311e-7
0.427, -9.991e-7, -5.686e-7, 4.305e-7
0.426, -9.994e-7, -5.701e-7, 4.293e-7
0.425, -1.004e-6, -5.713e-7, 4.327e-7
0.424, -1.004e-6, -5.731e-7, 4.311e-7
0.423, -1.008e-6, -5.753e-7, 4.327e-7
0.422, -1.014e-6, -5.789e-7, 4.351e-7
0.421, -1.012e-6, -5.780e-7, 4.342e-7
0.420, -1.015e-6, -5.811e-7, 4.336e-7
0.419, -1.021e-6, -5.835e-7, 4.375e-7
0.418, -1.020e-6, -5.841e-7, 4.360e-7
0.417, -1.023e-6, -5.866e-7, 4.360e-7
0.416, -1.029e-6, -5.908e-7, 4.385e-7
0.415, -1.029e-6, -5.902e-7, 4.385e-7
0.414, -1.032e-6, -5.930e-7, 4.391e-7
0.413, -1.033e-6, -5.914e-7, 4.415e-7
0.412, -1.034e-6, -5.930e-7, 4.409e-7
0.411, -1.040e-6, -5.991e-7, 4.409e-7
0.410, -1.044e-6, -6.009e-7, 4.427e-7
0.409, -1.042e-6, -6.000e-7, 4.421e-7
0.408, -1.047e-6, -6.033e-7, 4.440e-7
0.407, -1.049e-6, -6.033e-7, 4.458e-7
0.406, -1.050e-6, -6.052e-7, 4.452e-7
0.405, -1.054e-6, -6.098e-7, 4.443e-7
0.404, -1.061e-6, -6.125e-7, 4.482e-7
0.403, -1.061e-6, -6.119e-7, 4.488e-7
0.402, -1.065e-6, -6.165e-7, 4.488e-7
0.401, -1.066e-6, -6.171e-7, 4.485e-7
0.400, -1.066e-6, -6.177e-7, 4.479e-7
0.399, -1.071e-6, -6.204e-7, 4.504e-7
0.398, -1.073e-6, -6.204e-7, 4.525e-7
0.397, -1.078e-6, -6.238e-7, 4.540e-7
0.396, -1.078e-6, -6.247e-7, 4.537e-7
0.395, -1.081e-6, -6.272e-7, 4.534e-7
0.394, -1.085e-6, -6.293e-7, 4.556e-7
0.393, -1.087e-6, -6.305e-7, 4.568e-7
0.392, -1.090e-6, -6.333e-7, 4.568e-7
0.391, -1.092e-6, -6.345e-7, 4.580e-7
0.390, -1.095e-6, -6.375e-7, 4.571e-7
0.389, -1.100e-6, -6.397e-7, 4.607e-7
0.388, -1.102e-6, -6.406e-7, 4.610e-7
0.387, -1.105e-6, -6.430e-7, 4.617e-7
0.386, -1.110e-6, -6.452e-7, 4.650e-7
0.385, -1.110e-6, -6.458e-7, 4.641e-7
0.384, -1.112e-6, -6.476e-7, 4.644e-7
0.383, -1.117e-6, -6.500e-7, 4.668e-7
0.382, -1.116e-6, -6.510e-7, 4.650e-7
0.381, -1.122e-6, -6.546e-7, 4.675e-7
0.380, -1.127e-6, -6.558e-7, 4.708e-7
0.379, -1.127e-6, -6.574e-7, 4.696e-7
0.378, -1.130e-6, -6.592e-7, 4.705e-7
0.377, -1.134e-6, -6.613e-7, 4.726e-7
0.376, -1.135e-6, -6.625e-7, 4.729e-7
0.375, -1.138e-6, -6.647e-7, 4.732e-7
0.374, -1.144e-6, -6.680e-7, 4.763e-7
0.373, -1.144e-6, -6.680e-7, 4.757e-7
0.372, -1.150e-6, -6.729e-7, 4.766e-7
0.371, -1.153e-6, -6.732e-7, 4.794e-7
0.370, -1.154e-6, -6.745e-7, 4.794e-7
0.369, -1.157e-6, -6.760e-7, 4.806e-7
0.368, -1.161e-6, -6.778e-7, 4.830e-7
0.367, -1.161e-6, -6.790e-7, 4.824e-7
0.366, -1.168e-6, -6.848e-7, 4.830e-7
0.365, -1.169e-6, -6.839e-7, 4.852e-7
0.364, -1.168e-6, -6.836e-7, 4.845e-7
0.363, -1.176e-6, -6.885e-7, 4.873e-7
0.362, -1.178e-6, -6.885e-7, 4.891e-7
0.361, -1.181e-6, -6.915e-7, 4.894e-7
0.360, -1.184e-6, -6.925e-7, 4.916e-7
0.359, -1.186e-6, -6.931e-7, 4.928e-7
0.358, -1.190e-6, -6.952e-7, 4.943e-7
0.357, -1.193e-6, -6.986e-7, 4.946e-7
0.356, -1.197e-6, -7.001e-7, 4.964e-7
0.355, -1.199e-6, -7.007e-7, 4.980e-7
0.354, -1.203e-6, -7.041e-7, 4.989e-7
0.353, -1.203e-6, -7.034e-7, 4.995e-7
0.352, -1.206e-6, -7.044e-7, 5.013e-7
0.351, -1.211e-6, -7.089e-7, 5.016e-7
0.350, -1.210e-6, -7.068e-7, 5.035e-7
0.349, -1.215e-6, -7.105e-7, 5.041e-7
0.348, -1.218e-6, -7.129e-7, 5.053e-7
0.347, -1.224e-6, -7.144e-7, 5.093e-7
0.346, -1.224e-6, -7.156e-7, 5.083e-7
0.345, -1.226e-6, -7.178e-7, 5.083e-7
0.344, -1.229e-6, -7.190e-7, 5.099e-7
0.343, -1.232e-6, -7.202e-7, 5.114e-7
0.342, -1.233e-6, -7.221e-7, 5.114e-7
0.341, -1.239e-6, -7.224e-7, 5.163e-7
0.340, -1.240e-6, -7.236e-7, 5.169e-7
0.339, -1.243e-6, -7.269e-7, 5.157e-7
0.338, -1.246e-6, -7.269e-7, 5.190e-7
0.337, -1.248e-6, -7.282e-7, 5.199e-7
0.336, -1.251e-6, -7.300e-7, 5.205e-7
0.335, -1.253e-6, -7.306e-7, 5.224e-7
0.334, -1.254e-6, -7.306e-7, 5.236e-7
0.333, -1.258e-6, -7.343e-7, 5.233e-7
0.332, -1.262e-6, -7.343e-7, 5.276e-7
0.331, -1.262e-6, -7.355e-7, 5.267e-7
0.330, -1.266e-6, -7.376e-7, 5.282e-7
0.329, -1.268e-6, -7.373e-7, 5.303e-7
0.328, -1.269e-6, -7.385e-7, 5.300e-7
0.327, -1.273e-6, -7.413e-7, 5.321e-7
0.326, -1.274e-6, -7.398e-7, 5.346e-7
0.325, -1.280e-6, -7.428e-7, 5.367e-7
0.324, -1.283e-6, -7.459e-7, 5.370e-7
0.323, -1.284e-6, -7.452e-7, 5.386e-7
0.322, -1.284e-6, -7.449e-7, 5.392e-7
0.321, -1.286e-6, -7.456e-7, 5.404e-7
0.320, -1.291e-6, -7.486e-7, 5.428e-7
0.319, -1.290e-6, -7.483e-7, 5.416e-7
0.318, -1.293e-6, -7.495e-7, 5.437e-7
0.317, -1.297e-6, -7.514e-7, 5.453e-7
0.316, -1.298e-6, -7.504e-7, 5.471e-7
0.315, -1.302e-6, -7.538e-7, 5.480e-7
0.314, -1.305e-6, -7.538e-7, 5.511e-7
0.313, -1.306e-6, -7.550e-7, 5.508e-7
0.312, -1.307e-6, -7.562e-7, 5.508e-7
0.311, -1.311e-6, -7.571e-7, 5.541e-7
0.310, -1.311e-6, -7.565e-7, 5.544e-7
0.309, -1.310e-6, -7.565e-7, 5.532e-7
0.308, -1.312e-6, -7.562e-7, 5.563e-7
0.307, -1.317e-6, -7.596e-7, 5.572e-7
0.306, -1.319e-6, -7.602e-7, 5.590e-7
0.305, -1.321e-6, -7.602e-7, 5.605e-7
0.304, -1.321e-6, -7.608e-7, 5.605e-7
0.303, -1.324e-6, -7.620e-7, 5.624e-7
0.302, -1.326e-6, -7.614e-7, 5.648e-7
0.301, -1.327e-6, -7.626e-7, 5.648e-7
0.300, -1.328e-6, -7.626e-7, 5.654e-7
0.299, -1.329e-6, -7.617e-7, 5.672e-7
0.298, -1.334e-6, -7.645e-7, 5.691e-7
0.297, -1.336e-6, -7.660e-7, 5.697e-7
0.296, -1.338e-6, -7.651e-7, 5.724e-7
0.295, -1.336e-6, -7.651e-7, 5.712e-7
0.294, -1.339e-6, -7.648e-7, 5.743e-7
0.293, -1.342e-6, -7.645e-7, 5.773e-7
0.292, -1.341e-6, -7.657e-7, 5.758e-7
0.291, -1.342e-6, -7.666e-7, 5.755e-7
0.290, -1.346e-6, -7.663e-7, 5.797e-7
0.289, -1.346e-6, -7.666e-7, 5.791e-7
0.288, -1.348e-6, -7.663e-7, 5.813e-7
0.287, -1.349e-6, -7.666e-7, 5.828e-7
0.286, -1.349e-6, -7.672e-7, 5.822e-7
0.285, -1.347e-6, -7.654e-7, 5.813e-7
0.284, -1.351e-6, -7.666e-7, 5.846e-7
0.283, -1.353e-6, -7.672e-7, 5.855e-7
0.282, -1.352e-6, -7.672e-7, 5.852e-7
0.281, -1.356e-6, -7.678e-7, 5.880e-7
0.280, -1.355e-6, -7.669e-7, 5.883e-7
0.279, -1.357e-6, -7.672e-7, 5.901e-7
0.278, -1.357e-6, -7.663e-7, 5.904e-7
0.277, -1.357e-6, -7.663e-7, 5.910e-7
0.276, -1.360e-6, -7.675e-7, 5.926e-7
0.275, -1.360e-6, -7.669e-7, 5.932e-7
0.274, -1.361e-6, -7.666e-7, 5.944e-7
0.273, -1.363e-6, -7.669e-7, 5.956e-7
0.272, -1.363e-6, -7.660e-7, 5.974e-7
0.271, -1.363e-6, -7.660e-7, 5.965e-7
0.270, -1.364e-6, -7.663e-7, 5.978e-7
0.269, -1.365e-6, -7.660e-7, 5.990e-7
0.268, -1.364e-6, -7.654e-7, 5.984e-7
0.267, -1.365e-6, -7.660e-7, 5.993e-7
0.266, -1.366e-6, -7.651e-7, 6.005e-7
0.265, -1.364e-6, -7.636e-7, 6.005e-7
0.264, -1.370e-6, -7.663e-7, 6.039e-7
0.263, -1.367e-6, -7.626e-7, 6.042e-7
0.262, -1.368e-6, -7.642e-7, 6.039e-7
0.261, -1.369e-6, -7.633e-7, 6.057e-7
0.260, -1.369e-6, -7.629e-7, 6.057e-7
0.259, -1.370e-6, -7.633e-7, 6.063e-7
0.258, -1.369e-6, -7.620e-7, 6.069e-7
0.257, -1.367e-6, -7.605e-7, 6.069e-7
0.256, -1.370e-6, -7.605e-7, 6.093e-7
0.255, -1.370e-6, -7.608e-7, 6.087e-7
0.254, -1.367e-6, -7.581e-7, 6.087e-7
0.253, -1.368e-6, -7.581e-7, 6.103e-7
0.252, -1.370e-6, -7.590e-7, 6.106e-7
0.251, -1.369e-6, -7.562e-7, 6.127e-7
0.250, -1.368e-6, -7.578e-7, 6.103e-7
0.249, -1.368e-6, -7.559e-7, 6.121e-7
0.248, -1.369e-6, -7.559e-7, 6.133e-7
0.247, -1.369e-6, -7.541e-7, 6.148e-7
0.246, -1.370e-6, -7.556e-7, 6.145e-7
0.245, -1.369e-6, -7.538e-7, 6.155e-7
0.244, -1.370e-6, -7.547e-7, 6.148e-7
0.243, -1.368e-6, -7.523e-7, 6.161e-7
0.242, -1.368e-6, -7.520e-7, 6.161e-7
0.241, -1.367e-6, -7.504e-7, 6.170e-7
0.240, -1.365e-6, -7.489e-7, 6.164e-7
0.239, -1.367e-6, -7.489e-7, 6.179e-7
0.238, -1.365e-6, -7.483e-7, 6.167e-7
0.237, -1.366e-6, -7.483e-7, 6.173e-7
0.236, -1.366e-6, -7.474e-7, 6.182e-7
0.235, -1.364e-6, -7.456e-7, 6.185e-7
0.234, -1.364e-6, -7.449e-7, 6.188e-7
0.233, -1.362e-6, -7.440e-7, 6.182e-7
0.232, -1.363e-6, -7.449e-7, 6.185e-7
0.231, -1.361e-6, -7.425e-7, 6.185e-7
0.230, -1.364e-6, -7.431e-7, 6.209e-7
0.229, -1.360e-6, -7.413e-7, 6.188e-7
0.228, -1.359e-6, -7.398e-7, 6.188e-7
0.227, -1.360e-6, -7.401e-7, 6.203e-7
0.226, -1.359e-6, -7.382e-7, 6.206e-7
0.225, -1.359e-6, -7.391e-7, 6.200e-7
0.224, -1.356e-6, -7.367e-7, 6.197e-7
0.223, -1.356e-6, -7.358e-7, 6.197e-7
0.222, -1.355e-6, -7.355e-7, 6.194e-7
0.221, -1.353e-6, -7.327e-7, 6.203e-7
0.220, -1.351e-6, -7.321e-7, 6.188e-7
0.219, -1.352e-6, -7.315e-7, 6.200e-7
0.218, -1.351e-6, -7.312e-7, 6.200e-7
0.217, -1.349e-6, -7.294e-7, 6.197e-7
0.216, -1.347e-6, -7.291e-7, 6.179e-7
0.215, -1.349e-6, -7.282e-7, 6.206e-7
0.214, -1.348e-6, -7.279e-7, 6.206e-7
0.213, -1.344e-6, -7.257e-7, 6.185e-7
0.212, -1.341e-6, -7.236e-7, 6.176e-7
0.211, -1.339e-6, -7.224e-7, 6.170e-7
0.210, -1.343e-6, -7.242e-7, 6.185e-7
0.209, -1.341e-6, -7.227e-7, 6.188e-7
0.208, -1.338e-6, -7.208e-7, 6.176e-7
0.207, -1.339e-6, -7.208e-7, 6.185e-7
0.206, -1.337e-6, -7.196e-7, 6.173e-7
0.205, -1.335e-6, -7.181e-7, 6.173e-7
0.204, -1.337e-6, -7.187e-7, 6.179e-7
0.203, -1.334e-6, -7.166e-7, 6.173e-7
0.202, -1.330e-6, -7.150e-7, 6.151e-7
0.201, -1.332e-6, -7.160e-7, 6.158e-7
0.200, -1.330e-6, -7.138e-7, 6.158e-7
0.199, -1.327e-6, -7.120e-7, 6.148e-7
0.198, -1.328e-6, -7.129e-7, 6.155e-7
0.197, -1.326e-6, -7.108e-7, 6.155e-7
0.196, -1.323e-6, -7.086e-7, 6.139e-7
0.195, -1.323e-6, -7.083e-7, 6.142e-7
0.194, -1.321e-6, -7.068e-7, 6.142e-7
0.193, -1.319e-6, -7.068e-7, 6.118e-7
0.192, -1.317e-6, -7.050e-7, 6.121e-7
0.191, -1.318e-6, -7.047e-7, 6.130e-7
0.190, -1.315e-6, -7.037e-7, 6.115e-7
0.189, -1.316e-6, -7.037e-7, 6.118e-7
0.188, -1.312e-6, -7.016e-7, 6.100e-7
0.187, -1.309e-6, -6.998e-7, 6.097e-7
0.186, -1.307e-6, -6.992e-7, 6.078e-7
0.185, -1.308e-6, -6.989e-7, 6.087e-7
0.184, -1.306e-6, -6.986e-7, 6.072e-7
0.183, -1.304e-6, -6.983e-7, 6.054e-7
0.182, -1.303e-6, -6.955e-7, 6.075e-7
0.181, -1.300e-6, -6.946e-7, 6.057e-7
0.180, -1.299e-6, -6.918e-7, 6.072e-7
0.179, -1.297e-6, -6.925e-7, 6.048e-7
0.178, -1.296e-6, -6.925e-7, 6.035e-7
0.177, -1.293e-6, -6.903e-7, 6.029e-7
0.176, -1.293e-6, -6.903e-7, 6.023e-7
0.175, -1.291e-6, -6.897e-7, 6.014e-7
0.174, -1.287e-6, -6.873e-7, 6.002e-7
0.173, -1.288e-6, -6.873e-7, 6.005e-7
0.172, -1.286e-6, -6.870e-7, 5.987e-7
0.171, -1.286e-6, -6.854e-7, 6.002e-7
0.170, -1.282e-6, -6.836e-7, 5.981e-7
0.169, -1.280e-6, -6.830e-7, 5.971e-7
0.168, -1.279e-6, -6.821e-7, 5.968e-7
0.167, -1.277e-6, -6.818e-7, 5.953e-7
0.166, -1.275e-6, -6.799e-7, 5.947e-7
0.165, -1.274e-6, -6.799e-7, 5.938e-7
0.164, -1.272e-6, -6.781e-7, 5.938e-7
0.163, -1.269e-6, -6.778e-7, 5.916e-7
0.162, -1.269e-6, -6.766e-7, 5.929e-7
0.161, -1.266e-6, -6.751e-7, 5.913e-7
0.160, -1.265e-6, -6.748e-7, 5.904e-7
0.159, -1.263e-6, -6.738e-7, 5.889e-7
0.158, -1.262e-6, -6.729e-7, 5.892e-7
0.157, -1.258e-6, -6.720e-7, 5.865e-7
0.156, -1.256e-6, -6.714e-7, 5.846e-7
0.155, -1.255e-6, -6.699e-7, 5.855e-7
0.154, -1.252e-6, -6.699e-7, 5.822e-7
0.153, -1.250e-6, -6.677e-7, 5.822e-7
0.152, -1.251e-6, -6.671e-7, 5.840e-7
0.151, -1.250e-6, -6.674e-7, 5.825e-7
0.150, -1.247e-6, -6.662e-7, 5.810e-7
0.149, -1.246e-6, -6.656e-7, 5.804e-7
0.148, -1.245e-6, -6.659e-7, 5.794e-7
0.147, -1.244e-6, -6.638e-7, 5.797e-7
0.146, -1.243e-6, -6.641e-7, 5.788e-7
0.145, -1.239e-6, -6.619e-7, 5.773e-7
0.144, -1.236e-6, -6.607e-7, 5.752e-7
0.143, -1.236e-6, -6.595e-7, 5.761e-7
0.142, -1.235e-6, -6.598e-7, 5.752e-7
0.141, -1.233e-6, -6.589e-7, 5.743e-7
0.140, -1.229e-6, -6.568e-7, 5.721e-7
0.139, -1.228e-6, -6.564e-7, 5.715e-7
0.138, -1.224e-6, -6.543e-7, 5.694e-7
0.137, -1.225e-6, -6.552e-7, 5.694e-7
0.136, -1.222e-6, -6.546e-7, 5.675e-7
0.135, -1.223e-6, -6.537e-7, 5.694e-7
0.134, -1.220e-6, -6.534e-7, 5.666e-7
0.133, -1.216e-6, -6.510e-7, 5.648e-7
0.132, -1.215e-6, -6.516e-7, 5.636e-7
0.131, -1.213e-6, -6.507e-7, 5.627e-7
0.130, -1.210e-6, -6.494e-7, 5.608e-7
0.129, -1.210e-6, -6.491e-7, 5.605e-7
0.128, -1.209e-6, -6.473e-7, 5.617e-7
0.127, -1.209e-6, -6.464e-7, 5.624e-7
0.126, -1.205e-6, -6.464e-7, 5.587e-7
0.125, -1.207e-6, -6.467e-7, 5.605e-7
0.124, -1.203e-6, -6.442e-7, 5.584e-7
0.123, -1.200e-6, -6.433e-7, 5.572e-7
0.122, -1.202e-6, -6.442e-7, 5.578e-7
0.121, -1.197e-6, -6.415e-7, 5.559e-7
0.120, -1.195e-6, -6.415e-7, 5.538e-7
0.119, -1.193e-6, -6.409e-7, 5.526e-7
0.118, -1.190e-6, -6.403e-7, 5.501e-7
0.117, -1.190e-6, -6.381e-7, 5.517e-7
0.116, -1.189e-6, -6.384e-7, 5.508e-7
0.115, -1.187e-6, -6.375e-7, 5.492e-7
0.114, -1.186e-6, -6.375e-7, 5.480e-7
0.113, -1.182e-6, -6.348e-7, 5.474e-7
0.112, -1.183e-6, -6.360e-7, 5.468e-7
0.111, -1.182e-6, -6.351e-7, 5.468e-7
0.110, -1.180e-6, -6.339e-7, 5.459e-7
0.109, -1.176e-6, -6.317e-7, 5.443e-7
0.108, -1.176e-6, -6.320e-7, 5.443e-7
0.107, -1.173e-6, -6.314e-7, 5.419e-7
0.106, -1.175e-6, -6.323e-7, 5.428e-7
0.105, -1.173e-6, -6.308e-7, 5.425e-7
0.104, -1.171e-6, -6.299e-7, 5.413e-7
0.103, -1.166e-6, -6.268e-7, 5.395e-7
0.102, -1.166e-6, -6.278e-7, 5.382e-7
0.101, -1.167e-6, -6.281e-7, 5.389e-7
0.100, -1.165e-6, -6.272e-7, 5.376e-7
0.099, -1.163e-6, -6.256e-7, 5.376e-7
0.098, -1.162e-6, -6.259e-7, 5.358e-7
0.097, -1.160e-6, -6.247e-7, 5.352e-7
0.096, -1.159e-6, -6.241e-7, 5.346e-7
0.095, -1.155e-6, -6.214e-7, 5.334e-7
0.094, -1.156e-6, -6.226e-7, 5.331e-7
0.093, -1.153e-6, -6.198e-7, 5.334e-7
0.092, -1.153e-6, -6.204e-7, 5.324e-7
0.091, -1.149e-6, -6.198e-7, 5.291e-7
0.090, -1.150e-6, -6.189e-7, 5.309e-7
0.089, -1.148e-6, -6.183e-7, 5.297e-7
0.088, -1.146e-6, -6.177e-7, 5.282e-7
0.087, -1.143e-6, -6.156e-7, 5.276e-7
0.086, -1.143e-6, -6.146e-7, 5.282e-7
0.085, -1.142e-6, -6.149e-7, 5.266e-7
0.084, -1.139e-6, -6.137e-7, 5.248e-7
0.083, -1.138e-6, -6.134e-7, 5.242e-7
0.082, -1.137e-6, -6.137e-7, 5.233e-7
0.081, -1.136e-6, -6.128e-7, 5.233e-7
0.080, -1.132e-6, -6.095e-7, 5.221e-7
0.079, -1.134e-6, -6.119e-7, 5.221e-7
0.078, -1.130e-6, -6.101e-7, 5.199e-7
0.077, -1.128e-6, -6.079e-7, 5.202e-7
0.076, -1.128e-6, -6.085e-7, 5.190e-7
0.075, -1.127e-6, -6.079e-7, 5.187e-7
0.074, -1.124e-6, -6.058e-7, 5.178e-7
0.073, -1.124e-6, -6.058e-7, 5.181e-7
0.072, -1.124e-6, -6.058e-7, 5.181e-7
0.071, -1.121e-6, -6.052e-7, 5.163e-7
0.070, -1.121e-6, -6.052e-7, 5.157e-7
0.069, -1.119e-6, -6.040e-7, 5.154e-7
0.068, -1.116e-6, -6.018e-7, 5.144e-7
0.067, -1.117e-6, -6.030e-7, 5.138e-7
0.066, -1.114e-6, -6.000e-7, 5.144e-7
0.065, -1.114e-6, -6.000e-7, 5.138e-7
0.064, -1.110e-6, -5.991e-7, 5.114e-7
0.063, -1.111e-6, -5.991e-7, 5.120e-7
0.062, -1.110e-6, -5.991e-7, 5.108e-7
0.061, -1.108e-6, -5.976e-7, 5.105e-7
0.060, -1.105e-6, -5.963e-7, 5.089e-7
0.059, -1.107e-6, -5.972e-7, 5.102e-7
0.058, -1.102e-6, -5.948e-7, 5.071e-7
0.057, -1.105e-6, -5.957e-7, 5.096e-7
0.056, -1.101e-6, -5.936e-7, 5.074e-7
0.055, -1.099e-6, -5.918e-7, 5.077e-7
0.054, -1.101e-6, -5.933e-7, 5.074e-7
0.053, -1.097e-6, -5.915e-7, 5.056e-7
0.052, -1.096e-6, -5.911e-7, 5.047e-7
0.051, -1.096e-6, -5.899e-7, 5.062e-7
0.050, -1.091e-6, -5.878e-7, 5.032e-7
0.049, -1.091e-6, -5.878e-7, 5.035e-7
0.048, -1.090e-6, -5.881e-7, 5.016e-7
0.047, -1.090e-6, -5.875e-7, 5.022e-7
0.046, -1.088e-6, -5.869e-7, 5.016e-7
0.045, -1.089e-6, -5.866e-7, 5.025e-7
0.044, -1.086e-6, -5.841e-7, 5.016e-7
0.043, -1.083e-6, -5.835e-7, 4.998e-7
0.042, -1.083e-6, -5.820e-7, 5.010e-7
0.041, -1.080e-6, -5.814e-7, 4.989e-7
0.040, -1.082e-6, -5.832e-7, 4.986e-7
0.039, -1.080e-6, -5.811e-7, 4.989e-7
0.038, -1.076e-6, -5.795e-7, 4.967e-7
0.037, -1.077e-6, -5.802e-7, 4.970e-7
0.036, -1.076e-6, -5.786e-7, 4.970e-7
0.035, -1.074e-6, -5.789e-7, 4.949e-7
0.034, -1.073e-6, -5.777e-7, 4.952e-7
0.033, -1.070e-6, -5.756e-7, 4.949e-7
0.032, -1.069e-6, -5.759e-7, 4.934e-7
0.031, -1.068e-6, -5.750e-7, 4.928e-7
0.030, -1.068e-6, -5.734e-7, 4.946e-7
0.029, -1.066e-6, -5.738e-7, 4.925e-7
0.028, -1.066e-6, -5.728e-7, 4.931e-7
0.027, -1.064e-6, -5.725e-7, 4.919e-7
0.026, -1.062e-6, -5.710e-7, 4.912e-7
0.025, -1.060e-6, -5.695e-7, 4.909e-7
0.024, -1.060e-6, -5.701e-7, 4.903e-7
0.023, -1.056e-6, -5.680e-7, 4.885e-7
0.022, -1.058e-6, -5.680e-7, 4.897e-7
0.021, -1.058e-6, -5.689e-7, 4.891e-7
0.020, -1.054e-6, -5.670e-7, 4.870e-7
0.019, -1.053e-6, -5.667e-7, 4.864e-7
0.018, -1.054e-6, -5.655e-7, 4.888e-7
0.017, -1.052e-6, -5.655e-7, 4.867e-7
0.016, -1.050e-6, -5.637e-7, 4.864e-7
0.015, -1.049e-6, -5.628e-7, 4.858e-7
0.014, -1.049e-6, -5.625e-7, 4.861e-7
0.013, -1.046e-6, -5.622e-7, 4.836e-7
0.012, -1.046e-6, -5.619e-7, 4.842e-7
0.011, -1.045e-6, -5.609e-7, 4.839e-7
0.010, -1.043e-6, -5.594e-7, 4.833e-7
0.009, -1.043e-6, -5.603e-7, 4.827e-7
0.008, -1.040e-6, -5.564e-7, 4.833e-7
0.007, -1.038e-6, -5.579e-7, 4.806e-7
0.006, -1.038e-6, -5.564e-7, 4.818e-7
0.005, -1.035e-6, -5.557e-7, 4.797e-7
0.004, -1.036e-6, -5.554e-7, 4.806e-7
0.003, -1.034e-6, -5.548e-7, 4.793e-7
0.002, -1.033e-6, -5.533e-7, 4.800e-7
0.001, -1.032e-6, -5.536e-7, 4.784e-7
-0.000, -1.031e-6, -5.521e-7, 4.787e-7
-0.001, -1.029e-6, -5.518e-7, 4.769e-7
-0.002, -1.028e-6, -5.503e-7, 4.775e-7
-0.003, -1.027e-6, -5.499e-7, 4.772e-7
-0.004, -1.025e-6, -5.490e-7, 4.763e-7
-0.005, -1.025e-6, -5.493e-7, 4.760e-7
-0.006, -1.023e-6, -5.472e-7, 4.757e-7
-0.007, -1.020e-6, -5.466e-7, 4.736e-7
-0.008, -1.021e-6, -5.466e-7, 4.745e-7
-0.009, -1.020e-6, -5.457e-7, 4.739e-7
-0.010, -1.018e-6, -5.448e-7, 4.732e-7
-0.011, -1.019e-6, -5.454e-7, 4.736e-7
-0.012, -1.017e-6, -5.442e-7, 4.732e-7
-0.013, -1.014e-6, -5.423e-7, 4.714e-7
-0.014, -1.015e-6, -5.429e-7, 4.717e-7
-0.015, -1.014e-6, -5.417e-7, 4.720e-7
-0.016, -1.008e-6, -5.402e-7, 4.681e-7
-0.017, -1.009e-6, -5.399e-7, 4.693e-7
-0.018, -1.009e-6, -5.396e-7, 4.690e-7
-0.019, -1.005e-6, -5.371e-7, 4.674e-7
-0.020, -1.005e-6, -5.377e-7, 4.668e-7
-0.021, -1.006e-6, -5.380e-7, 4.684e-7
-0.022, -1.003e-6, -5.359e-7, 4.671e-7
-0.023, -1.002e-6, -5.362e-7, 4.653e-7
-0.024, -1.000e-6, -5.347e-7, 4.656e-7
-0.025, -9.991e-7, -5.341e-7, 4.650e-7
-0.026, -9.973e-7, -5.341e-7, 4.632e-7
-0.027, -9.988e-7, -5.332e-7, 4.656e-7
-0.028, -9.966e-7, -5.319e-7, 4.647e-7
-0.029, -9.936e-7, -5.316e-7, 4.620e-7
-0.030, -9.942e-7, -5.319e-7, 4.623e-7
-0.031, -9.899e-7, -5.289e-7, 4.610e-7
-0.032, -9.918e-7, -5.298e-7, 4.620e-7
-0.033, -9.890e-7, -5.289e-7, 4.601e-7
-0.034, -9.872e-7, -5.280e-7, 4.592e-7
-0.035, -9.857e-7, -5.265e-7, 4.592e-7
-0.036, -9.878e-7, -5.280e-7, 4.598e-7
-0.037, -9.844e-7, -5.265e-7, 4.580e-7
-0.038, -9.829e-7, -5.261e-7, 4.568e-7
-0.039, -9.841e-7, -5.258e-7, 4.583e-7
-0.040, -9.814e-7, -5.240e-7, 4.574e-7
-0.041, -9.789e-7, -5.240e-7, 4.549e-7
-0.042, -9.780e-7, -5.225e-7, 4.555e-7
-0.043, -9.780e-7, -5.228e-7, 4.552e-7
-0.044, -9.747e-7, -5.213e-7, 4.534e-7
-0.045, -9.750e-7, -5.207e-7, 4.543e-7
-0.046, -9.738e-7, -5.210e-7, 4.528e-7
-0.047, -9.716e-7, -5.191e-7, 4.525e-7
-0.048, -9.716e-7, -5.194e-7, 4.522e-7
-0.049, -9.692e-7, -5.182e-7, 4.510e-7
-0.050, -9.701e-7, -5.188e-7, 4.513e-7
