Feb. 28, 2018   11:14:40
Square Wave Voltammetry
File: c:\users\electrochemist\desktop\2018\28022018_unbuffered_9,2\3_e5_9,2_0118_ph4,07_5.txt
Data Source:  Experiment
Instrument Model:  CHI1040A
Header: 
Note: 

Init E (V) = 0.5
Final E (V) = -0.05
Incr E (V) = 0.001
Amplitude (V) = 0.1
Frequency (Hz) = 150
Quiet Time (sec) = 0
Sensitivity (A/V) = 1e-6

Difference:

Forward:

Reverse:

Potential/V, Diff(i/A), For(i/A), Rev(i/A)

0.499, -8.233e-7, -2.060e-7, 6.173e-7
0.498, -1.023e-6, -4.816e-7, 5.410e-7
0.497, -1.020e-6, -5.011e-7, 5.187e-7
0.496, -1.012e-6, -5.072e-7, 5.047e-7
0.495, -1.005e-6, -5.094e-7, 4.961e-7
0.494, -1.005e-6, -5.155e-7, 4.894e-7
0.493, -1.002e-6, -5.170e-7, 4.852e-7
0.492, -1.000e-6, -5.188e-7, 4.815e-7
0.491, -9.988e-7, -5.219e-7, 4.769e-7
0.490, -9.973e-7, -5.231e-7, 4.742e-7
0.489, -9.970e-7, -5.249e-7, 4.720e-7
0.488, -9.963e-7, -5.280e-7, 4.684e-7
0.487, -9.963e-7, -5.286e-7, 4.678e-7
0.486, -9.945e-7, -5.289e-7, 4.656e-7
0.485, -9.951e-7, -5.310e-7, 4.641e-7
0.484, -9.954e-7, -5.329e-7, 4.626e-7
0.483, -9.954e-7, -5.338e-7, 4.617e-7
0.482, -9.939e-7, -5.347e-7, 4.592e-7
0.481, -1.000e-6, -5.377e-7, 4.623e-7
0.480, -9.970e-7, -5.377e-7, 4.592e-7
0.479, -9.976e-7, -5.402e-7, 4.574e-7
0.478, -1.000e-6, -5.408e-7, 4.592e-7
0.477, -9.982e-7, -5.405e-7, 4.577e-7
0.476, -9.985e-7, -5.414e-7, 4.571e-7
0.475, -1.003e-6, -5.454e-7, 4.574e-7
0.474, -1.001e-6, -5.432e-7, 4.577e-7
0.473, -1.002e-6, -5.460e-7, 4.556e-7
0.472, -1.004e-6, -5.469e-7, 4.568e-7
0.471, -1.002e-6, -5.472e-7, 4.546e-7
0.470, -1.003e-6, -5.496e-7, 4.531e-7
0.469, -1.008e-6, -5.524e-7, 4.556e-7
0.468, -1.006e-6, -5.515e-7, 4.543e-7
0.467, -1.009e-6, -5.545e-7, 4.546e-7
0.466, -1.010e-6, -5.548e-7, 4.549e-7
0.465, -1.012e-6, -5.557e-7, 4.562e-7
0.464, -1.013e-6, -5.588e-7, 4.543e-7
0.463, -1.013e-6, -5.585e-7, 4.546e-7
0.462, -1.014e-6, -5.591e-7, 4.552e-7
0.461, -1.016e-6, -5.612e-7, 4.543e-7
0.460, -1.021e-6, -5.643e-7, 4.568e-7
0.459, -1.019e-6, -5.622e-7, 4.571e-7
0.458, -1.022e-6, -5.658e-7, 4.559e-7
0.457, -1.023e-6, -5.664e-7, 4.568e-7
0.456, -1.023e-6, -5.661e-7, 4.565e-7
0.455, -1.027e-6, -5.701e-7, 4.568e-7
0.454, -1.028e-6, -5.710e-7, 4.568e-7
0.453, -1.028e-6, -5.716e-7, 4.562e-7
0.452, -1.029e-6, -5.747e-7, 4.543e-7
0.451, -1.034e-6, -5.759e-7, 4.583e-7
0.450, -1.031e-6, -5.741e-7, 4.571e-7
0.449, -1.038e-6, -5.795e-7, 4.580e-7
0.448, -1.039e-6, -5.792e-7, 4.595e-7
0.447, -1.041e-6, -5.805e-7, 4.607e-7
0.446, -1.041e-6, -5.829e-7, 4.580e-7
0.445, -1.043e-6, -5.844e-7, 4.589e-7
0.444, -1.044e-6, -5.847e-7, 4.592e-7
0.443, -1.046e-6, -5.872e-7, 4.586e-7
0.442, -1.050e-6, -5.893e-7, 4.607e-7
0.441, -1.050e-6, -5.881e-7, 4.620e-7
0.440, -1.052e-6, -5.911e-7, 4.607e-7
0.439, -1.053e-6, -5.921e-7, 4.613e-7
0.438, -1.055e-6, -5.930e-7, 4.620e-7
0.437, -1.056e-6, -5.957e-7, 4.598e-7
0.436, -1.058e-6, -5.960e-7, 4.623e-7
0.435, -1.060e-6, -5.960e-7, 4.641e-7
0.434, -1.063e-6, -6.015e-7, 4.620e-7
0.433, -1.066e-6, -6.000e-7, 4.659e-7
0.432, -1.068e-6, -6.033e-7, 4.647e-7
0.431, -1.068e-6, -6.049e-7, 4.632e-7
0.430, -1.073e-6, -6.058e-7, 4.671e-7
0.429, -1.074e-6, -6.070e-7, 4.665e-7
0.428, -1.074e-6, -6.098e-7, 4.647e-7
0.427, -1.078e-6, -6.104e-7, 4.678e-7
0.426, -1.080e-6, -6.116e-7, 4.684e-7
0.425, -1.084e-6, -6.149e-7, 4.687e-7
0.424, -1.088e-6, -6.180e-7, 4.696e-7
0.423, -1.087e-6, -6.174e-7, 4.696e-7
0.422, -1.090e-6, -6.204e-7, 4.693e-7
0.421, -1.094e-6, -6.226e-7, 4.711e-7
0.420, -1.094e-6, -6.220e-7, 4.723e-7
0.419, -1.096e-6, -6.253e-7, 4.711e-7
0.418, -1.101e-6, -6.268e-7, 4.742e-7
0.417, -1.099e-6, -6.256e-7, 4.729e-7
0.416, -1.102e-6, -6.305e-7, 4.714e-7
0.415, -1.107e-6, -6.314e-7, 4.757e-7
0.414, -1.107e-6, -6.320e-7, 4.745e-7
0.413, -1.109e-6, -6.360e-7, 4.732e-7
0.412, -1.113e-6, -6.354e-7, 4.772e-7
0.411, -1.116e-6, -6.372e-7, 4.784e-7
0.410, -1.116e-6, -6.409e-7, 4.754e-7
0.409, -1.122e-6, -6.415e-7, 4.803e-7
0.408, -1.120e-6, -6.406e-7, 4.797e-7
0.407, -1.126e-6, -6.467e-7, 4.790e-7
0.406, -1.127e-6, -6.452e-7, 4.818e-7
0.405, -1.129e-6, -6.464e-7, 4.827e-7
0.404, -1.131e-6, -6.500e-7, 4.809e-7
0.403, -1.133e-6, -6.513e-7, 4.818e-7
0.402, -1.134e-6, -6.513e-7, 4.827e-7
0.401, -1.141e-6, -6.568e-7, 4.839e-7
0.400, -1.143e-6, -6.561e-7, 4.864e-7
0.399, -1.142e-6, -6.564e-7, 4.855e-7
0.398, -1.146e-6, -6.604e-7, 4.858e-7
0.397, -1.151e-6, -6.616e-7, 4.891e-7
0.396, -1.150e-6, -6.625e-7, 4.873e-7
0.395, -1.153e-6, -6.665e-7, 4.867e-7
0.394, -1.158e-6, -6.674e-7, 4.909e-7
0.393, -1.158e-6, -6.677e-7, 4.906e-7
0.392, -1.160e-6, -6.699e-7, 4.903e-7
0.391, -1.165e-6, -6.732e-7, 4.916e-7
0.390, -1.163e-6, -6.714e-7, 4.919e-7
0.389, -1.167e-6, -6.766e-7, 4.906e-7
0.388, -1.173e-6, -6.784e-7, 4.946e-7
0.387, -1.175e-6, -6.790e-7, 4.958e-7
0.386, -1.175e-6, -6.809e-7, 4.946e-7
0.385, -1.182e-6, -6.830e-7, 4.986e-7
0.384, -1.181e-6, -6.830e-7, 4.980e-7
0.383, -1.183e-6, -6.864e-7, 4.971e-7
0.382, -1.187e-6, -6.873e-7, 5.001e-7
0.381, -1.189e-6, -6.879e-7, 5.010e-7
0.380, -1.192e-6, -6.912e-7, 5.007e-7
0.379, -1.197e-6, -6.931e-7, 5.035e-7
0.378, -1.197e-6, -6.934e-7, 5.032e-7
0.377, -1.200e-6, -6.967e-7, 5.035e-7
0.376, -1.204e-6, -6.983e-7, 5.062e-7
0.375, -1.204e-6, -6.986e-7, 5.059e-7
0.374, -1.208e-6, -7.019e-7, 5.065e-7
0.373, -1.213e-6, -7.028e-7, 5.099e-7
0.372, -1.211e-6, -7.019e-7, 5.096e-7
0.371, -1.216e-6, -7.062e-7, 5.096e-7
0.370, -1.221e-6, -7.077e-7, 5.132e-7
0.369, -1.221e-6, -7.080e-7, 5.126e-7
0.368, -1.222e-6, -7.102e-7, 5.123e-7
0.367, -1.226e-6, -7.117e-7, 5.148e-7
0.366, -1.230e-6, -7.129e-7, 5.169e-7
0.365, -1.230e-6, -7.147e-7, 5.151e-7
0.364, -1.234e-6, -7.163e-7, 5.181e-7
0.363, -1.233e-6, -7.160e-7, 5.172e-7
0.362, -1.237e-6, -7.190e-7, 5.175e-7
0.361, -1.244e-6, -7.221e-7, 5.215e-7
0.360, -1.241e-6, -7.205e-7, 5.205e-7
0.359, -1.246e-6, -7.260e-7, 5.202e-7
0.358, -1.249e-6, -7.254e-7, 5.233e-7
0.357, -1.250e-6, -7.242e-7, 5.254e-7
0.356, -1.254e-6, -7.288e-7, 5.254e-7
0.355, -1.255e-6, -7.288e-7, 5.267e-7
0.354, -1.257e-6, -7.291e-7, 5.282e-7
0.353, -1.260e-6, -7.327e-7, 5.273e-7
0.352, -1.266e-6, -7.337e-7, 5.321e-7
0.351, -1.263e-6, -7.330e-7, 5.303e-7
0.350, -1.268e-6, -7.367e-7, 5.312e-7
0.349, -1.269e-6, -7.355e-7, 5.334e-7
0.348, -1.273e-6, -7.382e-7, 5.349e-7
0.347, -1.277e-6, -7.425e-7, 5.343e-7
0.346, -1.280e-6, -7.422e-7, 5.373e-7
0.345, -1.280e-6, -7.428e-7, 5.367e-7
0.344, -1.282e-6, -7.443e-7, 5.376e-7
0.343, -1.288e-6, -7.459e-7, 5.419e-7
0.342, -1.285e-6, -7.443e-7, 5.407e-7
0.341, -1.289e-6, -7.489e-7, 5.404e-7
0.340, -1.292e-6, -7.483e-7, 5.434e-7
0.339, -1.292e-6, -7.480e-7, 5.440e-7
0.338, -1.295e-6, -7.523e-7, 5.425e-7
0.337, -1.299e-6, -7.523e-7, 5.468e-7
0.336, -1.299e-6, -7.523e-7, 5.471e-7
0.335, -1.303e-6, -7.556e-7, 5.474e-7
0.334, -1.303e-6, -7.544e-7, 5.489e-7
0.333, -1.305e-6, -7.547e-7, 5.508e-7
0.332, -1.310e-6, -7.590e-7, 5.508e-7
0.331, -1.313e-6, -7.593e-7, 5.541e-7
0.330, -1.312e-6, -7.587e-7, 5.532e-7
0.329, -1.315e-6, -7.620e-7, 5.529e-7
0.328, -1.318e-6, -7.614e-7, 5.569e-7
0.327, -1.319e-6, -7.608e-7, 5.584e-7
0.326, -1.321e-6, -7.633e-7, 5.581e-7
0.325, -1.323e-6, -7.636e-7, 5.593e-7
0.324, -1.324e-6, -7.633e-7, 5.605e-7
0.323, -1.325e-6, -7.654e-7, 5.599e-7
0.322, -1.331e-6, -7.672e-7, 5.639e-7
0.321, -1.327e-6, -7.651e-7, 5.624e-7
0.320, -1.331e-6, -7.694e-7, 5.617e-7
0.319, -1.335e-6, -7.672e-7, 5.675e-7
0.318, -1.334e-6, -7.666e-7, 5.672e-7
0.317, -1.336e-6, -7.706e-7, 5.651e-7
0.316, -1.338e-6, -7.687e-7, 5.688e-7
0.315, -1.342e-6, -7.700e-7, 5.718e-7
0.314, -1.341e-6, -7.709e-7, 5.700e-7
0.313, -1.346e-6, -7.724e-7, 5.740e-7
0.312, -1.345e-6, -7.712e-7, 5.736e-7
0.311, -1.345e-6, -7.736e-7, 5.718e-7
0.310, -1.348e-6, -7.721e-7, 5.758e-7
0.309, -1.348e-6, -7.712e-7, 5.770e-7
0.308, -1.351e-6, -7.755e-7, 5.752e-7
0.307, -1.352e-6, -7.745e-7, 5.779e-7
0.306, -1.355e-6, -7.745e-7, 5.801e-7
0.305, -1.356e-6, -7.764e-7, 5.797e-7
0.304, -1.359e-6, -7.755e-7, 5.831e-7
0.303, -1.358e-6, -7.739e-7, 5.843e-7
0.302, -1.359e-6, -7.767e-7, 5.819e-7
0.301, -1.363e-6, -7.764e-7, 5.871e-7
0.300, -1.361e-6, -7.748e-7, 5.862e-7
0.299, -1.365e-6, -7.782e-7, 5.865e-7
0.298, -1.366e-6, -7.776e-7, 5.886e-7
0.297, -1.365e-6, -7.758e-7, 5.889e-7
0.296, -1.365e-6, -7.776e-7, 5.877e-7
0.295, -1.369e-6, -7.761e-7, 5.926e-7
0.294, -1.367e-6, -7.764e-7, 5.907e-7
0.293, -1.370e-6, -7.770e-7, 5.935e-7
0.292, -1.374e-6, -7.782e-7, 5.953e-7
0.291, -1.370e-6, -7.752e-7, 5.944e-7
0.290, -1.374e-6, -7.782e-7, 5.953e-7
0.289, -1.373e-6, -7.764e-7, 5.962e-7
0.288, -1.373e-6, -7.761e-7, 5.968e-7
0.287, -1.374e-6, -7.782e-7, 5.962e-7
0.286, -1.376e-6, -7.764e-7, 5.999e-7
0.285, -1.376e-6, -7.767e-7, 5.993e-7
0.284, -1.379e-6, -7.791e-7, 5.999e-7
0.283, -1.382e-6, -7.782e-7, 6.036e-7
0.282, -1.379e-6, -7.758e-7, 6.032e-7
0.281, -1.380e-6, -7.773e-7, 6.026e-7
0.280, -1.381e-6, -7.752e-7, 6.060e-7
0.279, -1.380e-6, -7.739e-7, 6.063e-7
0.278, -1.381e-6, -7.773e-7, 6.042e-7
0.277, -1.382e-6, -7.752e-7, 6.069e-7
0.276, -1.380e-6, -7.733e-7, 6.066e-7
0.275, -1.385e-6, -7.758e-7, 6.087e-7
0.274, -1.384e-6, -7.739e-7, 6.103e-7
0.273, -1.381e-6, -7.715e-7, 6.097e-7
0.272, -1.387e-6, -7.755e-7, 6.112e-7
0.271, -1.385e-6, -7.733e-7, 6.121e-7
0.270, -1.384e-6, -7.715e-7, 6.127e-7
0.269, -1.384e-6, -7.721e-7, 6.115e-7
0.268, -1.386e-6, -7.712e-7, 6.148e-7
0.267, -1.382e-6, -7.687e-7, 6.130e-7
0.266, -1.385e-6, -7.718e-7, 6.136e-7
0.265, -1.385e-6, -7.694e-7, 6.161e-7
0.264, -1.384e-6, -7.675e-7, 6.164e-7
0.263, -1.385e-6, -7.681e-7, 6.167e-7
0.262, -1.384e-6, -7.669e-7, 6.170e-7
0.261, -1.385e-6, -7.666e-7, 6.182e-7
0.260, -1.384e-6, -7.675e-7, 6.164e-7
0.259, -1.385e-6, -7.639e-7, 6.212e-7
0.258, -1.383e-6, -7.636e-7, 6.191e-7
0.257, -1.383e-6, -7.645e-7, 6.188e-7
0.256, -1.384e-6, -7.620e-7, 6.219e-7
0.255, -1.381e-6, -7.605e-7, 6.209e-7
0.254, -1.381e-6, -7.626e-7, 6.188e-7
0.253, -1.386e-6, -7.623e-7, 6.237e-7
0.252, -1.379e-6, -7.599e-7, 6.194e-7
0.251, -1.382e-6, -7.599e-7, 6.222e-7
0.250, -1.382e-6, -7.593e-7, 6.225e-7
0.249, -1.383e-6, -7.584e-7, 6.243e-7
0.248, -1.380e-6, -7.581e-7, 6.216e-7
0.247, -1.383e-6, -7.578e-7, 6.252e-7
0.246, -1.381e-6, -7.553e-7, 6.252e-7
0.245, -1.382e-6, -7.571e-7, 6.249e-7
0.244, -1.380e-6, -7.541e-7, 6.255e-7
0.243, -1.376e-6, -7.510e-7, 6.249e-7
0.242, -1.377e-6, -7.535e-7, 6.240e-7
0.241, -1.379e-6, -7.520e-7, 6.274e-7
0.240, -1.374e-6, -7.492e-7, 6.243e-7
0.239, -1.376e-6, -7.514e-7, 6.246e-7
0.238, -1.374e-6, -7.477e-7, 6.267e-7
0.237, -1.373e-6, -7.462e-7, 6.264e-7
0.236, -1.373e-6, -7.471e-7, 6.255e-7
0.235, -1.371e-6, -7.440e-7, 6.270e-7
0.234, -1.370e-6, -7.419e-7, 6.277e-7
0.233, -1.370e-6, -7.434e-7, 6.267e-7
0.232, -1.369e-6, -7.419e-7, 6.267e-7
0.231, -1.368e-6, -7.407e-7, 6.277e-7
0.230, -1.364e-6, -7.404e-7, 6.240e-7
0.229, -1.367e-6, -7.388e-7, 6.280e-7
0.228, -1.366e-6, -7.376e-7, 6.280e-7
0.227, -1.363e-6, -7.382e-7, 6.252e-7
0.226, -1.364e-6, -7.364e-7, 6.277e-7
0.225, -1.358e-6, -7.330e-7, 6.246e-7
0.224, -1.359e-6, -7.337e-7, 6.249e-7
0.223, -1.358e-6, -7.324e-7, 6.258e-7
0.222, -1.357e-6, -7.312e-7, 6.255e-7
0.221, -1.357e-6, -7.315e-7, 6.255e-7
0.220, -1.357e-6, -7.303e-7, 6.270e-7
0.219, -1.352e-6, -7.272e-7, 6.246e-7
0.218, -1.352e-6, -7.282e-7, 6.240e-7
0.217, -1.352e-6, -7.257e-7, 6.264e-7
0.216, -1.350e-6, -7.251e-7, 6.246e-7
0.215, -1.348e-6, -7.248e-7, 6.231e-7
0.214, -1.349e-6, -7.230e-7, 6.261e-7
0.213, -1.345e-6, -7.218e-7, 6.237e-7
0.212, -1.344e-6, -7.208e-7, 6.228e-7
0.211, -1.347e-6, -7.199e-7, 6.270e-7
0.210, -1.341e-6, -7.175e-7, 6.240e-7
0.209, -1.340e-6, -7.190e-7, 6.212e-7
0.208, -1.340e-6, -7.160e-7, 6.240e-7
0.207, -1.337e-6, -7.147e-7, 6.219e-7
0.206, -1.336e-6, -7.144e-7, 6.212e-7
0.205, -1.334e-6, -7.120e-7, 6.219e-7
0.204, -1.332e-6, -7.111e-7, 6.206e-7
0.203, -1.330e-6, -7.117e-7, 6.179e-7
0.202, -1.333e-6, -7.099e-7, 6.228e-7
0.201, -1.326e-6, -7.071e-7, 6.185e-7
0.200, -1.323e-6, -7.074e-7, 6.158e-7
0.199, -1.327e-6, -7.074e-7, 6.200e-7
0.198, -1.320e-6, -7.031e-7, 6.173e-7
0.197, -1.322e-6, -7.062e-7, 6.158e-7
0.196, -1.320e-6, -7.034e-7, 6.170e-7
0.195, -1.316e-6, -7.013e-7, 6.148e-7
0.194, -1.315e-6, -7.007e-7, 6.142e-7
0.193, -1.313e-6, -6.986e-7, 6.142e-7
0.192, -1.311e-6, -6.986e-7, 6.127e-7
0.191, -1.312e-6, -6.983e-7, 6.139e-7
0.190, -1.311e-6, -6.964e-7, 6.148e-7
0.189, -1.306e-6, -6.940e-7, 6.121e-7
0.188, -1.305e-6, -6.943e-7, 6.109e-7
0.187, -1.306e-6, -6.934e-7, 6.124e-7
0.186, -1.303e-6, -6.922e-7, 6.109e-7
0.185, -1.300e-6, -6.906e-7, 6.093e-7
0.184, -1.298e-6, -6.897e-7, 6.084e-7
0.183, -1.297e-6, -6.876e-7, 6.090e-7
0.182, -1.294e-6, -6.885e-7, 6.060e-7
0.181, -1.293e-6, -6.857e-7, 6.069e-7
0.180, -1.289e-6, -6.842e-7, 6.045e-7
0.179, -1.290e-6, -6.851e-7, 6.051e-7
0.178, -1.288e-6, -6.839e-7, 6.039e-7
0.177, -1.285e-6, -6.821e-7, 6.032e-7
0.176, -1.281e-6, -6.806e-7, 6.008e-7
0.175, -1.283e-6, -6.812e-7, 6.017e-7
0.174, -1.280e-6, -6.781e-7, 6.017e-7
0.173, -1.280e-6, -6.793e-7, 6.005e-7
0.172, -1.276e-6, -6.754e-7, 6.002e-7
0.171, -1.272e-6, -6.748e-7, 5.971e-7
0.170, -1.272e-6, -6.751e-7, 5.965e-7
0.169, -1.270e-6, -6.732e-7, 5.968e-7
0.168, -1.268e-6, -6.720e-7, 5.956e-7
0.167, -1.269e-6, -6.735e-7, 5.953e-7
0.166, -1.267e-6, -6.708e-7, 5.959e-7
0.165, -1.261e-6, -6.683e-7, 5.923e-7
0.164, -1.260e-6, -6.690e-7, 5.910e-7
0.163, -1.259e-6, -6.671e-7, 5.920e-7
0.162, -1.254e-6, -6.656e-7, 5.883e-7
0.161, -1.256e-6, -6.671e-7, 5.889e-7
0.160, -1.256e-6, -6.659e-7, 5.901e-7
0.159, -1.251e-6, -6.638e-7, 5.874e-7
0.158, -1.250e-6, -6.635e-7, 5.865e-7
0.157, -1.248e-6, -6.616e-7, 5.865e-7
0.156, -1.244e-6, -6.610e-7, 5.834e-7
0.155, -1.242e-6, -6.598e-7, 5.822e-7
0.154, -1.240e-6, -6.571e-7, 5.834e-7
0.153, -1.240e-6, -6.580e-7, 5.819e-7
0.152, -1.236e-6, -6.564e-7, 5.791e-7
0.151, -1.236e-6, -6.564e-7, 5.791e-7
0.150, -1.233e-6, -6.543e-7, 5.782e-7
0.149, -1.232e-6, -6.558e-7, 5.761e-7
0.148, -1.231e-6, -6.528e-7, 5.779e-7
0.147, -1.227e-6, -6.510e-7, 5.761e-7
0.146, -1.226e-6, -6.522e-7, 5.736e-7
0.145, -1.224e-6, -6.503e-7, 5.739e-7
0.144, -1.221e-6, -6.479e-7, 5.733e-7
0.143, -1.219e-6, -6.494e-7, 5.700e-7
0.142, -1.219e-6, -6.461e-7, 5.733e-7
0.141, -1.215e-6, -6.452e-7, 5.697e-7
0.140, -1.214e-6, -6.461e-7, 5.682e-7
0.139, -1.214e-6, -6.452e-7, 5.685e-7
0.138, -1.210e-6, -6.433e-7, 5.663e-7
0.137, -1.211e-6, -6.452e-7, 5.654e-7
0.136, -1.209e-6, -6.424e-7, 5.663e-7
0.135, -1.203e-6, -6.406e-7, 5.627e-7
0.134, -1.206e-6, -6.415e-7, 5.648e-7
0.133, -1.201e-6, -6.391e-7, 5.624e-7
0.132, -1.199e-6, -6.378e-7, 5.614e-7
0.131, -1.199e-6, -6.384e-7, 5.605e-7
0.130, -1.197e-6, -6.375e-7, 5.590e-7
0.129, -1.193e-6, -6.342e-7, 5.584e-7
0.128, -1.193e-6, -6.369e-7, 5.566e-7
0.127, -1.191e-6, -6.342e-7, 5.572e-7
0.126, -1.188e-6, -6.326e-7, 5.550e-7
0.125, -1.187e-6, -6.330e-7, 5.541e-7
0.124, -1.186e-6, -6.323e-7, 5.538e-7
0.123, -1.183e-6, -6.308e-7, 5.523e-7
0.122, -1.182e-6, -6.305e-7, 5.517e-7
0.121, -1.180e-6, -6.287e-7, 5.517e-7
0.120, -1.179e-6, -6.287e-7, 5.505e-7
0.119, -1.177e-6, -6.287e-7, 5.480e-7
0.118, -1.174e-6, -6.259e-7, 5.477e-7
0.117, -1.173e-6, -6.262e-7, 5.471e-7
0.116, -1.171e-6, -6.256e-7, 5.450e-7
0.115, -1.170e-6, -6.238e-7, 5.459e-7
0.114, -1.168e-6, -6.241e-7, 5.440e-7
0.113, -1.167e-6, -6.241e-7, 5.428e-7
0.112, -1.164e-6, -6.214e-7, 5.428e-7
0.111, -1.162e-6, -6.195e-7, 5.422e-7
0.110, -1.159e-6, -6.201e-7, 5.389e-7
0.109, -1.160e-6, -6.186e-7, 5.410e-7
0.108, -1.158e-6, -6.180e-7, 5.401e-7
0.107, -1.154e-6, -6.174e-7, 5.370e-7
0.106, -1.157e-6, -6.183e-7, 5.382e-7
0.105, -1.153e-6, -6.159e-7, 5.373e-7
0.104, -1.150e-6, -6.162e-7, 5.340e-7
0.103, -1.150e-6, -6.143e-7, 5.355e-7
0.102, -1.146e-6, -6.125e-7, 5.337e-7
0.101, -1.146e-6, -6.143e-7, 5.315e-7
0.100, -1.148e-6, -6.140e-7, 5.337e-7
0.099, -1.142e-6, -6.119e-7, 5.300e-7
0.098, -1.138e-6, -6.098e-7, 5.282e-7
0.097, -1.139e-6, -6.091e-7, 5.297e-7
0.096, -1.138e-6, -6.091e-7, 5.288e-7
0.095, -1.136e-6, -6.095e-7, 5.270e-7
0.094, -1.136e-6, -6.079e-7, 5.279e-7
0.093, -1.132e-6, -6.058e-7, 5.263e-7
0.092, -1.132e-6, -6.061e-7, 5.260e-7
0.091, -1.129e-6, -6.040e-7, 5.251e-7
0.090, -1.125e-6, -6.024e-7, 5.230e-7
0.089, -1.127e-6, -6.040e-7, 5.230e-7
0.088, -1.128e-6, -6.046e-7, 5.239e-7
0.087, -1.124e-6, -6.024e-7, 5.215e-7
0.086, -1.121e-6, -6.015e-7, 5.196e-7
0.085, -1.121e-6, -6.003e-7, 5.205e-7
0.084, -1.118e-6, -5.991e-7, 5.190e-7
0.083, -1.115e-6, -5.972e-7, 5.181e-7
0.082, -1.118e-6, -5.982e-7, 5.196e-7
0.081, -1.114e-6, -5.960e-7, 5.181e-7
0.080, -1.112e-6, -5.960e-7, 5.163e-7
0.079, -1.112e-6, -5.954e-7, 5.166e-7
0.078, -1.108e-6, -5.933e-7, 5.144e-7
0.077, -1.110e-6, -5.948e-7, 5.154e-7
0.076, -1.106e-6, -5.927e-7, 5.135e-7
0.075, -1.106e-6, -5.924e-7, 5.135e-7
0.074, -1.104e-6, -5.924e-7, 5.114e-7
0.073, -1.104e-6, -5.918e-7, 5.120e-7
0.072, -1.100e-6, -5.896e-7, 5.105e-7
0.071, -1.099e-6, -5.902e-7, 5.093e-7
0.070, -1.096e-6, -5.872e-7, 5.086e-7
0.069, -1.097e-6, -5.887e-7, 5.083e-7
0.068, -1.095e-6, -5.872e-7, 5.080e-7
0.067, -1.092e-6, -5.850e-7, 5.071e-7
0.066, -1.093e-6, -5.857e-7, 5.077e-7
0.065, -1.091e-6, -5.850e-7, 5.056e-7
0.064, -1.091e-6, -5.850e-7, 5.062e-7
0.063, -1.087e-6, -5.835e-7, 5.035e-7
0.062, -1.086e-6, -5.832e-7, 5.028e-7
0.061, -1.086e-6, -5.811e-7, 5.053e-7
0.060, -1.082e-6, -5.808e-7, 5.016e-7
0.059, -1.083e-6, -5.802e-7, 5.028e-7
0.058, -1.082e-6, -5.789e-7, 5.032e-7
0.057, -1.080e-6, -5.783e-7, 5.013e-7
0.056, -1.079e-6, -5.789e-7, 5.001e-7
0.055, -1.079e-6, -5.768e-7, 5.022e-7
0.054, -1.076e-6, -5.753e-7, 5.004e-7
0.053, -1.074e-6, -5.762e-7, 4.983e-7
0.052, -1.074e-6, -5.747e-7, 4.989e-7
0.051, -1.071e-6, -5.747e-7, 4.964e-7
0.050, -1.070e-6, -5.738e-7, 4.964e-7
0.049, -1.068e-6, -5.716e-7, 4.961e-7
0.048, -1.067e-6, -5.722e-7, 4.949e-7
0.047, -1.067e-6, -5.716e-7, 4.952e-7
0.046, -1.064e-6, -5.692e-7, 4.946e-7
0.045, -1.063e-6, -5.695e-7, 4.934e-7
0.044, -1.063e-6, -5.698e-7, 4.937e-7
0.043, -1.060e-6, -5.667e-7, 4.931e-7
0.042, -1.060e-6, -5.670e-7, 4.928e-7
0.041, -1.060e-6, -5.673e-7, 4.931e-7
0.040, -1.058e-6, -5.655e-7, 4.928e-7
0.039, -1.057e-6, -5.658e-7, 4.916e-7
0.038, -1.055e-6, -5.637e-7, 4.909e-7
0.037, -1.055e-6, -5.640e-7, 4.909e-7
0.036, -1.051e-6, -5.615e-7, 4.897e-7
0.035, -1.049e-6, -5.622e-7, 4.870e-7
0.034, -1.049e-6, -5.609e-7, 4.882e-7
0.033, -1.049e-6, -5.615e-7, 4.876e-7
0.032, -1.047e-6, -5.594e-7, 4.873e-7
0.031, -1.047e-6, -5.585e-7, 4.885e-7
0.030, -1.045e-6, -5.594e-7, 4.858e-7
0.029, -1.043e-6, -5.573e-7, 4.861e-7
0.028, -1.042e-6, -5.557e-7, 4.858e-7
0.027, -1.041e-6, -5.570e-7, 4.836e-7
0.026, -1.038e-6, -5.542e-7, 4.839e-7
0.025, -1.038e-6, -5.545e-7, 4.839e-7
0.024, -1.036e-6, -5.536e-7, 4.827e-7
0.023, -1.036e-6, -5.536e-7, 4.821e-7
0.022, -1.033e-6, -5.521e-7, 4.809e-7
0.021, -1.034e-6, -5.518e-7, 4.827e-7
0.020, -1.032e-6, -5.506e-7, 4.812e-7
0.019, -1.031e-6, -5.499e-7, 4.806e-7
0.018, -1.027e-6, -5.493e-7, 4.781e-7
0.017, -1.030e-6, -5.496e-7, 4.803e-7
0.016, -1.027e-6, -5.475e-7, 4.793e-7
0.015, -1.026e-6, -5.478e-7, 4.784e-7
0.014, -1.024e-6, -5.466e-7, 4.775e-7
0.013, -1.024e-6, -5.457e-7, 4.787e-7
0.012, -1.023e-6, -5.460e-7, 4.772e-7
0.011, -1.022e-6, -5.442e-7, 4.775e-7
0.010, -1.020e-6, -5.435e-7, 4.766e-7
0.009, -1.018e-6, -5.429e-7, 4.754e-7
0.008, -1.018e-6, -5.423e-7, 4.757e-7
0.007, -1.018e-6, -5.417e-7, 4.760e-7
0.006, -1.014e-6, -5.408e-7, 4.732e-7
0.005, -1.015e-6, -5.399e-7, 4.751e-7
0.004, -1.013e-6, -5.396e-7, 4.732e-7
0.003, -1.010e-6, -5.387e-7, 4.714e-7
0.002, -1.010e-6, -5.390e-7, 4.708e-7
0.001, -1.009e-6, -5.371e-7, 4.723e-7
-0.000, -1.009e-6, -5.371e-7, 4.714e-7
-0.001, -1.007e-6, -5.362e-7, 4.705e-7
-0.002, -1.006e-6, -5.353e-7, 4.705e-7
-0.003, -1.003e-6, -5.344e-7, 4.687e-7
-0.004, -1.004e-6, -5.338e-7, 4.699e-7
-0.005, -1.004e-6, -5.332e-7, 4.705e-7
-0.006, -1.000e-6, -5.332e-7, 4.671e-7
-0.007, -9.970e-7, -5.307e-7, 4.662e-7
-0.008, -9.991e-7, -5.313e-7, 4.678e-7
-0.009, -9.966e-7, -5.307e-7, 4.659e-7
-0.010, -9.966e-7, -5.307e-7, 4.659e-7
-0.011, -9.957e-7, -5.298e-7, 4.659e-7
-0.012, -9.927e-7, -5.286e-7, 4.641e-7
-0.013, -9.924e-7, -5.283e-7, 4.641e-7
-0.014, -9.908e-7, -5.265e-7, 4.644e-7
-0.015, -9.918e-7, -5.274e-7, 4.644e-7
-0.016, -9.893e-7, -5.261e-7, 4.632e-7
-0.017, -9.866e-7, -5.249e-7, 4.616e-7
-0.018, -9.866e-7, -5.249e-7, 4.616e-7
-0.019, -9.851e-7, -5.249e-7, 4.601e-7
-0.020, -9.835e-7, -5.234e-7, 4.601e-7
-0.021, -9.817e-7, -5.222e-7, 4.595e-7
-0.022, -9.817e-7, -5.228e-7, 4.589e-7
-0.023, -9.823e-7, -5.228e-7, 4.595e-7
-0.024, -9.789e-7, -5.222e-7, 4.568e-7
-0.025, -9.796e-7, -5.216e-7, 4.580e-7
-0.026, -9.765e-7, -5.188e-7, 4.577e-7
-0.027, -9.759e-7, -5.203e-7, 4.555e-7
-0.028, -9.756e-7, -5.185e-7, 4.571e-7
-0.029, -9.759e-7, -5.173e-7, 4.586e-7
-0.030, -9.728e-7, -5.170e-7, 4.559e-7
-0.031, -9.713e-7, -5.164e-7, 4.549e-7
-0.032, -9.716e-7, -5.167e-7, 4.549e-7
-0.033, -9.695e-7, -5.158e-7, 4.537e-7
-0.034, -9.698e-7, -5.161e-7, 4.537e-7
-0.035, -9.664e-7, -5.142e-7, 4.522e-7
-0.036, -9.652e-7, -5.142e-7, 4.510e-7
-0.037, -9.658e-7, -5.133e-7, 4.525e-7
-0.038, -9.646e-7, -5.130e-7, 4.516e-7
-0.039, -9.622e-7, -5.121e-7, 4.501e-7
-0.040, -9.634e-7, -5.121e-7, 4.513e-7
-0.041, -9.619e-7, -5.112e-7, 4.507e-7
-0.042, -9.594e-7, -5.109e-7, 4.485e-7
-0.043, -9.588e-7, -5.106e-7, 4.482e-7
-0.044, -9.570e-7, -5.091e-7, 4.479e-7
-0.045, -9.558e-7, -5.084e-7, 4.473e-7
-0.046, -9.579e-7, -5.109e-7, 4.470e-7
-0.047, -9.530e-7, -5.072e-7, 4.458e-7
-0.048, -9.533e-7, -5.066e-7, 4.467e-7
-0.049, -9.506e-7, -5.066e-7, 4.439e-7
-0.050, -9.500e-7, -5.057e-7, 4.443e-7
