Mar. 20, 2018   11:35:04
Square Wave Voltammetry
File: c:\users\electrochemist\desktop\2018\20032018_unbufarray_unpap\3_g3_ph4,04_3.txt
Data Source:  Experiment
Instrument Model:  CHI1040A
Header: 
Note: 

Init E (V) = 0.7
Final E (V) = -0.4
Incr E (V) = 0.001
Amplitude (V) = 0.1
Frequency (Hz) = 152
Quiet Time (sec) = 2
Sensitivity (A/V) = 1e-6

Difference:

Forward:

Reverse:
Ep = 0.254V
ip = 2.870e-7A
Ah = 3.530e-8VA

Potential/V, Diff(i/A), For(i/A), Rev(i/A)

0.699, -5.887e-7, -1.715e-7, 4.171e-7
0.698, -7.492e-7, -3.681e-7, 3.811e-7
0.697, -7.559e-7, -3.812e-7, 3.747e-7
0.696, -7.531e-7, -3.839e-7, 3.692e-7
0.695, -7.504e-7, -3.833e-7, 3.671e-7
0.694, -7.467e-7, -3.821e-7, 3.646e-7
0.693, -7.504e-7, -3.852e-7, 3.652e-7
0.692, -7.479e-7, -3.852e-7, 3.628e-7
0.691, -7.449e-7, -3.855e-7, 3.594e-7
0.690, -7.458e-7, -3.864e-7, 3.594e-7
0.689, -7.455e-7, -3.867e-7, 3.588e-7
0.688, -7.464e-7, -3.888e-7, 3.576e-7
0.687, -7.464e-7, -3.867e-7, 3.597e-7
0.686, -7.452e-7, -3.879e-7, 3.573e-7
0.685, -7.482e-7, -3.910e-7, 3.573e-7
0.684, -7.455e-7, -3.879e-7, 3.576e-7
0.683, -7.464e-7, -3.894e-7, 3.570e-7
0.682, -7.482e-7, -3.910e-7, 3.573e-7
0.681, -7.492e-7, -3.910e-7, 3.582e-7
0.680, -7.449e-7, -3.925e-7, 3.524e-7
0.679, -7.486e-7, -3.913e-7, 3.573e-7
0.678, -7.464e-7, -3.913e-7, 3.552e-7
0.677, -7.495e-7, -3.943e-7, 3.552e-7
0.676, -7.476e-7, -3.922e-7, 3.555e-7
0.675, -7.467e-7, -3.931e-7, 3.536e-7
0.674, -7.516e-7, -3.968e-7, 3.549e-7
0.673, -7.516e-7, -3.949e-7, 3.567e-7
0.672, -7.479e-7, -3.931e-7, 3.549e-7
0.671, -7.507e-7, -3.968e-7, 3.539e-7
0.670, -7.528e-7, -3.964e-7, 3.564e-7
0.669, -7.504e-7, -3.977e-7, 3.527e-7
0.668, -7.510e-7, -3.989e-7, 3.521e-7
0.667, -7.513e-7, -3.974e-7, 3.539e-7
0.666, -7.525e-7, -3.995e-7, 3.530e-7
0.665, -7.531e-7, -4.013e-7, 3.518e-7
0.664, -7.559e-7, -4.004e-7, 3.555e-7
0.663, -7.534e-7, -4.016e-7, 3.518e-7
0.662, -7.568e-7, -4.035e-7, 3.533e-7
0.661, -7.537e-7, -4.010e-7, 3.527e-7
0.660, -7.562e-7, -4.029e-7, 3.533e-7
0.659, -7.583e-7, -4.029e-7, 3.555e-7
0.658, -7.586e-7, -4.050e-7, 3.536e-7
0.657, -7.571e-7, -4.038e-7, 3.533e-7
0.656, -7.589e-7, -4.041e-7, 3.549e-7
0.655, -7.586e-7, -4.050e-7, 3.536e-7
0.654, -7.589e-7, -4.038e-7, 3.552e-7
0.653, -7.583e-7, -4.053e-7, 3.530e-7
0.652, -7.595e-7, -4.062e-7, 3.533e-7
0.651, -7.632e-7, -4.084e-7, 3.549e-7
0.650, -7.614e-7, -4.068e-7, 3.545e-7
0.649, -7.598e-7, -4.068e-7, 3.530e-7
0.648, -7.638e-7, -4.108e-7, 3.530e-7
0.647, -7.656e-7, -4.102e-7, 3.555e-7
0.646, -7.647e-7, -4.108e-7, 3.539e-7
0.645, -7.659e-7, -4.132e-7, 3.527e-7
0.644, -7.659e-7, -4.096e-7, 3.564e-7
0.643, -7.666e-7, -4.126e-7, 3.539e-7
0.642, -7.666e-7, -4.129e-7, 3.536e-7
0.641, -7.663e-7, -4.123e-7, 3.539e-7
0.640, -7.693e-7, -4.141e-7, 3.552e-7
0.639, -7.696e-7, -4.132e-7, 3.564e-7
0.638, -7.693e-7, -4.157e-7, 3.536e-7
0.637, -7.717e-7, -4.166e-7, 3.552e-7
0.636, -7.748e-7, -4.178e-7, 3.570e-7
0.635, -7.721e-7, -4.175e-7, 3.545e-7
0.634, -7.763e-7, -4.196e-7, 3.567e-7
0.633, -7.736e-7, -4.181e-7, 3.555e-7
0.632, -7.742e-7, -4.215e-7, 3.527e-7
0.631, -7.766e-7, -4.218e-7, 3.549e-7
0.630, -7.757e-7, -4.193e-7, 3.564e-7
0.629, -7.757e-7, -4.206e-7, 3.552e-7
0.628, -7.812e-7, -4.227e-7, 3.585e-7
0.627, -7.788e-7, -4.215e-7, 3.573e-7
0.626, -7.775e-7, -4.224e-7, 3.552e-7
0.625, -7.809e-7, -4.251e-7, 3.558e-7
0.624, -7.836e-7, -4.264e-7, 3.573e-7
0.623, -7.843e-7, -4.270e-7, 3.573e-7
0.622, -7.830e-7, -4.260e-7, 3.570e-7
0.621, -7.840e-7, -4.276e-7, 3.564e-7
0.620, -7.833e-7, -4.279e-7, 3.555e-7
0.619, -7.836e-7, -4.273e-7, 3.564e-7
0.618, -7.846e-7, -4.270e-7, 3.576e-7
0.617, -7.885e-7, -4.303e-7, 3.582e-7
0.616, -7.864e-7, -4.285e-7, 3.579e-7
0.615, -7.876e-7, -4.309e-7, 3.567e-7
0.614, -7.897e-7, -4.318e-7, 3.579e-7
0.613, -7.901e-7, -4.318e-7, 3.582e-7
0.612, -7.919e-7, -4.340e-7, 3.579e-7
0.611, -7.934e-7, -4.340e-7, 3.594e-7
0.610, -7.925e-7, -4.334e-7, 3.591e-7
0.609, -7.959e-7, -4.361e-7, 3.597e-7
0.608, -7.980e-7, -4.370e-7, 3.610e-7
0.607, -7.971e-7, -4.373e-7, 3.597e-7
0.606, -7.974e-7, -4.392e-7, 3.582e-7
0.605, -7.980e-7, -4.386e-7, 3.594e-7
0.604, -8.004e-7, -4.389e-7, 3.616e-7
0.603, -7.980e-7, -4.398e-7, 3.582e-7
0.602, -7.998e-7, -4.398e-7, 3.600e-7
0.601, -7.998e-7, -4.398e-7, 3.600e-7
0.600, -8.041e-7, -4.444e-7, 3.597e-7
0.599, -8.053e-7, -4.422e-7, 3.631e-7
0.598, -8.038e-7, -4.441e-7, 3.597e-7
0.597, -8.087e-7, -4.462e-7, 3.625e-7
0.596, -8.081e-7, -4.453e-7, 3.628e-7
0.595, -8.087e-7, -4.477e-7, 3.610e-7
0.594, -8.105e-7, -4.483e-7, 3.622e-7
0.593, -8.129e-7, -4.483e-7, 3.646e-7
0.592, -8.126e-7, -4.514e-7, 3.613e-7
0.591, -8.132e-7, -4.486e-7, 3.646e-7
0.590, -8.145e-7, -4.495e-7, 3.649e-7
0.589, -8.172e-7, -4.547e-7, 3.625e-7
0.588, -8.206e-7, -4.538e-7, 3.668e-7
0.587, -8.200e-7, -4.538e-7, 3.661e-7
0.586, -8.212e-7, -4.563e-7, 3.649e-7
0.585, -8.251e-7, -4.566e-7, 3.686e-7
0.584, -8.209e-7, -4.569e-7, 3.640e-7
0.583, -8.258e-7, -4.596e-7, 3.661e-7
0.582, -8.264e-7, -4.590e-7, 3.674e-7
0.581, -8.264e-7, -4.590e-7, 3.674e-7
0.580, -8.285e-7, -4.608e-7, 3.677e-7
0.579, -8.316e-7, -4.630e-7, 3.686e-7
0.578, -8.285e-7, -4.624e-7, 3.661e-7
0.577, -8.355e-7, -4.666e-7, 3.689e-7
0.576, -8.364e-7, -4.654e-7, 3.710e-7
0.575, -8.364e-7, -4.669e-7, 3.695e-7
0.574, -8.386e-7, -4.691e-7, 3.695e-7
0.573, -8.398e-7, -4.694e-7, 3.704e-7
0.572, -8.419e-7, -4.703e-7, 3.716e-7
0.571, -8.471e-7, -4.743e-7, 3.729e-7
0.570, -8.453e-7, -4.737e-7, 3.716e-7
0.569, -8.456e-7, -4.746e-7, 3.710e-7
0.568, -8.499e-7, -4.758e-7, 3.741e-7
0.567, -8.502e-7, -4.764e-7, 3.738e-7
0.566, -8.529e-7, -4.788e-7, 3.741e-7
0.565, -8.523e-7, -4.773e-7, 3.750e-7
0.564, -8.535e-7, -4.807e-7, 3.729e-7
0.563, -8.566e-7, -4.804e-7, 3.762e-7
0.562, -8.569e-7, -4.804e-7, 3.765e-7
0.561, -8.581e-7, -4.828e-7, 3.753e-7
0.560, -8.651e-7, -4.865e-7, 3.787e-7
0.559, -8.633e-7, -4.843e-7, 3.790e-7
0.558, -8.663e-7, -4.898e-7, 3.765e-7
0.557, -8.673e-7, -4.883e-7, 3.790e-7
0.556, -8.670e-7, -4.886e-7, 3.783e-7
0.555, -8.688e-7, -4.907e-7, 3.780e-7
0.554, -8.728e-7, -4.929e-7, 3.799e-7
0.553, -8.731e-7, -4.941e-7, 3.790e-7
0.552, -8.773e-7, -4.956e-7, 3.817e-7
0.551, -8.761e-7, -4.950e-7, 3.811e-7
0.550, -8.746e-7, -4.953e-7, 3.793e-7
0.549, -8.813e-7, -4.984e-7, 3.829e-7
0.548, -8.816e-7, -4.972e-7, 3.845e-7
0.547, -8.801e-7, -4.996e-7, 3.805e-7
0.546, -8.868e-7, -5.042e-7, 3.826e-7
0.545, -8.840e-7, -4.999e-7, 3.841e-7
0.544, -8.880e-7, -5.051e-7, 3.829e-7
0.543, -8.920e-7, -5.069e-7, 3.851e-7
0.542, -8.929e-7, -5.057e-7, 3.872e-7
0.541, -8.969e-7, -5.115e-7, 3.854e-7
0.540, -8.981e-7, -5.115e-7, 3.866e-7
0.539, -8.969e-7, -5.109e-7, 3.860e-7
0.538, -8.993e-7, -5.121e-7, 3.872e-7
0.537, -9.036e-7, -5.142e-7, 3.893e-7
0.536, -9.039e-7, -5.152e-7, 3.887e-7
0.535, -9.063e-7, -5.173e-7, 3.890e-7
0.534, -9.063e-7, -5.167e-7, 3.896e-7
0.533, -9.075e-7, -5.185e-7, 3.890e-7
0.532, -9.106e-7, -5.213e-7, 3.893e-7
0.531, -9.124e-7, -5.213e-7, 3.912e-7
0.530, -9.146e-7, -5.231e-7, 3.915e-7
0.529, -9.152e-7, -5.240e-7, 3.912e-7
0.528, -9.182e-7, -5.243e-7, 3.939e-7
0.527, -9.225e-7, -5.295e-7, 3.930e-7
0.526, -9.237e-7, -5.307e-7, 3.930e-7
0.525, -9.252e-7, -5.301e-7, 3.951e-7
0.524, -9.301e-7, -5.359e-7, 3.942e-7
0.523, -9.292e-7, -5.332e-7, 3.960e-7
0.522, -9.301e-7, -5.335e-7, 3.967e-7
0.521, -9.310e-7, -5.365e-7, 3.945e-7
0.520, -9.371e-7, -5.383e-7, 3.988e-7
0.519, -9.387e-7, -5.402e-7, 3.985e-7
0.518, -9.426e-7, -5.441e-7, 3.985e-7
0.517, -9.435e-7, -5.423e-7, 4.012e-7
0.516, -9.439e-7, -5.435e-7, 4.003e-7
0.515, -9.469e-7, -5.469e-7, 4.000e-7
0.514, -9.506e-7, -5.472e-7, 4.034e-7
0.513, -9.548e-7, -5.515e-7, 4.034e-7
0.512, -9.603e-7, -5.551e-7, 4.052e-7
0.511, -9.594e-7, -5.542e-7, 4.052e-7
0.510, -9.597e-7, -5.557e-7, 4.040e-7
0.509, -9.640e-7, -5.570e-7, 4.070e-7
0.508, -9.628e-7, -5.573e-7, 4.055e-7
0.507, -9.686e-7, -5.631e-7, 4.055e-7
0.506, -9.710e-7, -5.612e-7, 4.098e-7
0.505, -9.716e-7, -5.631e-7, 4.086e-7
0.504, -9.731e-7, -5.667e-7, 4.064e-7
0.503, -9.768e-7, -5.667e-7, 4.101e-7
0.502, -9.789e-7, -5.679e-7, 4.110e-7
0.501, -9.823e-7, -5.710e-7, 4.113e-7
0.500, -9.887e-7, -5.747e-7, 4.140e-7
0.499, -9.881e-7, -5.753e-7, 4.128e-7
0.498, -9.921e-7, -5.783e-7, 4.137e-7
0.497, -9.957e-7, -5.799e-7, 4.159e-7
0.496, -9.966e-7, -5.823e-7, 4.144e-7
0.495, -1.001e-6, -5.850e-7, 4.156e-7
0.494, -1.003e-6, -5.844e-7, 4.186e-7
0.493, -1.006e-6, -5.881e-7, 4.177e-7
0.492, -1.010e-6, -5.899e-7, 4.202e-7
0.491, -1.012e-6, -5.924e-7, 4.198e-7
0.490, -1.017e-6, -5.969e-7, 4.205e-7
0.489, -1.017e-6, -5.957e-7, 4.214e-7
0.488, -1.024e-6, -5.985e-7, 4.250e-7
0.487, -1.023e-6, -6.009e-7, 4.220e-7
0.486, -1.028e-6, -6.027e-7, 4.250e-7
0.485, -1.030e-6, -6.040e-7, 4.256e-7
0.484, -1.034e-6, -6.070e-7, 4.266e-7
0.483, -1.036e-6, -6.076e-7, 4.281e-7
0.482, -1.038e-6, -6.091e-7, 4.293e-7
0.481, -1.043e-6, -6.146e-7, 4.287e-7
0.480, -1.046e-6, -6.134e-7, 4.327e-7
0.479, -1.049e-6, -6.171e-7, 4.321e-7
0.478, -1.058e-6, -6.226e-7, 4.357e-7
0.477, -1.057e-6, -6.217e-7, 4.351e-7
0.476, -1.059e-6, -6.265e-7, 4.324e-7
0.475, -1.065e-6, -6.278e-7, 4.375e-7
0.474, -1.067e-6, -6.293e-7, 4.375e-7
0.473, -1.068e-6, -6.326e-7, 4.357e-7
0.472, -1.070e-6, -6.326e-7, 4.379e-7
0.471, -1.073e-6, -6.348e-7, 4.379e-7
0.470, -1.082e-6, -6.406e-7, 4.415e-7
0.469, -1.082e-6, -6.403e-7, 4.415e-7
0.468, -1.085e-6, -6.439e-7, 4.409e-7
0.467, -1.089e-6, -6.473e-7, 4.421e-7
0.466, -1.094e-6, -6.473e-7, 4.467e-7
0.465, -1.095e-6, -6.506e-7, 4.443e-7
0.464, -1.101e-6, -6.549e-7, 4.458e-7
0.463, -1.104e-6, -6.546e-7, 4.494e-7
0.462, -1.106e-6, -6.589e-7, 4.467e-7
0.461, -1.110e-6, -6.601e-7, 4.498e-7
0.460, -1.114e-6, -6.616e-7, 4.519e-7
0.459, -1.111e-6, -6.629e-7, 4.485e-7
0.458, -1.122e-6, -6.693e-7, 4.528e-7
0.457, -1.122e-6, -6.680e-7, 4.543e-7
0.456, -1.125e-6, -6.723e-7, 4.531e-7
0.455, -1.133e-6, -6.754e-7, 4.577e-7
0.454, -1.133e-6, -6.763e-7, 4.568e-7
0.453, -1.140e-6, -6.818e-7, 4.583e-7
0.452, -1.143e-6, -6.824e-7, 4.601e-7
0.451, -1.144e-6, -6.860e-7, 4.583e-7
0.450, -1.147e-6, -6.873e-7, 4.601e-7
0.449, -1.152e-6, -6.903e-7, 4.613e-7
0.448, -1.156e-6, -6.952e-7, 4.607e-7
0.447, -1.157e-6, -6.931e-7, 4.644e-7
0.446, -1.165e-6, -6.989e-7, 4.665e-7
0.445, -1.166e-6, -7.019e-7, 4.641e-7
0.444, -1.170e-6, -7.040e-7, 4.662e-7
0.443, -1.175e-6, -7.068e-7, 4.681e-7
0.442, -1.178e-6, -7.095e-7, 4.684e-7
0.441, -1.184e-6, -7.108e-7, 4.729e-7
0.440, -1.187e-6, -7.141e-7, 4.732e-7
0.439, -1.192e-6, -7.178e-7, 4.739e-7
0.438, -1.195e-6, -7.184e-7, 4.766e-7
0.437, -1.196e-6, -7.202e-7, 4.760e-7
0.436, -1.201e-6, -7.251e-7, 4.760e-7
0.435, -1.207e-6, -7.269e-7, 4.797e-7
0.434, -1.206e-6, -7.282e-7, 4.781e-7
0.433, -1.214e-6, -7.333e-7, 4.806e-7
0.432, -1.218e-6, -7.367e-7, 4.812e-7
0.431, -1.224e-6, -7.398e-7, 4.839e-7
0.430, -1.229e-6, -7.428e-7, 4.864e-7
0.429, -1.232e-6, -7.443e-7, 4.876e-7
0.428, -1.237e-6, -7.489e-7, 4.879e-7
0.427, -1.241e-6, -7.513e-7, 4.897e-7
0.426, -1.240e-6, -7.517e-7, 4.888e-7
0.425, -1.248e-6, -7.575e-7, 4.909e-7
0.424, -1.255e-6, -7.593e-7, 4.955e-7
0.423, -1.255e-6, -7.611e-7, 4.937e-7
0.422, -1.260e-6, -7.660e-7, 4.937e-7
0.421, -1.269e-6, -7.700e-7, 4.986e-7
0.420, -1.270e-6, -7.706e-7, 4.998e-7
0.419, -1.274e-6, -7.758e-7, 4.986e-7
0.418, -1.281e-6, -7.779e-7, 5.035e-7
0.417, -1.281e-6, -7.779e-7, 5.028e-7
0.416, -1.288e-6, -7.846e-7, 5.035e-7
0.415, -1.294e-6, -7.867e-7, 5.068e-7
0.414, -1.293e-6, -7.861e-7, 5.068e-7
0.413, -1.300e-6, -7.907e-7, 5.096e-7
0.412, -1.306e-6, -7.956e-7, 5.105e-7
0.411, -1.311e-6, -7.977e-7, 5.132e-7
0.410, -1.314e-6, -8.005e-7, 5.138e-7
0.409, -1.319e-6, -8.035e-7, 5.154e-7
0.408, -1.325e-6, -8.087e-7, 5.166e-7
0.407, -1.330e-6, -8.093e-7, 5.205e-7
0.406, -1.332e-6, -8.118e-7, 5.205e-7
0.405, -1.339e-6, -8.170e-7, 5.221e-7
0.404, -1.341e-6, -8.179e-7, 5.236e-7
0.403, -1.345e-6, -8.212e-7, 5.239e-7
0.402, -1.355e-6, -8.270e-7, 5.282e-7
0.401, -1.356e-6, -8.267e-7, 5.297e-7
0.400, -1.360e-6, -8.301e-7, 5.300e-7
0.399, -1.369e-6, -8.353e-7, 5.337e-7
0.398, -1.371e-6, -8.371e-7, 5.343e-7
0.397, -1.374e-6, -8.398e-7, 5.343e-7
0.396, -1.381e-6, -8.444e-7, 5.364e-7
0.395, -1.384e-6, -8.447e-7, 5.395e-7
0.394, -1.388e-6, -8.487e-7, 5.389e-7
0.393, -1.392e-6, -8.505e-7, 5.416e-7
0.392, -1.395e-6, -8.524e-7, 5.422e-7
0.391, -1.401e-6, -8.566e-7, 5.444e-7
0.390, -1.409e-6, -8.600e-7, 5.486e-7
0.389, -1.409e-6, -8.612e-7, 5.477e-7
0.388, -1.415e-6, -8.661e-7, 5.486e-7
0.387, -1.418e-6, -8.673e-7, 5.511e-7
0.386, -1.423e-6, -8.707e-7, 5.523e-7
0.385, -1.429e-6, -8.746e-7, 5.547e-7
0.384, -1.431e-6, -8.737e-7, 5.569e-7
0.383, -1.434e-6, -8.777e-7, 5.559e-7
0.382, -1.443e-6, -8.829e-7, 5.599e-7
0.381, -1.448e-6, -8.841e-7, 5.639e-7
0.380, -1.450e-6, -8.871e-7, 5.624e-7
0.379, -1.457e-6, -8.908e-7, 5.660e-7
0.378, -1.458e-6, -8.908e-7, 5.669e-7
0.377, -1.462e-6, -8.960e-7, 5.660e-7
0.376, -1.470e-6, -8.997e-7, 5.703e-7
0.375, -1.472e-6, -8.975e-7, 5.743e-7
0.374, -1.476e-6, -9.027e-7, 5.730e-7
0.373, -1.482e-6, -9.061e-7, 5.758e-7
0.372, -1.485e-6, -9.076e-7, 5.770e-7
0.371, -1.488e-6, -9.097e-7, 5.779e-7
0.370, -1.496e-6, -9.146e-7, 5.810e-7
0.369, -1.498e-6, -9.146e-7, 5.837e-7
0.368, -1.500e-6, -9.183e-7, 5.816e-7
0.367, -1.506e-6, -9.192e-7, 5.871e-7
0.366, -1.507e-6, -9.216e-7, 5.859e-7
0.365, -1.514e-6, -9.250e-7, 5.892e-7
0.364, -1.517e-6, -9.256e-7, 5.913e-7
0.363, -1.521e-6, -9.305e-7, 5.901e-7
0.362, -1.527e-6, -9.320e-7, 5.950e-7
0.361, -1.529e-6, -9.332e-7, 5.962e-7
0.360, -1.531e-6, -9.347e-7, 5.959e-7
0.359, -1.540e-6, -9.387e-7, 6.014e-7
0.358, -1.539e-6, -9.390e-7, 6.002e-7
0.357, -1.545e-6, -9.439e-7, 6.014e-7
0.356, -1.552e-6, -9.448e-7, 6.075e-7
0.355, -1.553e-6, -9.467e-7, 6.060e-7
0.354, -1.556e-6, -9.506e-7, 6.054e-7
0.353, -1.563e-6, -9.500e-7, 6.130e-7
0.352, -1.563e-6, -9.497e-7, 6.136e-7
0.351, -1.569e-6, -9.558e-7, 6.133e-7
0.350, -1.573e-6, -9.558e-7, 6.170e-7
0.349, -1.576e-6, -9.582e-7, 6.182e-7
0.348, -1.581e-6, -9.613e-7, 6.194e-7
0.347, -1.582e-6, -9.616e-7, 6.206e-7
0.346, -1.586e-6, -9.650e-7, 6.209e-7
0.345, -1.590e-6, -9.653e-7, 6.252e-7
0.344, -1.590e-6, -9.653e-7, 6.252e-7
0.343, -1.600e-6, -9.711e-7, 6.292e-7
0.342, -1.601e-6, -9.695e-7, 6.313e-7
0.341, -1.603e-6, -9.711e-7, 6.319e-7
0.340, -1.606e-6, -9.738e-7, 6.319e-7
0.339, -1.614e-6, -9.756e-7, 6.380e-7
0.338, -1.614e-6, -9.753e-7, 6.383e-7
0.337, -1.618e-6, -9.799e-7, 6.380e-7
0.336, -1.623e-6, -9.793e-7, 6.438e-7
0.335, -1.624e-6, -9.802e-7, 6.438e-7
0.334, -1.625e-6, -9.820e-7, 6.429e-7
0.333, -1.631e-6, -9.827e-7, 6.487e-7
0.332, -1.632e-6, -9.827e-7, 6.493e-7
0.331, -1.639e-6, -9.888e-7, 6.499e-7
0.330, -1.641e-6, -9.860e-7, 6.545e-7
0.329, -1.642e-6, -9.891e-7, 6.530e-7
0.328, -1.647e-6, -9.912e-7, 6.560e-7
0.327, -1.648e-6, -9.897e-7, 6.588e-7
0.326, -1.650e-6, -9.918e-7, 6.582e-7
0.325, -1.653e-6, -9.918e-7, 6.615e-7
0.324, -1.656e-6, -9.930e-7, 6.628e-7
0.323, -1.660e-6, -9.949e-7, 6.652e-7
0.322, -1.663e-6, -9.952e-7, 6.673e-7
0.321, -1.665e-6, -9.964e-7, 6.689e-7
0.320, -1.669e-6, -9.982e-7, 6.710e-7
0.319, -1.669e-6, -9.973e-7, 6.713e-7
0.318, -1.672e-6, -9.985e-7, 6.734e-7
0.317, -1.676e-6, -9.991e-7, 6.768e-7
0.316, -1.675e-6, -9.967e-7, 6.786e-7
0.315, -1.679e-6, -9.985e-7, 6.801e-7
0.314, -1.680e-6, -1.000e-6, 6.792e-7
0.313, -1.681e-6, -9.985e-7, 6.826e-7
0.312, -1.683e-6, -1.000e-6, 6.829e-7
0.311, -1.686e-6, -1.002e-6, 6.841e-7
0.310, -1.687e-6, -9.991e-7, 6.878e-7
0.309, -1.691e-6, -1.002e-6, 6.887e-7
0.308, -1.692e-6, -1.001e-6, 6.917e-7
0.307, -1.692e-6, -9.985e-7, 6.933e-7
0.306, -1.695e-6, -1.002e-6, 6.930e-7
0.305, -1.697e-6, -1.001e-6, 6.960e-7
0.304, -1.695e-6, -9.985e-7, 6.960e-7
0.303, -1.696e-6, -9.994e-7, 6.963e-7
0.302, -1.697e-6, -9.976e-7, 6.997e-7
0.301, -1.697e-6, -9.979e-7, 6.991e-7
0.300, -1.703e-6, -9.997e-7, 7.036e-7
0.299, -1.699e-6, -9.964e-7, 7.027e-7
0.298, -1.699e-6, -9.970e-7, 7.021e-7
0.297, -1.701e-6, -9.964e-7, 7.049e-7
0.296, -1.702e-6, -9.943e-7, 7.076e-7
0.295, -1.700e-6, -9.955e-7, 7.043e-7
0.294, -1.706e-6, -9.949e-7, 7.107e-7
0.293, -1.705e-6, -9.936e-7, 7.110e-7
0.292, -1.704e-6, -9.940e-7, 7.104e-7
0.291, -1.707e-6, -9.946e-7, 7.122e-7
0.290, -1.706e-6, -9.900e-7, 7.158e-7
0.289, -1.705e-6, -9.918e-7, 7.128e-7
0.288, -1.706e-6, -9.897e-7, 7.168e-7
0.287, -1.705e-6, -9.875e-7, 7.177e-7
0.286, -1.705e-6, -9.875e-7, 7.171e-7
0.285, -1.705e-6, -9.857e-7, 7.195e-7
0.284, -1.703e-6, -9.854e-7, 7.180e-7
0.283, -1.705e-6, -9.851e-7, 7.198e-7
0.282, -1.703e-6, -9.808e-7, 7.226e-7
0.281, -1.702e-6, -9.808e-7, 7.216e-7
0.280, -1.702e-6, -9.802e-7, 7.220e-7
0.279, -1.701e-6, -9.763e-7, 7.250e-7
0.278, -1.700e-6, -9.778e-7, 7.223e-7
0.277, -1.701e-6, -9.766e-7, 7.244e-7
0.276, -1.698e-6, -9.732e-7, 7.247e-7
0.275, -1.700e-6, -9.732e-7, 7.268e-7
0.274, -1.697e-6, -9.692e-7, 7.277e-7
0.273, -1.697e-6, -9.680e-7, 7.290e-7
0.272, -1.700e-6, -9.711e-7, 7.290e-7
0.271, -1.695e-6, -9.653e-7, 7.293e-7
0.270, -1.694e-6, -9.644e-7, 7.299e-7
0.269, -1.692e-6, -9.647e-7, 7.277e-7
0.268, -1.692e-6, -9.613e-7, 7.308e-7
0.267, -1.689e-6, -9.586e-7, 7.308e-7
0.266, -1.690e-6, -9.579e-7, 7.320e-7
0.265, -1.688e-6, -9.552e-7, 7.323e-7
0.264, -1.685e-6, -9.534e-7, 7.320e-7
0.263, -1.685e-6, -9.515e-7, 7.335e-7
0.262, -1.680e-6, -9.460e-7, 7.335e-7
0.261, -1.684e-6, -9.494e-7, 7.348e-7
0.260, -1.681e-6, -9.463e-7, 7.345e-7
0.259, -1.680e-6, -9.424e-7, 7.375e-7
0.258, -1.678e-6, -9.439e-7, 7.345e-7
0.257, -1.675e-6, -9.387e-7, 7.360e-7
0.256, -1.671e-6, -9.348e-7, 7.360e-7
0.255, -1.670e-6, -9.351e-7, 7.345e-7
0.254, -1.673e-6, -9.329e-7, 7.397e-7
0.253, -1.666e-6, -9.299e-7, 7.366e-7
0.252, -1.664e-6, -9.296e-7, 7.345e-7
0.251, -1.667e-6, -9.271e-7, 7.397e-7
0.250, -1.659e-6, -9.228e-7, 7.366e-7
0.249, -1.661e-6, -9.241e-7, 7.366e-7
0.248, -1.656e-6, -9.186e-7, 7.375e-7
0.247, -1.650e-6, -9.146e-7, 7.351e-7
0.246, -1.651e-6, -9.143e-7, 7.363e-7
0.245, -1.649e-6, -9.125e-7, 7.369e-7
0.244, -1.645e-6, -9.085e-7, 7.363e-7
0.243, -1.640e-6, -9.052e-7, 7.345e-7
0.242, -1.642e-6, -9.042e-7, 7.375e-7
0.241, -1.638e-6, -9.027e-7, 7.351e-7
0.240, -1.636e-6, -8.997e-7, 7.366e-7
0.239, -1.634e-6, -8.972e-7, 7.369e-7
0.238, -1.630e-6, -8.951e-7, 7.348e-7
0.237, -1.627e-6, -8.911e-7, 7.363e-7
0.236, -1.625e-6, -8.896e-7, 7.357e-7
0.235, -1.621e-6, -8.859e-7, 7.351e-7
0.234, -1.619e-6, -8.838e-7, 7.351e-7
0.233, -1.613e-6, -8.813e-7, 7.320e-7
0.232, -1.611e-6, -8.780e-7, 7.329e-7
0.231, -1.608e-6, -8.746e-7, 7.335e-7
0.230, -1.602e-6, -8.725e-7, 7.293e-7
0.229, -1.601e-6, -8.713e-7, 7.302e-7
0.228, -1.599e-6, -8.664e-7, 7.326e-7
0.227, -1.597e-6, -8.673e-7, 7.299e-7
0.226, -1.594e-6, -8.643e-7, 7.302e-7
0.225, -1.590e-6, -8.594e-7, 7.302e-7
0.224, -1.584e-6, -8.582e-7, 7.262e-7
0.223, -1.585e-6, -8.563e-7, 7.284e-7
0.222, -1.578e-6, -8.524e-7, 7.259e-7
0.221, -1.573e-6, -8.496e-7, 7.235e-7
0.220, -1.571e-6, -8.453e-7, 7.253e-7
0.219, -1.566e-6, -8.438e-7, 7.223e-7
0.218, -1.561e-6, -8.402e-7, 7.213e-7
0.217, -1.560e-6, -8.368e-7, 7.229e-7
0.216, -1.555e-6, -8.377e-7, 7.171e-7
0.215, -1.552e-6, -8.337e-7, 7.186e-7
0.214, -1.551e-6, -8.292e-7, 7.223e-7
0.213, -1.542e-6, -8.273e-7, 7.149e-7
0.212, -1.539e-6, -8.264e-7, 7.125e-7
0.211, -1.539e-6, -8.237e-7, 7.149e-7
0.210, -1.534e-6, -8.215e-7, 7.128e-7
0.209, -1.528e-6, -8.179e-7, 7.100e-7
0.208, -1.525e-6, -8.139e-7, 7.107e-7
0.207, -1.519e-6, -8.121e-7, 7.073e-7
0.206, -1.518e-6, -8.096e-7, 7.085e-7
0.205, -1.509e-6, -8.029e-7, 7.061e-7
0.204, -1.508e-6, -8.038e-7, 7.046e-7
0.203, -1.504e-6, -8.014e-7, 7.027e-7
0.202, -1.500e-6, -7.974e-7, 7.021e-7
0.201, -1.495e-6, -7.965e-7, 6.988e-7
0.200, -1.491e-6, -7.922e-7, 6.985e-7
0.199, -1.485e-6, -7.880e-7, 6.969e-7
0.198, -1.481e-6, -7.871e-7, 6.942e-7
0.197, -1.477e-6, -7.837e-7, 6.933e-7
0.196, -1.473e-6, -7.819e-7, 6.914e-7
0.195, -1.469e-6, -7.791e-7, 6.896e-7
0.194, -1.465e-6, -7.761e-7, 6.893e-7
0.193, -1.459e-6, -7.736e-7, 6.856e-7
0.192, -1.457e-6, -7.715e-7, 6.850e-7
0.191, -1.452e-6, -7.678e-7, 6.841e-7
0.190, -1.447e-6, -7.666e-7, 6.801e-7
0.189, -1.444e-6, -7.629e-7, 6.808e-7
0.188, -1.439e-6, -7.602e-7, 6.789e-7
0.187, -1.433e-6, -7.590e-7, 6.743e-7
0.186, -1.433e-6, -7.562e-7, 6.768e-7
0.185, -1.423e-6, -7.520e-7, 6.713e-7
0.184, -1.421e-6, -7.514e-7, 6.695e-7
0.183, -1.418e-6, -7.480e-7, 6.704e-7
0.182, -1.414e-6, -7.459e-7, 6.679e-7
0.181, -1.410e-6, -7.446e-7, 6.658e-7
0.180, -1.406e-6, -7.410e-7, 6.649e-7
0.179, -1.399e-6, -7.391e-7, 6.600e-7
0.178, -1.399e-6, -7.373e-7, 6.612e-7
0.177, -1.391e-6, -7.330e-7, 6.579e-7
0.176, -1.388e-6, -7.324e-7, 6.551e-7
0.175, -1.383e-6, -7.282e-7, 6.551e-7
0.174, -1.378e-6, -7.260e-7, 6.518e-7
0.173, -1.374e-6, -7.257e-7, 6.487e-7
0.172, -1.372e-6, -7.218e-7, 6.502e-7
0.171, -1.365e-6, -7.187e-7, 6.463e-7
0.170, -1.364e-6, -7.187e-7, 6.451e-7
0.169, -1.361e-6, -7.150e-7, 6.460e-7
0.168, -1.356e-6, -7.132e-7, 6.429e-7
0.167, -1.349e-6, -7.126e-7, 6.362e-7
0.166, -1.349e-6, -7.089e-7, 6.402e-7
0.165, -1.342e-6, -7.059e-7, 6.362e-7
0.164, -1.339e-6, -7.062e-7, 6.328e-7
0.163, -1.337e-6, -7.028e-7, 6.338e-7
0.162, -1.331e-6, -7.019e-7, 6.295e-7
0.161, -1.325e-6, -6.979e-7, 6.267e-7
0.160, -1.324e-6, -6.976e-7, 6.261e-7
0.159, -1.317e-6, -6.940e-7, 6.228e-7
0.158, -1.313e-6, -6.931e-7, 6.203e-7
0.157, -1.308e-6, -6.882e-7, 6.197e-7
0.156, -1.305e-6, -6.891e-7, 6.161e-7
0.155, -1.301e-6, -6.854e-7, 6.158e-7
0.154, -1.298e-6, -6.842e-7, 6.139e-7
0.153, -1.294e-6, -6.821e-7, 6.118e-7
0.152, -1.287e-6, -6.787e-7, 6.084e-7
0.151, -1.285e-6, -6.790e-7, 6.060e-7
0.150, -1.280e-6, -6.757e-7, 6.045e-7
0.149, -1.279e-6, -6.745e-7, 6.048e-7
0.148, -1.274e-6, -6.723e-7, 6.017e-7
0.147, -1.270e-6, -6.711e-7, 5.987e-7
0.146, -1.270e-6, -6.683e-7, 6.014e-7
0.145, -1.259e-6, -6.656e-7, 5.938e-7
0.144, -1.260e-6, -6.674e-7, 5.929e-7
0.143, -1.257e-6, -6.635e-7, 5.938e-7
0.142, -1.251e-6, -6.616e-7, 5.895e-7
0.141, -1.250e-6, -6.601e-7, 5.895e-7
0.140, -1.242e-6, -6.558e-7, 5.865e-7
0.139, -1.239e-6, -6.564e-7, 5.825e-7
0.138, -1.235e-6, -6.525e-7, 5.822e-7
0.137, -1.234e-6, -6.540e-7, 5.797e-7
0.136, -1.228e-6, -6.510e-7, 5.770e-7
0.135, -1.226e-6, -6.470e-7, 5.788e-7
0.134, -1.218e-6, -6.464e-7, 5.721e-7
0.133, -1.218e-6, -6.458e-7, 5.718e-7
0.132, -1.217e-6, -6.436e-7, 5.733e-7
0.131, -1.208e-6, -6.418e-7, 5.657e-7
0.130, -1.207e-6, -6.397e-7, 5.669e-7
0.129, -1.201e-6, -6.351e-7, 5.657e-7
0.128, -1.197e-6, -6.354e-7, 5.611e-7
0.127, -1.196e-6, -6.357e-7, 5.605e-7
0.126, -1.191e-6, -6.323e-7, 5.584e-7
0.125, -1.185e-6, -6.317e-7, 5.529e-7
0.124, -1.187e-6, -6.314e-7, 5.556e-7
0.123, -1.181e-6, -6.278e-7, 5.535e-7
0.122, -1.176e-6, -6.272e-7, 5.492e-7
0.121, -1.175e-6, -6.253e-7, 5.498e-7
0.120, -1.172e-6, -6.247e-7, 5.471e-7
0.119, -1.169e-6, -6.232e-7, 5.456e-7
0.118, -1.164e-6, -6.207e-7, 5.434e-7
0.117, -1.161e-6, -6.180e-7, 5.428e-7
0.116, -1.159e-6, -6.180e-7, 5.410e-7
0.115, -1.154e-6, -6.156e-7, 5.386e-7
0.114, -1.149e-6, -6.143e-7, 5.349e-7
0.113, -1.147e-6, -6.128e-7, 5.340e-7
0.112, -1.142e-6, -6.104e-7, 5.318e-7
0.111, -1.139e-6, -6.091e-7, 5.294e-7
0.110, -1.136e-6, -6.073e-7, 5.288e-7
0.109, -1.134e-6, -6.073e-7, 5.270e-7
0.108, -1.128e-6, -6.055e-7, 5.227e-7
0.107, -1.126e-6, -6.030e-7, 5.227e-7
0.106, -1.124e-6, -6.027e-7, 5.212e-7
0.105, -1.121e-6, -6.009e-7, 5.202e-7
0.104, -1.116e-6, -5.988e-7, 5.169e-7
0.103, -1.115e-6, -5.982e-7, 5.169e-7
0.102, -1.112e-6, -5.985e-7, 5.135e-7
0.101, -1.109e-6, -5.954e-7, 5.138e-7
0.100, -1.106e-6, -5.933e-7, 5.123e-7
0.099, -1.104e-6, -5.942e-7, 5.102e-7
0.098, -1.100e-6, -5.902e-7, 5.102e-7
0.097, -1.095e-6, -5.884e-7, 5.062e-7
0.096, -1.093e-6, -5.890e-7, 5.044e-7
0.095, -1.093e-6, -5.872e-7, 5.059e-7
0.094, -1.088e-6, -5.860e-7, 5.019e-7
0.093, -1.088e-6, -5.857e-7, 5.019e-7
0.092, -1.082e-6, -5.823e-7, 4.995e-7
0.091, -1.083e-6, -5.841e-7, 4.986e-7
0.090, -1.079e-6, -5.814e-7, 4.980e-7
0.089, -1.075e-6, -5.780e-7, 4.967e-7
0.088, -1.074e-6, -5.808e-7, 4.931e-7
0.087, -1.069e-6, -5.756e-7, 4.934e-7
0.086, -1.064e-6, -5.734e-7, 4.906e-7
0.085, -1.064e-6, -5.750e-7, 4.891e-7
0.084, -1.065e-6, -5.738e-7, 4.916e-7
0.083, -1.058e-6, -5.713e-7, 4.864e-7
0.082, -1.057e-6, -5.725e-7, 4.845e-7
0.081, -1.054e-6, -5.692e-7, 4.851e-7
0.080, -1.050e-6, -5.673e-7, 4.827e-7
0.079, -1.049e-6, -5.673e-7, 4.815e-7
0.078, -1.047e-6, -5.658e-7, 4.815e-7
0.077, -1.045e-6, -5.649e-7, 4.800e-7
0.076, -1.042e-6, -5.628e-7, 4.790e-7
0.075, -1.040e-6, -5.625e-7, 4.772e-7
0.074, -1.037e-6, -5.615e-7, 4.754e-7
0.073, -1.036e-6, -5.600e-7, 4.760e-7
0.072, -1.034e-6, -5.582e-7, 4.754e-7
0.071, -1.031e-6, -5.591e-7, 4.723e-7
0.070, -1.030e-6, -5.573e-7, 4.723e-7
0.069, -1.028e-6, -5.576e-7, 4.705e-7
0.068, -1.025e-6, -5.564e-7, 4.690e-7
0.067, -1.020e-6, -5.533e-7, 4.668e-7
0.066, -1.022e-6, -5.530e-7, 4.687e-7
0.065, -1.019e-6, -5.527e-7, 4.662e-7
0.064, -1.017e-6, -5.493e-7, 4.674e-7
0.063, -1.014e-6, -5.503e-7, 4.635e-7
0.062, -1.012e-6, -5.490e-7, 4.626e-7
0.061, -1.012e-6, -5.478e-7, 4.644e-7
0.060, -1.009e-6, -5.478e-7, 4.613e-7
0.059, -1.005e-6, -5.457e-7, 4.595e-7
0.058, -1.005e-6, -5.451e-7, 4.595e-7
0.057, -1.001e-6, -5.442e-7, 4.568e-7
0.056, -9.994e-7, -5.417e-7, 4.577e-7
0.055, -9.970e-7, -5.405e-7, 4.565e-7
0.054, -9.951e-7, -5.411e-7, 4.540e-7
0.053, -9.942e-7, -5.380e-7, 4.562e-7
0.052, -9.921e-7, -5.377e-7, 4.543e-7
0.051, -9.902e-7, -5.377e-7, 4.525e-7
0.050, -9.893e-7, -5.353e-7, 4.540e-7
0.049, -9.866e-7, -5.353e-7, 4.513e-7
0.048, -9.847e-7, -5.344e-7, 4.504e-7
0.047, -9.832e-7, -5.323e-7, 4.510e-7
0.046, -9.786e-7, -5.326e-7, 4.461e-7
0.045, -9.793e-7, -5.319e-7, 4.473e-7
0.044, -9.762e-7, -5.286e-7, 4.476e-7
0.043, -9.710e-7, -5.286e-7, 4.424e-7
0.042, -9.731e-7, -5.280e-7, 4.452e-7
0.041, -9.686e-7, -5.255e-7, 4.430e-7
0.040, -9.674e-7, -5.268e-7, 4.406e-7
0.039, -9.658e-7, -5.249e-7, 4.409e-7
0.038, -9.628e-7, -5.225e-7, 4.403e-7
0.037, -9.622e-7, -5.231e-7, 4.391e-7
0.036, -9.591e-7, -5.216e-7, 4.375e-7
0.035, -9.579e-7, -5.200e-7, 4.378e-7
0.034, -9.567e-7, -5.188e-7, 4.378e-7
0.033, -9.555e-7, -5.173e-7, 4.382e-7
0.032, -9.527e-7, -5.173e-7, 4.354e-7
0.031, -9.506e-7, -5.152e-7, 4.354e-7
0.030, -9.490e-7, -5.149e-7, 4.342e-7
0.029, -9.448e-7, -5.139e-7, 4.308e-7
0.028, -9.463e-7, -5.133e-7, 4.330e-7
0.027, -9.420e-7, -5.109e-7, 4.311e-7
0.026, -9.399e-7, -5.109e-7, 4.290e-7
0.025, -9.405e-7, -5.094e-7, 4.311e-7
0.024, -9.381e-7, -5.088e-7, 4.293e-7
0.023, -9.347e-7, -5.075e-7, 4.272e-7
0.022, -9.371e-7, -5.075e-7, 4.296e-7
0.021, -9.338e-7, -5.060e-7, 4.278e-7
0.020, -9.295e-7, -5.045e-7, 4.250e-7
0.019, -9.313e-7, -5.045e-7, 4.269e-7
0.018, -9.268e-7, -5.027e-7, 4.241e-7
0.017, -9.265e-7, -5.039e-7, 4.226e-7
0.016, -9.249e-7, -5.011e-7, 4.238e-7
0.015, -9.216e-7, -4.990e-7, 4.226e-7
0.014, -9.219e-7, -5.002e-7, 4.217e-7
0.013, -9.188e-7, -4.969e-7, 4.220e-7
0.012, -9.173e-7, -4.981e-7, 4.192e-7
0.011, -9.173e-7, -4.962e-7, 4.211e-7
0.010, -9.139e-7, -4.935e-7, 4.205e-7
0.009, -9.133e-7, -4.956e-7, 4.177e-7
0.008, -9.109e-7, -4.935e-7, 4.174e-7
0.007, -9.075e-7, -4.923e-7, 4.153e-7
0.006, -9.051e-7, -4.907e-7, 4.144e-7
0.005, -9.054e-7, -4.907e-7, 4.147e-7
0.004, -9.045e-7, -4.892e-7, 4.153e-7
0.003, -9.048e-7, -4.907e-7, 4.140e-7
0.002, -9.027e-7, -4.877e-7, 4.150e-7
0.001, -9.005e-7, -4.856e-7, 4.150e-7
0.000, -8.996e-7, -4.877e-7, 4.119e-7
-0.001, -8.969e-7, -4.840e-7, 4.128e-7
-0.002, -8.962e-7, -4.834e-7, 4.128e-7
-0.003, -8.950e-7, -4.846e-7, 4.104e-7
-0.004, -8.923e-7, -4.816e-7, 4.107e-7
-0.005, -8.895e-7, -4.816e-7, 4.079e-7
-0.006, -8.908e-7, -4.816e-7, 4.092e-7
-0.007, -8.883e-7, -4.798e-7, 4.086e-7
-0.008, -8.877e-7, -4.782e-7, 4.095e-7
-0.009, -8.847e-7, -4.779e-7, 4.067e-7
-0.010, -8.850e-7, -4.785e-7, 4.064e-7
-0.011, -8.810e-7, -4.767e-7, 4.043e-7
-0.012, -8.828e-7, -4.758e-7, 4.070e-7
-0.013, -8.779e-7, -4.743e-7, 4.037e-7
-0.014, -8.798e-7, -4.764e-7, 4.034e-7
-0.015, -8.792e-7, -4.743e-7, 4.049e-7
-0.016, -8.767e-7, -4.731e-7, 4.037e-7
-0.017, -8.773e-7, -4.734e-7, 4.040e-7
-0.018, -8.749e-7, -4.712e-7, 4.037e-7
-0.019, -8.721e-7, -4.703e-7, 4.018e-7
-0.020, -8.721e-7, -4.706e-7, 4.015e-7
-0.021, -8.700e-7, -4.685e-7, 4.015e-7
-0.022, -8.700e-7, -4.700e-7, 4.000e-7
-0.023, -8.688e-7, -4.697e-7, 3.991e-7
-0.024, -8.648e-7, -4.657e-7, 3.991e-7
-0.025, -8.642e-7, -4.666e-7, 3.976e-7
-0.026, -8.630e-7, -4.654e-7, 3.976e-7
-0.027, -8.627e-7, -4.645e-7, 3.982e-7
-0.028, -8.590e-7, -4.639e-7, 3.951e-7
-0.029, -8.596e-7, -4.636e-7, 3.960e-7
-0.030, -8.547e-7, -4.605e-7, 3.942e-7
-0.031, -8.541e-7, -4.615e-7, 3.927e-7
-0.032, -8.538e-7, -4.587e-7, 3.951e-7
-0.033, -8.505e-7, -4.584e-7, 3.921e-7
-0.034, -8.511e-7, -4.584e-7, 3.927e-7
-0.035, -8.514e-7, -4.566e-7, 3.948e-7
-0.036, -8.465e-7, -4.575e-7, 3.890e-7
-0.037, -8.471e-7, -4.566e-7, 3.905e-7
-0.038, -8.459e-7, -4.541e-7, 3.918e-7
-0.039, -8.435e-7, -4.541e-7, 3.893e-7
-0.040, -8.428e-7, -4.529e-7, 3.899e-7
-0.041, -8.413e-7, -4.517e-7, 3.896e-7
-0.042, -8.355e-7, -4.505e-7, 3.851e-7
-0.043, -8.410e-7, -4.517e-7, 3.893e-7
-0.044, -8.374e-7, -4.502e-7, 3.872e-7
-0.045, -8.325e-7, -4.480e-7, 3.844e-7
-0.046, -8.331e-7, -4.480e-7, 3.851e-7
-0.047, -8.325e-7, -4.480e-7, 3.844e-7
-0.048, -8.300e-7, -4.474e-7, 3.826e-7
-0.049, -8.285e-7, -4.459e-7, 3.826e-7
-0.050, -8.255e-7, -4.444e-7, 3.811e-7
-0.051, -8.242e-7, -4.438e-7, 3.805e-7
-0.052, -8.236e-7, -4.425e-7, 3.811e-7
-0.053, -8.233e-7, -4.438e-7, 3.796e-7
-0.054, -8.218e-7, -4.419e-7, 3.799e-7
-0.055, -8.178e-7, -4.407e-7, 3.771e-7
-0.056, -8.172e-7, -4.395e-7, 3.777e-7
-0.057, -8.175e-7, -4.389e-7, 3.786e-7
-0.058, -8.157e-7, -4.383e-7, 3.774e-7
-0.059, -8.129e-7, -4.367e-7, 3.762e-7
-0.060, -8.142e-7, -4.377e-7, 3.765e-7
-0.061, -8.114e-7, -4.364e-7, 3.750e-7
-0.062, -8.084e-7, -4.340e-7, 3.744e-7
-0.063, -8.102e-7, -4.352e-7, 3.750e-7
-0.064, -8.062e-7, -4.331e-7, 3.732e-7
-0.065, -8.038e-7, -4.337e-7, 3.701e-7
-0.066, -8.032e-7, -4.319e-7, 3.713e-7
-0.067, -8.029e-7, -4.315e-7, 3.713e-7
-0.068, -8.013e-7, -4.306e-7, 3.707e-7
-0.069, -8.013e-7, -4.306e-7, 3.707e-7
-0.070, -7.965e-7, -4.294e-7, 3.670e-7
-0.071, -7.992e-7, -4.294e-7, 3.698e-7
-0.072, -7.977e-7, -4.282e-7, 3.695e-7
-0.073, -7.937e-7, -4.279e-7, 3.658e-7
-0.074, -7.931e-7, -4.261e-7, 3.670e-7
-0.075, -7.894e-7, -4.233e-7, 3.661e-7
-0.076, -7.913e-7, -4.261e-7, 3.652e-7
-0.077, -7.904e-7, -4.245e-7, 3.658e-7
-0.078, -7.876e-7, -4.227e-7, 3.649e-7
-0.079, -7.855e-7, -4.224e-7, 3.631e-7
-0.080, -7.870e-7, -4.221e-7, 3.649e-7
-0.081, -7.840e-7, -4.206e-7, 3.634e-7
-0.082, -7.818e-7, -4.212e-7, 3.606e-7
-0.083, -7.852e-7, -4.218e-7, 3.634e-7
-0.084, -7.806e-7, -4.187e-7, 3.619e-7
-0.085, -7.803e-7, -4.212e-7, 3.591e-7
-0.086, -7.785e-7, -4.175e-7, 3.609e-7
-0.087, -7.772e-7, -4.175e-7, 3.597e-7
-0.088, -7.775e-7, -4.187e-7, 3.588e-7
-0.089, -7.760e-7, -4.160e-7, 3.600e-7
-0.090, -7.730e-7, -4.160e-7, 3.570e-7
-0.091, -7.739e-7, -4.157e-7, 3.582e-7
-0.092, -7.727e-7, -4.160e-7, 3.567e-7
-0.093, -7.702e-7, -4.148e-7, 3.555e-7
-0.094, -7.708e-7, -4.135e-7, 3.573e-7
-0.095, -7.687e-7, -4.123e-7, 3.564e-7
-0.096, -7.663e-7, -4.120e-7, 3.542e-7
-0.097, -7.681e-7, -4.126e-7, 3.555e-7
-0.098, -7.659e-7, -4.108e-7, 3.551e-7
-0.099, -7.650e-7, -4.123e-7, 3.527e-7
-0.100, -7.656e-7, -4.108e-7, 3.548e-7
-0.101, -7.644e-7, -4.105e-7, 3.539e-7
-0.102, -7.635e-7, -4.108e-7, 3.527e-7
-0.103, -7.626e-7, -4.090e-7, 3.536e-7
-0.104, -7.577e-7, -4.077e-7, 3.500e-7
-0.105, -7.574e-7, -4.074e-7, 3.500e-7
-0.106, -7.559e-7, -4.050e-7, 3.509e-7
-0.107, -7.534e-7, -4.059e-7, 3.475e-7
-0.108, -7.565e-7, -4.071e-7, 3.494e-7
-0.109, -7.547e-7, -4.062e-7, 3.484e-7
-0.110, -7.531e-7, -4.059e-7, 3.472e-7
-0.111, -7.528e-7, -4.053e-7, 3.475e-7
-0.112, -7.501e-7, -4.035e-7, 3.466e-7
-0.113, -7.482e-7, -4.026e-7, 3.457e-7
-0.114, -7.489e-7, -4.029e-7, 3.460e-7
-0.115, -7.452e-7, -4.007e-7, 3.445e-7
-0.116, -7.470e-7, -4.023e-7, 3.448e-7
-0.117, -7.461e-7, -4.010e-7, 3.451e-7
-0.118, -7.437e-7, -4.010e-7, 3.426e-7
-0.119, -7.455e-7, -4.013e-7, 3.442e-7
-0.120, -7.428e-7, -3.986e-7, 3.442e-7
-0.121, -7.388e-7, -3.989e-7, 3.399e-7
-0.122, -7.403e-7, -3.983e-7, 3.420e-7
-0.123, -7.397e-7, -3.974e-7, 3.423e-7
-0.124, -7.351e-7, -3.968e-7, 3.384e-7
-0.125, -7.370e-7, -3.974e-7, 3.396e-7
-0.126, -7.376e-7, -3.965e-7, 3.411e-7
-0.127, -7.339e-7, -3.965e-7, 3.374e-7
-0.128, -7.336e-7, -3.946e-7, 3.390e-7
-0.129, -7.351e-7, -3.955e-7, 3.396e-7
-0.130, -7.324e-7, -3.937e-7, 3.387e-7
-0.131, -7.336e-7, -3.946e-7, 3.390e-7
-0.132, -7.312e-7, -3.946e-7, 3.365e-7
-0.133, -7.284e-7, -3.931e-7, 3.353e-7
-0.134, -7.269e-7, -3.922e-7, 3.347e-7
-0.135, -7.257e-7, -3.919e-7, 3.338e-7
-0.136, -7.272e-7, -3.925e-7, 3.347e-7
-0.137, -7.251e-7, -3.910e-7, 3.341e-7
-0.138, -7.248e-7, -3.916e-7, 3.332e-7
-0.139, -7.248e-7, -3.910e-7, 3.338e-7
-0.140, -7.223e-7, -3.894e-7, 3.329e-7
-0.141, -7.235e-7, -3.910e-7, 3.326e-7
-0.142, -7.211e-7, -3.897e-7, 3.313e-7
-0.143, -7.193e-7, -3.876e-7, 3.317e-7
-0.144, -7.180e-7, -3.879e-7, 3.301e-7
-0.145, -7.174e-7, -3.876e-7, 3.298e-7
-0.146, -7.180e-7, -3.873e-7, 3.307e-7
-0.147, -7.147e-7, -3.861e-7, 3.286e-7
-0.148, -7.162e-7, -3.876e-7, 3.286e-7
-0.149, -7.128e-7, -3.855e-7, 3.274e-7
-0.150, -7.128e-7, -3.864e-7, 3.265e-7
-0.151, -7.116e-7, -3.836e-7, 3.280e-7
-0.152, -7.083e-7, -3.824e-7, 3.259e-7
-0.153, -7.104e-7, -3.846e-7, 3.259e-7
-0.154, -7.089e-7, -3.836e-7, 3.252e-7
-0.155, -7.074e-7, -3.824e-7, 3.249e-7
-0.156, -7.089e-7, -3.836e-7, 3.252e-7
-0.157, -7.064e-7, -3.818e-7, 3.246e-7
-0.158, -7.077e-7, -3.839e-7, 3.237e-7
-0.159, -7.067e-7, -3.818e-7, 3.249e-7
-0.160, -7.049e-7, -3.803e-7, 3.246e-7
-0.161, -7.025e-7, -3.806e-7, 3.219e-7
-0.162, -7.055e-7, -3.809e-7, 3.246e-7
-0.163, -7.022e-7, -3.806e-7, 3.216e-7
-0.164, -7.031e-7, -3.812e-7, 3.219e-7
-0.165, -7.034e-7, -3.803e-7, 3.231e-7
-0.166, -7.000e-7, -3.778e-7, 3.222e-7
-0.167, -7.016e-7, -3.812e-7, 3.204e-7
-0.168, -7.006e-7, -3.794e-7, 3.213e-7
-0.169, -6.961e-7, -3.769e-7, 3.191e-7
-0.170, -7.000e-7, -3.797e-7, 3.204e-7
-0.171, -6.994e-7, -3.781e-7, 3.213e-7
-0.172, -6.976e-7, -3.775e-7, 3.201e-7
-0.173, -6.961e-7, -3.781e-7, 3.179e-7
-0.174, -6.967e-7, -3.775e-7, 3.191e-7
-0.175, -6.945e-7, -3.766e-7, 3.179e-7
-0.176, -6.939e-7, -3.772e-7, 3.167e-7
-0.177, -6.933e-7, -3.751e-7, 3.182e-7
-0.178, -6.942e-7, -3.778e-7, 3.164e-7
-0.179, -6.939e-7, -3.760e-7, 3.179e-7
-0.180, -6.933e-7, -3.760e-7, 3.173e-7
-0.181, -6.939e-7, -3.775e-7, 3.164e-7
-0.182, -6.912e-7, -3.748e-7, 3.164e-7
-0.183, -6.906e-7, -3.751e-7, 3.155e-7
-0.184, -6.915e-7, -3.754e-7, 3.161e-7
-0.185, -6.900e-7, -3.745e-7, 3.155e-7
-0.186, -6.906e-7, -3.742e-7, 3.164e-7
-0.187, -6.890e-7, -3.745e-7, 3.146e-7
-0.188, -6.872e-7, -3.727e-7, 3.146e-7
-0.189, -6.869e-7, -3.733e-7, 3.136e-7
-0.190, -6.890e-7, -3.748e-7, 3.143e-7
-0.191, -6.872e-7, -3.727e-7, 3.146e-7
-0.192, -6.875e-7, -3.742e-7, 3.133e-7
-0.193, -6.857e-7, -3.733e-7, 3.124e-7
-0.194, -6.860e-7, -3.717e-7, 3.143e-7
-0.195, -6.839e-7, -3.730e-7, 3.109e-7
-0.196, -6.836e-7, -3.720e-7, 3.115e-7
-0.197, -6.848e-7, -3.720e-7, 3.127e-7
-0.198, -6.832e-7, -3.720e-7, 3.112e-7
-0.199, -6.851e-7, -3.720e-7, 3.130e-7
-0.200, -6.814e-7, -3.714e-7, 3.100e-7
-0.201, -6.817e-7, -3.724e-7, 3.094e-7
-0.202, -6.802e-7, -3.705e-7, 3.097e-7
-0.203, -6.793e-7, -3.702e-7, 3.091e-7
-0.204, -6.808e-7, -3.717e-7, 3.091e-7
-0.205, -6.796e-7, -3.690e-7, 3.106e-7
-0.206, -6.762e-7, -3.690e-7, 3.072e-7
-0.207, -6.811e-7, -3.727e-7, 3.085e-7
-0.208, -6.771e-7, -3.684e-7, 3.088e-7
-0.209, -6.759e-7, -3.696e-7, 3.063e-7
-0.210, -6.778e-7, -3.699e-7, 3.078e-7
-0.211, -6.771e-7, -3.684e-7, 3.088e-7
-0.212, -6.747e-7, -3.693e-7, 3.054e-7
-0.213, -6.762e-7, -3.693e-7, 3.069e-7
-0.214, -6.732e-7, -3.681e-7, 3.051e-7
-0.215, -6.738e-7, -3.693e-7, 3.045e-7
-0.216, -6.744e-7, -3.681e-7, 3.063e-7
-0.217, -6.723e-7, -3.675e-7, 3.048e-7
-0.218, -6.735e-7, -3.681e-7, 3.054e-7
-0.219, -6.726e-7, -3.678e-7, 3.048e-7
-0.220, -6.704e-7, -3.669e-7, 3.036e-7
-0.221, -6.717e-7, -3.675e-7, 3.042e-7
-0.222, -6.707e-7, -3.662e-7, 3.045e-7
-0.223, -6.674e-7, -3.666e-7, 3.008e-7
-0.224, -6.695e-7, -3.662e-7, 3.033e-7
-0.225, -6.695e-7, -3.666e-7, 3.030e-7
-0.226, -6.683e-7, -3.666e-7, 3.017e-7
-0.227, -6.686e-7, -3.656e-7, 3.030e-7
-0.228, -6.671e-7, -3.656e-7, 3.014e-7
-0.229, -6.649e-7, -3.653e-7, 2.996e-7
-0.230, -6.659e-7, -3.653e-7, 3.005e-7
-0.231, -6.674e-7, -3.662e-7, 3.011e-7
-0.232, -6.649e-7, -3.656e-7, 2.993e-7
-0.233, -6.643e-7, -3.641e-7, 3.002e-7
-0.234, -6.649e-7, -3.650e-7, 2.999e-7
-0.235, -6.646e-7, -3.662e-7, 2.984e-7
-0.236, -6.662e-7, -3.647e-7, 3.014e-7
-0.237, -6.634e-7, -3.644e-7, 2.990e-7
-0.238, -6.643e-7, -3.656e-7, 2.987e-7
-0.239, -6.637e-7, -3.644e-7, 2.993e-7
-0.240, -6.640e-7, -3.662e-7, 2.978e-7
-0.241, -6.652e-7, -3.656e-7, 2.996e-7
-0.242, -6.619e-7, -3.635e-7, 2.984e-7
-0.243, -6.613e-7, -3.638e-7, 2.975e-7
-0.244, -6.625e-7, -3.644e-7, 2.981e-7
-0.245, -6.613e-7, -3.635e-7, 2.978e-7
-0.246, -6.604e-7, -3.644e-7, 2.959e-7
-0.247, -6.601e-7, -3.635e-7, 2.966e-7
-0.248, -6.591e-7, -3.632e-7, 2.959e-7
-0.249, -6.610e-7, -3.647e-7, 2.963e-7
-0.250, -6.601e-7, -3.644e-7, 2.956e-7
-0.251, -6.591e-7, -3.629e-7, 2.963e-7
-0.252, -6.610e-7, -3.659e-7, 2.950e-7
-0.253, -6.598e-7, -3.632e-7, 2.966e-7
-0.254, -6.591e-7, -3.626e-7, 2.966e-7
-0.255, -6.591e-7, -3.647e-7, 2.944e-7
-0.256, -6.594e-7, -3.644e-7, 2.950e-7
-0.257, -6.594e-7, -3.644e-7, 2.950e-7
-0.258, -6.598e-7, -3.641e-7, 2.956e-7
-0.259, -6.598e-7, -3.641e-7, 2.956e-7
-0.260, -6.585e-7, -3.638e-7, 2.947e-7
-0.261, -6.594e-7, -3.647e-7, 2.947e-7
-0.262, -6.582e-7, -3.638e-7, 2.944e-7
-0.263, -6.576e-7, -3.641e-7, 2.935e-7
-0.264, -6.588e-7, -3.650e-7, 2.938e-7
-0.265, -6.573e-7, -3.632e-7, 2.941e-7
-0.266, -6.582e-7, -3.647e-7, 2.935e-7
-0.267, -6.582e-7, -3.653e-7, 2.929e-7
-0.268, -6.573e-7, -3.644e-7, 2.929e-7
-0.269, -6.570e-7, -3.647e-7, 2.923e-7
-0.270, -6.579e-7, -3.641e-7, 2.938e-7
-0.271, -6.582e-7, -3.656e-7, 2.926e-7
-0.272, -6.582e-7, -3.666e-7, 2.917e-7
-0.273, -6.555e-7, -3.632e-7, 2.923e-7
-0.274, -6.549e-7, -3.647e-7, 2.901e-7
-0.275, -6.579e-7, -3.653e-7, 2.926e-7
-0.276, -6.561e-7, -3.647e-7, 2.914e-7
-0.277, -6.561e-7, -3.650e-7, 2.911e-7
-0.278, -6.567e-7, -3.650e-7, 2.917e-7
-0.279, -6.567e-7, -3.650e-7, 2.917e-7
-0.280, -6.579e-7, -3.672e-7, 2.908e-7
-0.281, -6.564e-7, -3.650e-7, 2.914e-7
-0.282, -6.561e-7, -3.659e-7, 2.901e-7
-0.283, -6.555e-7, -3.653e-7, 2.901e-7
-0.284, -6.561e-7, -3.647e-7, 2.914e-7
-0.285, -6.555e-7, -3.656e-7, 2.898e-7
-0.286, -6.558e-7, -3.662e-7, 2.895e-7
-0.287, -6.564e-7, -3.653e-7, 2.911e-7
-0.288, -6.552e-7, -3.662e-7, 2.889e-7
-0.289, -6.540e-7, -3.641e-7, 2.898e-7
-0.290, -6.570e-7, -3.656e-7, 2.914e-7
-0.291, -6.552e-7, -3.669e-7, 2.883e-7
-0.292, -6.582e-7, -3.687e-7, 2.895e-7
-0.293, -6.561e-7, -3.659e-7, 2.901e-7
-0.294, -6.552e-7, -3.678e-7, 2.874e-7
-0.295, -6.543e-7, -3.669e-7, 2.874e-7
-0.296, -6.540e-7, -3.659e-7, 2.880e-7
-0.297, -6.530e-7, -3.666e-7, 2.865e-7
-0.298, -6.543e-7, -3.666e-7, 2.877e-7
-0.299, -6.570e-7, -3.678e-7, 2.892e-7
-0.300, -6.561e-7, -3.687e-7, 2.874e-7
-0.301, -6.540e-7, -3.662e-7, 2.877e-7
-0.302, -6.564e-7, -3.687e-7, 2.877e-7
-0.303, -6.561e-7, -3.684e-7, 2.877e-7
-0.304, -6.549e-7, -3.672e-7, 2.877e-7
-0.305, -6.555e-7, -3.684e-7, 2.871e-7
-0.306, -6.564e-7, -3.687e-7, 2.877e-7
-0.307, -6.567e-7, -3.702e-7, 2.865e-7
-0.308, -6.564e-7, -3.696e-7, 2.868e-7
-0.309, -6.564e-7, -3.702e-7, 2.862e-7
-0.310, -6.567e-7, -3.693e-7, 2.874e-7
-0.311, -6.561e-7, -3.705e-7, 2.856e-7
-0.312, -6.567e-7, -3.705e-7, 2.862e-7
-0.313, -6.573e-7, -3.696e-7, 2.877e-7
-0.314, -6.558e-7, -3.711e-7, 2.847e-7
-0.315, -6.549e-7, -3.702e-7, 2.847e-7
-0.316, -6.558e-7, -3.705e-7, 2.853e-7
-0.317, -6.576e-7, -3.727e-7, 2.850e-7
-0.318, -6.570e-7, -3.705e-7, 2.865e-7
-0.319, -6.558e-7, -3.711e-7, 2.847e-7
-0.320, -6.567e-7, -3.714e-7, 2.853e-7
-0.321, -6.576e-7, -3.717e-7, 2.859e-7
-0.322, -6.573e-7, -3.717e-7, 2.856e-7
-0.323, -6.598e-7, -3.739e-7, 2.859e-7
-0.324, -6.582e-7, -3.727e-7, 2.856e-7
-0.325, -6.573e-7, -3.736e-7, 2.837e-7
-0.326, -6.598e-7, -3.742e-7, 2.856e-7
-0.327, -6.576e-7, -3.736e-7, 2.840e-7
-0.328, -6.585e-7, -3.748e-7, 2.837e-7
-0.329, -6.607e-7, -3.748e-7, 2.859e-7
-0.330, -6.582e-7, -3.742e-7, 2.840e-7
-0.331, -6.594e-7, -3.757e-7, 2.837e-7
-0.332, -6.616e-7, -3.754e-7, 2.862e-7
-0.333, -6.585e-7, -3.748e-7, 2.837e-7
-0.334, -6.634e-7, -3.791e-7, 2.843e-7
-0.335, -6.601e-7, -3.751e-7, 2.850e-7
-0.336, -6.607e-7, -3.760e-7, 2.847e-7
-0.337, -6.610e-7, -3.772e-7, 2.837e-7
-0.338, -6.616e-7, -3.763e-7, 2.853e-7
-0.339, -6.616e-7, -3.778e-7, 2.837e-7
-0.340, -6.634e-7, -3.785e-7, 2.850e-7
-0.341, -6.619e-7, -3.778e-7, 2.840e-7
-0.342, -6.646e-7, -3.800e-7, 2.847e-7
-0.343, -6.640e-7, -3.797e-7, 2.843e-7
-0.344, -6.649e-7, -3.800e-7, 2.850e-7
-0.345, -6.631e-7, -3.800e-7, 2.831e-7
-0.346, -6.659e-7, -3.815e-7, 2.843e-7
-0.347, -6.646e-7, -3.806e-7, 2.840e-7
-0.348, -6.662e-7, -3.821e-7, 2.840e-7
-0.349, -6.668e-7, -3.809e-7, 2.859e-7
-0.350, -6.668e-7, -3.818e-7, 2.850e-7
-0.351, -6.662e-7, -3.827e-7, 2.834e-7
-0.352, -6.689e-7, -3.843e-7, 2.847e-7
-0.353, -6.677e-7, -3.830e-7, 2.847e-7
-0.354, -6.692e-7, -3.852e-7, 2.840e-7
-0.355, -6.689e-7, -3.833e-7, 2.856e-7
-0.356, -6.692e-7, -3.833e-7, 2.859e-7
-0.357, -6.726e-7, -3.876e-7, 2.850e-7
-0.358, -6.704e-7, -3.855e-7, 2.850e-7
-0.359, -6.707e-7, -3.858e-7, 2.850e-7
-0.360, -6.720e-7, -3.870e-7, 2.850e-7
-0.361, -6.726e-7, -3.870e-7, 2.856e-7
-0.362, -6.726e-7, -3.879e-7, 2.847e-7
-0.363, -6.738e-7, -3.885e-7, 2.853e-7
-0.364, -6.729e-7, -3.888e-7, 2.840e-7
-0.365, -6.759e-7, -3.891e-7, 2.868e-7
-0.366, -6.732e-7, -3.879e-7, 2.853e-7
-0.367, -6.747e-7, -3.894e-7, 2.853e-7
-0.368, -6.765e-7, -3.904e-7, 2.862e-7
-0.369, -6.762e-7, -3.897e-7, 2.865e-7
-0.370, -6.759e-7, -3.904e-7, 2.856e-7
-0.371, -6.796e-7, -3.925e-7, 2.871e-7
-0.372, -6.768e-7, -3.901e-7, 2.868e-7
-0.373, -6.753e-7, -3.919e-7, 2.834e-7
-0.374, -6.781e-7, -3.931e-7, 2.850e-7
-0.375, -6.793e-7, -3.937e-7, 2.856e-7
-0.376, -6.784e-7, -3.931e-7, 2.853e-7
-0.377, -6.805e-7, -3.955e-7, 2.850e-7
-0.378, -6.793e-7, -3.937e-7, 2.856e-7
-0.379, -6.787e-7, -3.943e-7, 2.843e-7
-0.380, -6.836e-7, -3.965e-7, 2.871e-7
-0.381, -6.820e-7, -3.962e-7, 2.859e-7
-0.382, -6.817e-7, -3.952e-7, 2.865e-7
-0.383, -6.829e-7, -3.965e-7, 2.865e-7
-0.384, -6.817e-7, -3.965e-7, 2.853e-7
-0.385, -6.836e-7, -3.986e-7, 2.850e-7
-0.386, -6.842e-7, -3.980e-7, 2.862e-7
-0.387, -6.839e-7, -3.983e-7, 2.856e-7
-0.388, -6.836e-7, -3.980e-7, 2.856e-7
-0.389, -6.860e-7, -3.995e-7, 2.865e-7
-0.390, -6.857e-7, -3.995e-7, 2.862e-7
-0.391, -6.869e-7, -4.007e-7, 2.862e-7
-0.392, -6.875e-7, -3.998e-7, 2.877e-7
-0.393, -6.878e-7, -4.010e-7, 2.868e-7
-0.394, -6.878e-7, -4.010e-7, 2.868e-7
-0.395, -6.894e-7, -4.026e-7, 2.868e-7
-0.396, -6.887e-7, -4.029e-7, 2.859e-7
-0.397, -6.894e-7, -4.026e-7, 2.868e-7
-0.398, -6.897e-7, -4.029e-7, 2.868e-7
-0.399, -6.918e-7, -4.047e-7, 2.871e-7
-0.400, -6.897e-7, -4.026e-7, 2.871e-7
