Mar. 20, 2018   15:00:26
Square Wave Voltammetry
File: c:\users\electrochemist\desktop\2018\20032018_unbufarray_unpap\40_g1_ph7,20_5.txt
Data Source:  Experiment
Instrument Model:  CHI1040A
Header: 
Note: 

Init E (V) = 0.7
Final E (V) = -0.4
Incr E (V) = 0.001
Amplitude (V) = 0.1
Frequency (Hz) = 152
Quiet Time (sec) = 2
Sensitivity (A/V) = 1e-6

Difference:

Forward:

Reverse:

Potential/V, Diff(i/A), For(i/A), Rev(i/A)

0.699, -6.875e-7, -1.844e-7, 5.032e-7
0.698, -8.673e-7, -4.056e-7, 4.617e-7
0.697, -8.685e-7, -4.151e-7, 4.534e-7
0.696, -8.688e-7, -4.178e-7, 4.510e-7
0.695, -8.651e-7, -4.203e-7, 4.449e-7
0.694, -8.612e-7, -4.193e-7, 4.418e-7
0.693, -8.596e-7, -4.193e-7, 4.403e-7
0.692, -8.593e-7, -4.218e-7, 4.375e-7
0.691, -8.569e-7, -4.184e-7, 4.385e-7
0.690, -8.544e-7, -4.184e-7, 4.360e-7
0.689, -8.538e-7, -4.196e-7, 4.342e-7
0.688, -8.526e-7, -4.193e-7, 4.333e-7
0.687, -8.496e-7, -4.184e-7, 4.311e-7
0.686, -8.483e-7, -4.181e-7, 4.302e-7
0.685, -8.456e-7, -4.175e-7, 4.281e-7
0.684, -8.462e-7, -4.178e-7, 4.284e-7
0.683, -8.468e-7, -4.190e-7, 4.278e-7
0.682, -8.428e-7, -4.178e-7, 4.250e-7
0.681, -8.428e-7, -4.199e-7, 4.229e-7
0.680, -8.419e-7, -4.187e-7, 4.232e-7
0.679, -8.407e-7, -4.184e-7, 4.223e-7
0.678, -8.395e-7, -4.206e-7, 4.189e-7
0.677, -8.401e-7, -4.187e-7, 4.214e-7
0.676, -8.367e-7, -4.178e-7, 4.189e-7
0.675, -8.361e-7, -4.178e-7, 4.183e-7
0.674, -8.346e-7, -4.172e-7, 4.174e-7
0.673, -8.316e-7, -4.166e-7, 4.150e-7
0.672, -8.352e-7, -4.169e-7, 4.183e-7
0.671, -8.334e-7, -4.157e-7, 4.177e-7
0.670, -8.294e-7, -4.151e-7, 4.144e-7
0.669, -8.325e-7, -4.196e-7, 4.128e-7
0.668, -8.328e-7, -4.181e-7, 4.147e-7
0.667, -8.288e-7, -4.184e-7, 4.104e-7
0.666, -8.288e-7, -4.172e-7, 4.116e-7
0.665, -8.291e-7, -4.166e-7, 4.125e-7
0.664, -8.276e-7, -4.181e-7, 4.095e-7
0.663, -8.288e-7, -4.178e-7, 4.110e-7
0.662, -8.264e-7, -4.175e-7, 4.089e-7
0.661, -8.261e-7, -4.181e-7, 4.079e-7
0.660, -8.258e-7, -4.163e-7, 4.095e-7
0.659, -8.218e-7, -4.154e-7, 4.064e-7
0.658, -8.236e-7, -4.193e-7, 4.043e-7
0.657, -8.245e-7, -4.178e-7, 4.067e-7
0.656, -8.206e-7, -4.151e-7, 4.055e-7
0.655, -8.233e-7, -4.193e-7, 4.040e-7
0.654, -8.215e-7, -4.169e-7, 4.046e-7
0.653, -8.187e-7, -4.148e-7, 4.040e-7
0.652, -8.212e-7, -4.181e-7, 4.031e-7
0.651, -8.215e-7, -4.175e-7, 4.040e-7
0.650, -8.197e-7, -4.160e-7, 4.037e-7
0.649, -8.169e-7, -4.166e-7, 4.003e-7
0.648, -8.193e-7, -4.175e-7, 4.018e-7
0.647, -8.175e-7, -4.169e-7, 4.006e-7
0.646, -8.184e-7, -4.184e-7, 4.000e-7
0.645, -8.169e-7, -4.157e-7, 4.012e-7
0.644, -8.148e-7, -4.160e-7, 3.988e-7
0.643, -8.169e-7, -4.184e-7, 3.985e-7
0.642, -8.181e-7, -4.181e-7, 4.000e-7
0.641, -8.142e-7, -4.163e-7, 3.979e-7
0.640, -8.160e-7, -4.160e-7, 4.000e-7
0.639, -8.154e-7, -4.178e-7, 3.976e-7
0.638, -8.151e-7, -4.175e-7, 3.976e-7
0.637, -8.178e-7, -4.187e-7, 3.991e-7
0.636, -8.154e-7, -4.187e-7, 3.967e-7
0.635, -8.136e-7, -4.187e-7, 3.948e-7
0.634, -8.157e-7, -4.169e-7, 3.988e-7
0.633, -8.139e-7, -4.181e-7, 3.957e-7
0.632, -8.160e-7, -4.196e-7, 3.964e-7
0.631, -8.160e-7, -4.193e-7, 3.967e-7
0.630, -8.139e-7, -4.178e-7, 3.960e-7
0.629, -8.166e-7, -4.206e-7, 3.960e-7
0.628, -8.145e-7, -4.184e-7, 3.960e-7
0.627, -8.139e-7, -4.187e-7, 3.951e-7
0.626, -8.136e-7, -4.196e-7, 3.939e-7
0.625, -8.102e-7, -4.163e-7, 3.939e-7
0.624, -8.117e-7, -4.193e-7, 3.924e-7
0.623, -8.145e-7, -4.199e-7, 3.945e-7
0.622, -8.132e-7, -4.184e-7, 3.948e-7
0.621, -8.111e-7, -4.175e-7, 3.936e-7
0.620, -8.132e-7, -4.206e-7, 3.927e-7
0.619, -8.129e-7, -4.178e-7, 3.951e-7
0.618, -8.105e-7, -4.196e-7, 3.909e-7
0.617, -8.102e-7, -4.187e-7, 3.915e-7
0.616, -8.090e-7, -4.181e-7, 3.909e-7
0.615, -8.099e-7, -4.206e-7, 3.893e-7
0.614, -8.114e-7, -4.190e-7, 3.924e-7
0.613, -8.099e-7, -4.193e-7, 3.906e-7
0.612, -8.126e-7, -4.218e-7, 3.909e-7
0.611, -8.126e-7, -4.203e-7, 3.924e-7
0.610, -8.111e-7, -4.206e-7, 3.906e-7
0.609, -8.102e-7, -4.206e-7, 3.896e-7
0.608, -8.099e-7, -4.181e-7, 3.918e-7
0.607, -8.084e-7, -4.212e-7, 3.872e-7
0.606, -8.108e-7, -4.224e-7, 3.884e-7
0.605, -8.093e-7, -4.196e-7, 3.896e-7
0.604, -8.093e-7, -4.209e-7, 3.884e-7
0.603, -8.108e-7, -4.221e-7, 3.887e-7
0.602, -8.096e-7, -4.203e-7, 3.893e-7
0.601, -8.087e-7, -4.212e-7, 3.875e-7
0.600, -8.074e-7, -4.212e-7, 3.863e-7
0.599, -8.071e-7, -4.187e-7, 3.884e-7
0.598, -8.047e-7, -4.190e-7, 3.857e-7
0.597, -8.081e-7, -4.206e-7, 3.875e-7
0.596, -8.081e-7, -4.187e-7, 3.893e-7
0.595, -8.087e-7, -4.239e-7, 3.848e-7
0.594, -8.105e-7, -4.221e-7, 3.884e-7
0.593, -8.081e-7, -4.203e-7, 3.878e-7
0.592, -8.050e-7, -4.212e-7, 3.838e-7
0.591, -8.065e-7, -4.212e-7, 3.854e-7
0.590, -8.056e-7, -4.206e-7, 3.851e-7
0.589, -8.081e-7, -4.224e-7, 3.857e-7
0.588, -8.050e-7, -4.206e-7, 3.845e-7
0.587, -8.062e-7, -4.209e-7, 3.854e-7
0.586, -8.047e-7, -4.203e-7, 3.845e-7
0.585, -8.053e-7, -4.209e-7, 3.845e-7
0.584, -8.026e-7, -4.206e-7, 3.820e-7
0.583, -8.071e-7, -4.224e-7, 3.848e-7
0.582, -8.053e-7, -4.218e-7, 3.835e-7
0.581, -8.041e-7, -4.209e-7, 3.832e-7
0.580, -8.041e-7, -4.209e-7, 3.832e-7
0.579, -8.050e-7, -4.209e-7, 3.841e-7
0.578, -8.038e-7, -4.221e-7, 3.817e-7
0.577, -8.044e-7, -4.224e-7, 3.820e-7
0.576, -8.020e-7, -4.203e-7, 3.817e-7
0.575, -8.050e-7, -4.221e-7, 3.829e-7
0.574, -8.059e-7, -4.221e-7, 3.838e-7
0.573, -8.026e-7, -4.218e-7, 3.808e-7
0.572, -8.050e-7, -4.218e-7, 3.832e-7
0.571, -8.041e-7, -4.224e-7, 3.817e-7
0.570, -8.044e-7, -4.215e-7, 3.829e-7
0.569, -8.026e-7, -4.212e-7, 3.814e-7
0.568, -8.047e-7, -4.227e-7, 3.820e-7
0.567, -8.026e-7, -4.206e-7, 3.820e-7
0.566, -8.041e-7, -4.248e-7, 3.793e-7
0.565, -8.044e-7, -4.215e-7, 3.829e-7
0.564, -8.013e-7, -4.230e-7, 3.783e-7
0.563, -8.026e-7, -4.224e-7, 3.802e-7
0.562, -8.062e-7, -4.242e-7, 3.820e-7
0.561, -8.026e-7, -4.233e-7, 3.793e-7
0.560, -8.050e-7, -4.251e-7, 3.799e-7
0.559, -8.047e-7, -4.227e-7, 3.820e-7
0.558, -8.053e-7, -4.267e-7, 3.787e-7
0.557, -8.078e-7, -4.257e-7, 3.820e-7
0.556, -8.026e-7, -4.230e-7, 3.796e-7
0.555, -8.038e-7, -4.248e-7, 3.790e-7
0.554, -8.056e-7, -4.236e-7, 3.820e-7
0.553, -8.053e-7, -4.242e-7, 3.811e-7
0.552, -8.074e-7, -4.261e-7, 3.814e-7
0.551, -8.078e-7, -4.254e-7, 3.823e-7
0.550, -8.047e-7, -4.248e-7, 3.799e-7
0.549, -8.074e-7, -4.279e-7, 3.796e-7
0.548, -8.062e-7, -4.245e-7, 3.817e-7
0.547, -8.068e-7, -4.264e-7, 3.805e-7
0.546, -8.062e-7, -4.270e-7, 3.793e-7
0.545, -8.062e-7, -4.257e-7, 3.805e-7
0.544, -8.065e-7, -4.257e-7, 3.808e-7
0.543, -8.096e-7, -4.297e-7, 3.799e-7
0.542, -8.090e-7, -4.276e-7, 3.814e-7
0.541, -8.047e-7, -4.242e-7, 3.805e-7
0.540, -8.090e-7, -4.291e-7, 3.799e-7
0.539, -8.096e-7, -4.273e-7, 3.823e-7
0.538, -8.056e-7, -4.254e-7, 3.802e-7
0.537, -8.096e-7, -4.288e-7, 3.808e-7
0.536, -8.099e-7, -4.288e-7, 3.811e-7
0.535, -8.096e-7, -4.279e-7, 3.817e-7
0.534, -8.105e-7, -4.291e-7, 3.814e-7
0.533, -8.059e-7, -4.273e-7, 3.787e-7
0.532, -8.096e-7, -4.297e-7, 3.799e-7
0.531, -8.126e-7, -4.303e-7, 3.823e-7
0.530, -8.102e-7, -4.303e-7, 3.799e-7
0.529, -8.145e-7, -4.315e-7, 3.829e-7
0.528, -8.132e-7, -4.312e-7, 3.820e-7
0.527, -8.114e-7, -4.309e-7, 3.805e-7
0.526, -8.120e-7, -4.315e-7, 3.805e-7
0.525, -8.129e-7, -4.303e-7, 3.826e-7
0.524, -8.093e-7, -4.300e-7, 3.793e-7
0.523, -8.126e-7, -4.322e-7, 3.805e-7
0.522, -8.136e-7, -4.315e-7, 3.820e-7
0.521, -8.123e-7, -4.325e-7, 3.799e-7
0.520, -8.151e-7, -4.337e-7, 3.814e-7
0.519, -8.145e-7, -4.318e-7, 3.826e-7
0.518, -8.123e-7, -4.325e-7, 3.799e-7
0.517, -8.163e-7, -4.340e-7, 3.823e-7
0.516, -8.148e-7, -4.331e-7, 3.817e-7
0.515, -8.160e-7, -4.349e-7, 3.811e-7
0.514, -8.169e-7, -4.334e-7, 3.835e-7
0.513, -8.157e-7, -4.337e-7, 3.820e-7
0.512, -8.151e-7, -4.346e-7, 3.805e-7
0.511, -8.184e-7, -4.358e-7, 3.826e-7
0.510, -8.154e-7, -4.349e-7, 3.805e-7
0.509, -8.169e-7, -4.361e-7, 3.808e-7
0.508, -8.154e-7, -4.340e-7, 3.814e-7
0.507, -8.160e-7, -4.346e-7, 3.814e-7
0.506, -8.181e-7, -4.373e-7, 3.808e-7
0.505, -8.160e-7, -4.334e-7, 3.826e-7
0.504, -8.169e-7, -4.361e-7, 3.808e-7
0.503, -8.203e-7, -4.370e-7, 3.832e-7
0.502, -8.148e-7, -4.349e-7, 3.799e-7
0.501, -8.175e-7, -4.380e-7, 3.796e-7
0.500, -8.203e-7, -4.389e-7, 3.814e-7
0.499, -8.175e-7, -4.352e-7, 3.823e-7
0.498, -8.190e-7, -4.370e-7, 3.820e-7
0.497, -8.190e-7, -4.383e-7, 3.808e-7
0.496, -8.209e-7, -4.370e-7, 3.838e-7
0.495, -8.166e-7, -4.358e-7, 3.808e-7
0.494, -8.218e-7, -4.392e-7, 3.826e-7
0.493, -8.206e-7, -4.367e-7, 3.838e-7
0.492, -8.172e-7, -4.383e-7, 3.790e-7
0.491, -8.184e-7, -4.386e-7, 3.799e-7
0.490, -8.197e-7, -4.373e-7, 3.823e-7
0.489, -8.200e-7, -4.398e-7, 3.802e-7
0.488, -8.206e-7, -4.404e-7, 3.802e-7
0.487, -8.206e-7, -4.386e-7, 3.820e-7
0.486, -8.184e-7, -4.392e-7, 3.793e-7
0.485, -8.203e-7, -4.386e-7, 3.817e-7
0.484, -8.206e-7, -4.389e-7, 3.817e-7
0.483, -8.221e-7, -4.410e-7, 3.811e-7
0.482, -8.209e-7, -4.398e-7, 3.811e-7
0.481, -8.209e-7, -4.398e-7, 3.811e-7
0.480, -8.184e-7, -4.389e-7, 3.796e-7
0.479, -8.206e-7, -4.398e-7, 3.808e-7
0.478, -8.181e-7, -4.395e-7, 3.787e-7
0.477, -8.242e-7, -4.419e-7, 3.823e-7
0.476, -8.212e-7, -4.398e-7, 3.814e-7
0.475, -8.218e-7, -4.413e-7, 3.805e-7
0.474, -8.215e-7, -4.410e-7, 3.805e-7
0.473, -8.203e-7, -4.395e-7, 3.808e-7
0.472, -8.224e-7, -4.419e-7, 3.805e-7
0.471, -8.221e-7, -4.404e-7, 3.817e-7
0.470, -8.221e-7, -4.416e-7, 3.805e-7
0.469, -8.227e-7, -4.425e-7, 3.802e-7
0.468, -8.242e-7, -4.425e-7, 3.817e-7
0.467, -8.239e-7, -4.422e-7, 3.817e-7
0.466, -8.236e-7, -4.450e-7, 3.787e-7
0.465, -8.242e-7, -4.422e-7, 3.820e-7
0.464, -8.218e-7, -4.428e-7, 3.790e-7
0.463, -8.233e-7, -4.441e-7, 3.793e-7
0.462, -8.230e-7, -4.425e-7, 3.805e-7
0.461, -8.248e-7, -4.431e-7, 3.817e-7
0.460, -8.245e-7, -4.462e-7, 3.783e-7
0.459, -8.245e-7, -4.441e-7, 3.805e-7
0.458, -8.233e-7, -4.431e-7, 3.802e-7
0.457, -8.264e-7, -4.453e-7, 3.811e-7
0.456, -8.255e-7, -4.438e-7, 3.817e-7
0.455, -8.258e-7, -4.453e-7, 3.805e-7
0.454, -8.264e-7, -4.462e-7, 3.802e-7
0.453, -8.273e-7, -4.462e-7, 3.811e-7
0.452, -8.279e-7, -4.477e-7, 3.802e-7
0.451, -8.291e-7, -4.474e-7, 3.817e-7
0.450, -8.276e-7, -4.450e-7, 3.826e-7
0.449, -8.264e-7, -4.477e-7, 3.787e-7
0.448, -8.325e-7, -4.489e-7, 3.835e-7
0.447, -8.276e-7, -4.471e-7, 3.805e-7
0.446, -8.285e-7, -4.483e-7, 3.802e-7
0.445, -8.285e-7, -4.474e-7, 3.811e-7
0.444, -8.270e-7, -4.471e-7, 3.799e-7
0.443, -8.313e-7, -4.502e-7, 3.811e-7
0.442, -8.316e-7, -4.486e-7, 3.829e-7
0.441, -8.300e-7, -4.480e-7, 3.820e-7
0.440, -8.328e-7, -4.505e-7, 3.823e-7
0.439, -8.337e-7, -4.502e-7, 3.835e-7
0.438, -8.306e-7, -4.495e-7, 3.811e-7
0.437, -8.343e-7, -4.514e-7, 3.829e-7
0.436, -8.337e-7, -4.505e-7, 3.832e-7
0.435, -8.346e-7, -4.529e-7, 3.817e-7
0.434, -8.352e-7, -4.532e-7, 3.820e-7
0.433, -8.389e-7, -4.541e-7, 3.848e-7
0.432, -8.361e-7, -4.535e-7, 3.826e-7
0.431, -8.377e-7, -4.541e-7, 3.835e-7
0.430, -8.383e-7, -4.541e-7, 3.841e-7
0.429, -8.364e-7, -4.535e-7, 3.829e-7
0.428, -8.383e-7, -4.541e-7, 3.841e-7
0.427, -8.380e-7, -4.541e-7, 3.838e-7
0.426, -8.386e-7, -4.557e-7, 3.829e-7
0.425, -8.419e-7, -4.572e-7, 3.848e-7
0.424, -8.422e-7, -4.566e-7, 3.857e-7
0.423, -8.435e-7, -4.581e-7, 3.854e-7
0.422, -8.407e-7, -4.560e-7, 3.848e-7
0.421, -8.435e-7, -4.578e-7, 3.857e-7
0.420, -8.432e-7, -4.584e-7, 3.848e-7
0.419, -8.425e-7, -4.569e-7, 3.857e-7
0.418, -8.459e-7, -4.596e-7, 3.863e-7
0.417, -8.432e-7, -4.587e-7, 3.844e-7
0.416, -8.447e-7, -4.587e-7, 3.860e-7
0.415, -8.462e-7, -4.608e-7, 3.854e-7
0.414, -8.459e-7, -4.605e-7, 3.854e-7
0.413, -8.468e-7, -4.587e-7, 3.881e-7
0.412, -8.462e-7, -4.611e-7, 3.851e-7
0.411, -8.477e-7, -4.618e-7, 3.860e-7
0.410, -8.456e-7, -4.593e-7, 3.863e-7
0.409, -8.459e-7, -4.618e-7, 3.841e-7
0.408, -8.499e-7, -4.621e-7, 3.878e-7
0.407, -8.462e-7, -4.599e-7, 3.863e-7
0.406, -8.502e-7, -4.636e-7, 3.866e-7
0.405, -8.520e-7, -4.642e-7, 3.878e-7
0.404, -8.499e-7, -4.639e-7, 3.860e-7
0.403, -8.520e-7, -4.657e-7, 3.863e-7
0.402, -8.526e-7, -4.642e-7, 3.884e-7
0.401, -8.490e-7, -4.633e-7, 3.857e-7
0.400, -8.523e-7, -4.654e-7, 3.869e-7
0.399, -8.529e-7, -4.642e-7, 3.887e-7
0.398, -8.511e-7, -4.648e-7, 3.863e-7
0.397, -8.544e-7, -4.676e-7, 3.869e-7
0.396, -8.560e-7, -4.657e-7, 3.902e-7
0.395, -8.532e-7, -4.669e-7, 3.863e-7
0.394, -8.547e-7, -4.669e-7, 3.878e-7
0.393, -8.544e-7, -4.663e-7, 3.881e-7
0.392, -8.517e-7, -4.672e-7, 3.844e-7
0.391, -8.596e-7, -4.700e-7, 3.896e-7
0.390, -8.557e-7, -4.666e-7, 3.890e-7
0.389, -8.547e-7, -4.685e-7, 3.863e-7
0.388, -8.575e-7, -4.700e-7, 3.875e-7
0.387, -8.578e-7, -4.682e-7, 3.896e-7
0.386, -8.560e-7, -4.697e-7, 3.863e-7
0.385, -8.596e-7, -4.709e-7, 3.887e-7
0.384, -8.578e-7, -4.691e-7, 3.887e-7
0.383, -8.584e-7, -4.706e-7, 3.878e-7
0.382, -8.590e-7, -4.715e-7, 3.875e-7
0.381, -8.581e-7, -4.694e-7, 3.887e-7
0.380, -8.602e-7, -4.724e-7, 3.878e-7
0.379, -8.624e-7, -4.721e-7, 3.902e-7
0.378, -8.605e-7, -4.721e-7, 3.884e-7
0.377, -8.599e-7, -4.721e-7, 3.878e-7
0.376, -8.605e-7, -4.718e-7, 3.887e-7
0.375, -8.612e-7, -4.724e-7, 3.887e-7
0.374, -8.624e-7, -4.734e-7, 3.890e-7
0.373, -8.612e-7, -4.718e-7, 3.893e-7
0.372, -8.618e-7, -4.740e-7, 3.878e-7
0.371, -8.642e-7, -4.740e-7, 3.902e-7
0.370, -8.642e-7, -4.743e-7, 3.899e-7
0.369, -8.666e-7, -4.764e-7, 3.902e-7
0.368, -8.645e-7, -4.761e-7, 3.884e-7
0.367, -8.648e-7, -4.755e-7, 3.893e-7
0.366, -8.645e-7, -4.761e-7, 3.884e-7
0.365, -8.657e-7, -4.764e-7, 3.893e-7
0.364, -8.676e-7, -4.770e-7, 3.906e-7
0.363, -8.682e-7, -4.785e-7, 3.896e-7
0.362, -8.685e-7, -4.776e-7, 3.909e-7
0.361, -8.673e-7, -4.770e-7, 3.902e-7
0.360, -8.685e-7, -4.791e-7, 3.893e-7
0.359, -8.703e-7, -4.791e-7, 3.912e-7
0.358, -8.685e-7, -4.798e-7, 3.887e-7
0.357, -8.721e-7, -4.819e-7, 3.902e-7
0.356, -8.721e-7, -4.807e-7, 3.915e-7
0.355, -8.718e-7, -4.813e-7, 3.906e-7
0.354, -8.740e-7, -4.834e-7, 3.906e-7
0.353, -8.755e-7, -4.825e-7, 3.930e-7
0.352, -8.743e-7, -4.828e-7, 3.915e-7
0.351, -8.764e-7, -4.834e-7, 3.930e-7
0.350, -8.752e-7, -4.831e-7, 3.921e-7
0.349, -8.737e-7, -4.840e-7, 3.896e-7
0.348, -8.752e-7, -4.831e-7, 3.921e-7
0.347, -8.761e-7, -4.840e-7, 3.921e-7
0.346, -8.770e-7, -4.862e-7, 3.909e-7
0.345, -8.789e-7, -4.859e-7, 3.930e-7
0.344, -8.789e-7, -4.865e-7, 3.924e-7
0.343, -8.789e-7, -4.868e-7, 3.921e-7
0.342, -8.816e-7, -4.886e-7, 3.930e-7
0.341, -8.804e-7, -4.871e-7, 3.933e-7
0.340, -8.831e-7, -4.898e-7, 3.933e-7
0.339, -8.825e-7, -4.889e-7, 3.936e-7
0.338, -8.828e-7, -4.880e-7, 3.948e-7
0.337, -8.840e-7, -4.907e-7, 3.933e-7
0.336, -8.865e-7, -4.901e-7, 3.963e-7
0.335, -8.822e-7, -4.889e-7, 3.933e-7
0.334, -8.868e-7, -4.926e-7, 3.942e-7
0.333, -8.874e-7, -4.914e-7, 3.960e-7
0.332, -8.880e-7, -4.932e-7, 3.948e-7
0.331, -8.892e-7, -4.941e-7, 3.951e-7
0.330, -8.895e-7, -4.947e-7, 3.948e-7
0.329, -8.929e-7, -4.956e-7, 3.973e-7
0.328, -8.932e-7, -4.956e-7, 3.976e-7
0.327, -8.920e-7, -4.950e-7, 3.970e-7
0.326, -8.926e-7, -4.965e-7, 3.960e-7
0.325, -8.953e-7, -4.978e-7, 3.976e-7
0.324, -8.956e-7, -4.975e-7, 3.982e-7
0.323, -8.953e-7, -4.990e-7, 3.963e-7
0.322, -8.972e-7, -4.978e-7, 3.994e-7
0.321, -8.972e-7, -4.987e-7, 3.985e-7
0.320, -9.017e-7, -5.014e-7, 4.003e-7
0.319, -9.027e-7, -5.014e-7, 4.012e-7
0.318, -8.993e-7, -5.005e-7, 3.988e-7
0.317, -9.030e-7, -5.030e-7, 4.000e-7
0.316, -9.027e-7, -5.023e-7, 4.003e-7
0.315, -9.024e-7, -5.030e-7, 3.994e-7
0.314, -9.051e-7, -5.048e-7, 4.003e-7
0.313, -9.057e-7, -5.039e-7, 4.018e-7
0.312, -9.069e-7, -5.066e-7, 4.003e-7
0.311, -9.069e-7, -5.060e-7, 4.009e-7
0.310, -9.082e-7, -5.060e-7, 4.021e-7
0.309, -9.097e-7, -5.072e-7, 4.025e-7
0.308, -9.124e-7, -5.094e-7, 4.031e-7
0.307, -9.127e-7, -5.094e-7, 4.034e-7
0.306, -9.112e-7, -5.084e-7, 4.028e-7
0.305, -9.158e-7, -5.106e-7, 4.052e-7
0.304, -9.115e-7, -5.088e-7, 4.028e-7
0.303, -9.136e-7, -5.118e-7, 4.018e-7
0.302, -9.170e-7, -5.124e-7, 4.046e-7
0.301, -9.170e-7, -5.127e-7, 4.043e-7
0.300, -9.170e-7, -5.139e-7, 4.031e-7
0.299, -9.179e-7, -5.124e-7, 4.055e-7
0.298, -9.197e-7, -5.149e-7, 4.049e-7
0.297, -9.213e-7, -5.167e-7, 4.046e-7
0.296, -9.237e-7, -5.152e-7, 4.086e-7
0.295, -9.225e-7, -5.164e-7, 4.061e-7
0.294, -9.246e-7, -5.194e-7, 4.052e-7
0.293, -9.262e-7, -5.176e-7, 4.086e-7
0.292, -9.243e-7, -5.188e-7, 4.055e-7
0.291, -9.271e-7, -5.197e-7, 4.073e-7
0.290, -9.274e-7, -5.191e-7, 4.082e-7
0.289, -9.265e-7, -5.213e-7, 4.052e-7
0.288, -9.298e-7, -5.222e-7, 4.076e-7
0.287, -9.307e-7, -5.210e-7, 4.098e-7
0.286, -9.292e-7, -5.231e-7, 4.061e-7
0.285, -9.341e-7, -5.258e-7, 4.082e-7
0.284, -9.307e-7, -5.228e-7, 4.079e-7
0.283, -9.332e-7, -5.249e-7, 4.082e-7
0.282, -9.344e-7, -5.258e-7, 4.086e-7
0.281, -9.341e-7, -5.255e-7, 4.086e-7
0.280, -9.332e-7, -5.258e-7, 4.073e-7
0.279, -9.374e-7, -5.283e-7, 4.092e-7
0.278, -9.381e-7, -5.286e-7, 4.095e-7
0.277, -9.393e-7, -5.295e-7, 4.098e-7
0.276, -9.402e-7, -5.301e-7, 4.101e-7
0.275, -9.402e-7, -5.292e-7, 4.110e-7
0.274, -9.429e-7, -5.319e-7, 4.110e-7
0.273, -9.432e-7, -5.326e-7, 4.107e-7
0.272, -9.435e-7, -5.326e-7, 4.110e-7
0.271, -9.466e-7, -5.347e-7, 4.119e-7
0.270, -9.484e-7, -5.344e-7, 4.140e-7
0.269, -9.460e-7, -5.347e-7, 4.113e-7
0.268, -9.481e-7, -5.377e-7, 4.104e-7
0.267, -9.487e-7, -5.362e-7, 4.125e-7
0.266, -9.497e-7, -5.387e-7, 4.110e-7
0.265, -9.518e-7, -5.384e-7, 4.134e-7
0.264, -9.515e-7, -5.380e-7, 4.134e-7
0.263, -9.536e-7, -5.411e-7, 4.125e-7
0.262, -9.542e-7, -5.411e-7, 4.131e-7
0.261, -9.558e-7, -5.405e-7, 4.153e-7
0.260, -9.570e-7, -5.426e-7, 4.144e-7
0.259, -9.591e-7, -5.441e-7, 4.150e-7
0.258, -9.576e-7, -5.445e-7, 4.131e-7
0.257, -9.612e-7, -5.457e-7, 4.156e-7
0.256, -9.625e-7, -5.454e-7, 4.171e-7
0.255, -9.606e-7, -5.451e-7, 4.156e-7
0.254, -9.661e-7, -5.487e-7, 4.174e-7
0.253, -9.674e-7, -5.490e-7, 4.183e-7
0.252, -9.649e-7, -5.484e-7, 4.165e-7
0.251, -9.674e-7, -5.506e-7, 4.168e-7
0.250, -9.710e-7, -5.515e-7, 4.195e-7
0.249, -9.698e-7, -5.518e-7, 4.180e-7
0.248, -9.728e-7, -5.539e-7, 4.189e-7
0.247, -9.728e-7, -5.539e-7, 4.189e-7
0.246, -9.756e-7, -5.573e-7, 4.183e-7
0.245, -9.786e-7, -5.576e-7, 4.211e-7
0.244, -9.777e-7, -5.570e-7, 4.208e-7
0.243, -9.793e-7, -5.597e-7, 4.195e-7
0.242, -9.799e-7, -5.585e-7, 4.214e-7
0.241, -9.799e-7, -5.588e-7, 4.211e-7
0.240, -9.838e-7, -5.634e-7, 4.205e-7
0.239, -9.872e-7, -5.625e-7, 4.247e-7
0.238, -9.851e-7, -5.622e-7, 4.229e-7
0.237, -9.884e-7, -5.658e-7, 4.226e-7
0.236, -9.912e-7, -5.655e-7, 4.256e-7
0.235, -9.915e-7, -5.673e-7, 4.241e-7
0.234, -9.945e-7, -5.692e-7, 4.253e-7
0.233, -9.960e-7, -5.695e-7, 4.266e-7
0.232, -9.954e-7, -5.695e-7, 4.259e-7
0.231, -9.966e-7, -5.704e-7, 4.263e-7
0.230, -1.001e-6, -5.719e-7, 4.287e-7
0.229, -9.988e-7, -5.713e-7, 4.275e-7
0.228, -1.000e-6, -5.737e-7, 4.263e-7
0.227, -1.006e-6, -5.759e-7, 4.305e-7
0.226, -1.004e-6, -5.756e-7, 4.281e-7
0.225, -1.006e-6, -5.774e-7, 4.287e-7
0.224, -1.009e-6, -5.777e-7, 4.314e-7
0.223, -1.010e-6, -5.799e-7, 4.302e-7
0.222, -1.013e-6, -5.808e-7, 4.317e-7
0.221, -1.014e-6, -5.811e-7, 4.327e-7
0.220, -1.014e-6, -5.826e-7, 4.317e-7
0.219, -1.019e-6, -5.847e-7, 4.342e-7
0.218, -1.018e-6, -5.835e-7, 4.345e-7
0.217, -1.020e-6, -5.872e-7, 4.333e-7
0.216, -1.023e-6, -5.869e-7, 4.363e-7
0.215, -1.024e-6, -5.890e-7, 4.354e-7
0.214, -1.025e-6, -5.896e-7, 4.354e-7
0.213, -1.027e-6, -5.899e-7, 4.375e-7
0.212, -1.028e-6, -5.908e-7, 4.369e-7
0.211, -1.031e-6, -5.933e-7, 4.375e-7
0.210, -1.034e-6, -5.936e-7, 4.400e-7
0.209, -1.036e-6, -5.963e-7, 4.397e-7
0.208, -1.038e-6, -5.969e-7, 4.409e-7
0.207, -1.038e-6, -5.966e-7, 4.415e-7
0.206, -1.039e-6, -5.976e-7, 4.412e-7
0.205, -1.042e-6, -6.003e-7, 4.421e-7
0.204, -1.045e-6, -6.003e-7, 4.443e-7
0.203, -1.045e-6, -6.021e-7, 4.424e-7
0.202, -1.048e-6, -6.034e-7, 4.446e-7
0.201, -1.049e-6, -6.040e-7, 4.452e-7
0.200, -1.050e-6, -6.064e-7, 4.440e-7
0.199, -1.053e-6, -6.058e-7, 4.470e-7
0.198, -1.052e-6, -6.061e-7, 4.464e-7
0.197, -1.057e-6, -6.098e-7, 4.470e-7
0.196, -1.060e-6, -6.107e-7, 4.491e-7
0.195, -1.058e-6, -6.116e-7, 4.461e-7
0.194, -1.061e-6, -6.128e-7, 4.485e-7
0.193, -1.063e-6, -6.128e-7, 4.507e-7
0.192, -1.064e-6, -6.143e-7, 4.498e-7
0.191, -1.066e-6, -6.165e-7, 4.494e-7
0.190, -1.067e-6, -6.162e-7, 4.513e-7
0.189, -1.067e-6, -6.171e-7, 4.504e-7
0.188, -1.072e-6, -6.183e-7, 4.540e-7
0.187, -1.073e-6, -6.189e-7, 4.537e-7
0.186, -1.072e-6, -6.210e-7, 4.510e-7
0.185, -1.078e-6, -6.229e-7, 4.546e-7
0.184, -1.075e-6, -6.217e-7, 4.537e-7
0.183, -1.078e-6, -6.247e-7, 4.537e-7
0.182, -1.079e-6, -6.235e-7, 4.555e-7
0.181, -1.083e-6, -6.253e-7, 4.577e-7
0.180, -1.081e-6, -6.272e-7, 4.543e-7
0.179, -1.088e-6, -6.296e-7, 4.583e-7
0.178, -1.085e-6, -6.262e-7, 4.586e-7
0.177, -1.087e-6, -6.293e-7, 4.577e-7
0.176, -1.091e-6, -6.311e-7, 4.601e-7
0.175, -1.093e-6, -6.317e-7, 4.610e-7
0.174, -1.092e-6, -6.336e-7, 4.586e-7
0.173, -1.095e-6, -6.345e-7, 4.604e-7
0.172, -1.098e-6, -6.354e-7, 4.623e-7
0.171, -1.098e-6, -6.369e-7, 4.613e-7
0.170, -1.100e-6, -6.369e-7, 4.635e-7
0.169, -1.103e-6, -6.391e-7, 4.635e-7
0.168, -1.101e-6, -6.375e-7, 4.635e-7
0.167, -1.104e-6, -6.387e-7, 4.650e-7
0.166, -1.105e-6, -6.406e-7, 4.644e-7
0.165, -1.107e-6, -6.418e-7, 4.653e-7
0.164, -1.108e-6, -6.421e-7, 4.656e-7
0.163, -1.110e-6, -6.442e-7, 4.659e-7
0.162, -1.115e-6, -6.458e-7, 4.690e-7
0.161, -1.114e-6, -6.452e-7, 4.684e-7
0.160, -1.117e-6, -6.470e-7, 4.696e-7
0.159, -1.118e-6, -6.482e-7, 4.702e-7
0.158, -1.120e-6, -6.485e-7, 4.717e-7
0.157, -1.121e-6, -6.500e-7, 4.711e-7
0.156, -1.122e-6, -6.500e-7, 4.717e-7
0.155, -1.122e-6, -6.507e-7, 4.711e-7
0.154, -1.126e-6, -6.522e-7, 4.736e-7
0.153, -1.126e-6, -6.522e-7, 4.742e-7
0.152, -1.127e-6, -6.540e-7, 4.729e-7
0.151, -1.127e-6, -6.549e-7, 4.720e-7
0.150, -1.132e-6, -6.549e-7, 4.775e-7
0.149, -1.131e-6, -6.558e-7, 4.751e-7
0.148, -1.135e-6, -6.580e-7, 4.772e-7
0.147, -1.135e-6, -6.574e-7, 4.781e-7
0.146, -1.137e-6, -6.595e-7, 4.775e-7
0.145, -1.139e-6, -6.610e-7, 4.778e-7
0.144, -1.142e-6, -6.601e-7, 4.815e-7
0.143, -1.141e-6, -6.616e-7, 4.797e-7
0.142, -1.145e-6, -6.641e-7, 4.812e-7
0.141, -1.146e-6, -6.632e-7, 4.830e-7
0.140, -1.148e-6, -6.656e-7, 4.824e-7
0.139, -1.152e-6, -6.668e-7, 4.848e-7
0.138, -1.150e-6, -6.647e-7, 4.851e-7
0.137, -1.153e-6, -6.680e-7, 4.851e-7
0.136, -1.155e-6, -6.690e-7, 4.861e-7
0.135, -1.154e-6, -6.671e-7, 4.867e-7
0.134, -1.158e-6, -6.705e-7, 4.873e-7
0.133, -1.161e-6, -6.708e-7, 4.900e-7
0.132, -1.159e-6, -6.708e-7, 4.885e-7
0.131, -1.161e-6, -6.723e-7, 4.882e-7
0.130, -1.162e-6, -6.717e-7, 4.906e-7
0.129, -1.164e-6, -6.726e-7, 4.909e-7
0.128, -1.168e-6, -6.766e-7, 4.909e-7
0.127, -1.170e-6, -6.757e-7, 4.946e-7
0.126, -1.168e-6, -6.754e-7, 4.931e-7
0.125, -1.172e-6, -6.781e-7, 4.934e-7
0.124, -1.173e-6, -6.781e-7, 4.952e-7
0.123, -1.175e-6, -6.790e-7, 4.961e-7
0.122, -1.175e-6, -6.784e-7, 4.967e-7
0.121, -1.178e-6, -6.796e-7, 4.983e-7
0.120, -1.179e-6, -6.815e-7, 4.974e-7
0.119, -1.182e-6, -6.827e-7, 4.995e-7
0.118, -1.181e-6, -6.809e-7, 4.998e-7
0.117, -1.184e-6, -6.830e-7, 5.010e-7
0.116, -1.186e-6, -6.833e-7, 5.028e-7
0.115, -1.187e-6, -6.833e-7, 5.038e-7
0.114, -1.188e-6, -6.848e-7, 5.032e-7
0.113, -1.190e-6, -6.851e-7, 5.053e-7
0.112, -1.190e-6, -6.857e-7, 5.041e-7
0.111, -1.192e-6, -6.870e-7, 5.050e-7
0.110, -1.193e-6, -6.867e-7, 5.068e-7
0.109, -1.193e-6, -6.867e-7, 5.059e-7
0.108, -1.195e-6, -6.885e-7, 5.062e-7
0.107, -1.197e-6, -6.888e-7, 5.080e-7
0.106, -1.196e-6, -6.885e-7, 5.074e-7
0.105, -1.203e-6, -6.918e-7, 5.114e-7
0.104, -1.201e-6, -6.894e-7, 5.117e-7
0.103, -1.203e-6, -6.912e-7, 5.117e-7
0.102, -1.204e-6, -6.918e-7, 5.120e-7
0.101, -1.206e-6, -6.918e-7, 5.138e-7
0.100, -1.204e-6, -6.925e-7, 5.120e-7
0.099, -1.206e-6, -6.931e-7, 5.129e-7
0.098, -1.208e-6, -6.931e-7, 5.154e-7
0.097, -1.209e-6, -6.946e-7, 5.141e-7
0.096, -1.210e-6, -6.937e-7, 5.160e-7
0.095, -1.210e-6, -6.934e-7, 5.166e-7
0.094, -1.210e-6, -6.940e-7, 5.163e-7
0.093, -1.214e-6, -6.940e-7, 5.196e-7
0.092, -1.211e-6, -6.934e-7, 5.175e-7
0.091, -1.213e-6, -6.955e-7, 5.178e-7
0.090, -1.215e-6, -6.940e-7, 5.205e-7
0.089, -1.214e-6, -6.943e-7, 5.193e-7
0.088, -1.216e-6, -6.964e-7, 5.196e-7
0.087, -1.215e-6, -6.943e-7, 5.212e-7
0.086, -1.217e-6, -6.970e-7, 5.202e-7
0.085, -1.220e-6, -6.989e-7, 5.209e-7
0.084, -1.218e-6, -6.949e-7, 5.236e-7
0.083, -1.219e-6, -6.964e-7, 5.227e-7
0.082, -1.222e-6, -6.980e-7, 5.242e-7
0.081, -1.224e-6, -6.970e-7, 5.266e-7
0.080, -1.220e-6, -6.967e-7, 5.236e-7
0.079, -1.224e-6, -6.986e-7, 5.254e-7
0.078, -1.222e-6, -6.949e-7, 5.266e-7
0.077, -1.222e-6, -6.976e-7, 5.248e-7
0.076, -1.222e-6, -6.958e-7, 5.263e-7
0.075, -1.222e-6, -6.949e-7, 5.276e-7
0.074, -1.222e-6, -6.955e-7, 5.266e-7
0.073, -1.226e-6, -6.976e-7, 5.282e-7
0.072, -1.225e-6, -6.961e-7, 5.288e-7
0.071, -1.222e-6, -6.949e-7, 5.276e-7
0.070, -1.227e-6, -6.976e-7, 5.297e-7
0.069, -1.226e-6, -6.949e-7, 5.309e-7
0.068, -1.227e-6, -6.967e-7, 5.306e-7
0.067, -1.225e-6, -6.949e-7, 5.297e-7
0.066, -1.226e-6, -6.949e-7, 5.309e-7
0.065, -1.225e-6, -6.952e-7, 5.294e-7
0.064, -1.224e-6, -6.934e-7, 5.306e-7
0.063, -1.224e-6, -6.934e-7, 5.306e-7
0.062, -1.227e-6, -6.946e-7, 5.328e-7
0.061, -1.225e-6, -6.928e-7, 5.324e-7
0.060, -1.224e-6, -6.925e-7, 5.312e-7
0.059, -1.226e-6, -6.928e-7, 5.328e-7
0.058, -1.226e-6, -6.931e-7, 5.334e-7
0.057, -1.225e-6, -6.918e-7, 5.331e-7
0.056, -1.227e-6, -6.928e-7, 5.343e-7
0.055, -1.225e-6, -6.909e-7, 5.340e-7
0.054, -1.224e-6, -6.906e-7, 5.334e-7
0.053, -1.226e-6, -6.912e-7, 5.343e-7
0.052, -1.225e-6, -6.906e-7, 5.340e-7
0.051, -1.224e-6, -6.897e-7, 5.340e-7
0.050, -1.223e-6, -6.876e-7, 5.352e-7
0.049, -1.223e-6, -6.876e-7, 5.352e-7
0.048, -1.225e-6, -6.894e-7, 5.352e-7
0.047, -1.223e-6, -6.870e-7, 5.364e-7
0.046, -1.223e-6, -6.876e-7, 5.358e-7
0.045, -1.223e-6, -6.873e-7, 5.361e-7
0.044, -1.223e-6, -6.851e-7, 5.376e-7
0.043, -1.221e-6, -6.860e-7, 5.349e-7
0.042, -1.223e-6, -6.867e-7, 5.367e-7
0.041, -1.222e-6, -6.830e-7, 5.392e-7
0.040, -1.220e-6, -6.842e-7, 5.355e-7
0.039, -1.222e-6, -6.845e-7, 5.373e-7
0.038, -1.219e-6, -6.821e-7, 5.370e-7
0.037, -1.217e-6, -6.821e-7, 5.352e-7
0.036, -1.221e-6, -6.824e-7, 5.389e-7
0.035, -1.216e-6, -6.790e-7, 5.367e-7
0.034, -1.219e-6, -6.818e-7, 5.370e-7
0.033, -1.218e-6, -6.799e-7, 5.385e-7
0.032, -1.216e-6, -6.799e-7, 5.364e-7
0.031, -1.217e-6, -6.793e-7, 5.376e-7
0.030, -1.217e-6, -6.781e-7, 5.392e-7
0.029, -1.214e-6, -6.763e-7, 5.379e-7
0.028, -1.217e-6, -6.778e-7, 5.389e-7
0.027, -1.215e-6, -6.760e-7, 5.389e-7
0.026, -1.212e-6, -6.735e-7, 5.382e-7
0.025, -1.211e-6, -6.741e-7, 5.370e-7
0.024, -1.213e-6, -6.745e-7, 5.382e-7
0.023, -1.213e-6, -6.741e-7, 5.389e-7
0.022, -1.210e-6, -6.738e-7, 5.364e-7
0.021, -1.211e-6, -6.720e-7, 5.389e-7
0.020, -1.207e-6, -6.708e-7, 5.358e-7
0.019, -1.208e-6, -6.714e-7, 5.364e-7
0.018, -1.211e-6, -6.711e-7, 5.398e-7
0.017, -1.207e-6, -6.699e-7, 5.367e-7
0.016, -1.207e-6, -6.693e-7, 5.373e-7
0.015, -1.207e-6, -6.687e-7, 5.382e-7
0.014, -1.206e-6, -6.680e-7, 5.379e-7
0.013, -1.204e-6, -6.671e-7, 5.370e-7
0.012, -1.203e-6, -6.662e-7, 5.370e-7
0.011, -1.203e-6, -6.659e-7, 5.373e-7
0.010, -1.201e-6, -6.638e-7, 5.373e-7
0.009, -1.196e-6, -6.616e-7, 5.346e-7
0.008, -1.198e-6, -6.632e-7, 5.346e-7
0.007, -1.197e-6, -6.598e-7, 5.376e-7
0.006, -1.196e-6, -6.604e-7, 5.358e-7
0.005, -1.198e-6, -6.607e-7, 5.373e-7
0.004, -1.195e-6, -6.574e-7, 5.373e-7
0.003, -1.195e-6, -6.580e-7, 5.370e-7
0.002, -1.194e-6, -6.571e-7, 5.367e-7
0.001, -1.191e-6, -6.558e-7, 5.355e-7
0.000, -1.192e-6, -6.561e-7, 5.361e-7
-0.001, -1.192e-6, -6.555e-7, 5.361e-7
-0.002, -1.188e-6, -6.543e-7, 5.337e-7
-0.003, -1.186e-6, -6.534e-7, 5.324e-7
-0.004, -1.186e-6, -6.519e-7, 5.343e-7
-0.005, -1.186e-6, -6.516e-7, 5.349e-7
-0.006, -1.182e-6, -6.497e-7, 5.328e-7
-0.007, -1.182e-6, -6.485e-7, 5.331e-7
-0.008, -1.179e-6, -6.476e-7, 5.318e-7
-0.009, -1.182e-6, -6.497e-7, 5.318e-7
-0.010, -1.179e-6, -6.473e-7, 5.321e-7
-0.011, -1.175e-6, -6.439e-7, 5.315e-7
-0.012, -1.175e-6, -6.455e-7, 5.291e-7
-0.013, -1.175e-6, -6.433e-7, 5.315e-7
-0.014, -1.173e-6, -6.424e-7, 5.306e-7
-0.015, -1.176e-6, -6.445e-7, 5.315e-7
-0.016, -1.172e-6, -6.409e-7, 5.315e-7
-0.017, -1.166e-6, -6.394e-7, 5.263e-7
-0.018, -1.167e-6, -6.400e-7, 5.270e-7
-0.019, -1.167e-6, -6.375e-7, 5.297e-7
-0.020, -1.162e-6, -6.366e-7, 5.257e-7
-0.021, -1.164e-6, -6.366e-7, 5.276e-7
-0.022, -1.162e-6, -6.345e-7, 5.276e-7
-0.023, -1.160e-6, -6.342e-7, 5.260e-7
-0.024, -1.160e-6, -6.339e-7, 5.263e-7
-0.025, -1.156e-6, -6.305e-7, 5.254e-7
-0.026, -1.155e-6, -6.308e-7, 5.242e-7
-0.027, -1.155e-6, -6.305e-7, 5.242e-7
-0.028, -1.153e-6, -6.278e-7, 5.254e-7
-0.029, -1.151e-6, -6.293e-7, 5.218e-7
-0.030, -1.150e-6, -6.287e-7, 5.215e-7
-0.031, -1.148e-6, -6.262e-7, 5.221e-7
-0.032, -1.147e-6, -6.265e-7, 5.205e-7
-0.033, -1.149e-6, -6.268e-7, 5.218e-7
-0.034, -1.145e-6, -6.247e-7, 5.205e-7
-0.035, -1.140e-6, -6.223e-7, 5.178e-7
-0.036, -1.142e-6, -6.238e-7, 5.181e-7
-0.037, -1.139e-6, -6.214e-7, 5.175e-7
-0.038, -1.137e-6, -6.207e-7, 5.163e-7
-0.039, -1.136e-6, -6.195e-7, 5.169e-7
-0.040, -1.134e-6, -6.201e-7, 5.141e-7
-0.041, -1.133e-6, -6.183e-7, 5.147e-7
-0.042, -1.132e-6, -6.180e-7, 5.141e-7
-0.043, -1.131e-6, -6.171e-7, 5.141e-7
-0.044, -1.128e-6, -6.162e-7, 5.114e-7
-0.045, -1.126e-6, -6.137e-7, 5.126e-7
-0.046, -1.124e-6, -6.140e-7, 5.096e-7
-0.047, -1.124e-6, -6.134e-7, 5.102e-7
-0.048, -1.122e-6, -6.113e-7, 5.108e-7
-0.049, -1.121e-6, -6.110e-7, 5.099e-7
-0.050, -1.121e-6, -6.107e-7, 5.102e-7
-0.051, -1.119e-6, -6.088e-7, 5.099e-7
-0.052, -1.117e-6, -6.113e-7, 5.053e-7
-0.053, -1.115e-6, -6.079e-7, 5.071e-7
-0.054, -1.115e-6, -6.085e-7, 5.068e-7
-0.055, -1.113e-6, -6.088e-7, 5.044e-7
-0.056, -1.113e-6, -6.067e-7, 5.059e-7
-0.057, -1.108e-6, -6.040e-7, 5.038e-7
-0.058, -1.110e-6, -6.052e-7, 5.050e-7
-0.059, -1.109e-6, -6.046e-7, 5.041e-7
-0.060, -1.106e-6, -6.037e-7, 5.019e-7
-0.061, -1.107e-6, -6.052e-7, 5.013e-7
-0.062, -1.102e-6, -5.997e-7, 5.019e-7
-0.063, -1.103e-6, -6.021e-7, 5.004e-7
-0.064, -1.104e-6, -6.030e-7, 5.007e-7
-0.065, -1.099e-6, -5.994e-7, 5.001e-7
-0.066, -1.101e-6, -6.012e-7, 5.001e-7
-0.067, -1.099e-6, -5.991e-7, 4.998e-7
-0.068, -1.097e-6, -5.976e-7, 4.992e-7
-0.069, -1.096e-6, -5.991e-7, 4.974e-7
-0.070, -1.096e-6, -5.985e-7, 4.980e-7
-0.071, -1.094e-6, -5.969e-7, 4.967e-7
-0.072, -1.092e-6, -5.966e-7, 4.955e-7
-0.073, -1.093e-6, -5.966e-7, 4.964e-7
-0.074, -1.089e-6, -5.942e-7, 4.952e-7
-0.075, -1.090e-6, -5.966e-7, 4.934e-7
-0.076, -1.090e-6, -5.945e-7, 4.958e-7
-0.077, -1.086e-6, -5.921e-7, 4.937e-7
-0.078, -1.086e-6, -5.936e-7, 4.922e-7
-0.079, -1.086e-6, -5.939e-7, 4.925e-7
-0.080, -1.084e-6, -5.918e-7, 4.919e-7
-0.081, -1.084e-6, -5.936e-7, 4.903e-7
-0.082, -1.082e-6, -5.915e-7, 4.903e-7
-0.083, -1.081e-6, -5.908e-7, 4.903e-7
-0.084, -1.082e-6, -5.927e-7, 4.897e-7
-0.085, -1.080e-6, -5.896e-7, 4.900e-7
-0.086, -1.076e-6, -5.896e-7, 4.867e-7
-0.087, -1.080e-6, -5.921e-7, 4.882e-7
-0.088, -1.076e-6, -5.890e-7, 4.873e-7
-0.089, -1.075e-6, -5.890e-7, 4.861e-7
-0.090, -1.077e-6, -5.899e-7, 4.867e-7
-0.091, -1.076e-6, -5.890e-7, 4.867e-7
-0.092, -1.075e-6, -5.890e-7, 4.864e-7
-0.093, -1.073e-6, -5.869e-7, 4.864e-7
-0.094, -1.074e-6, -5.881e-7, 4.861e-7
-0.095, -1.073e-6, -5.872e-7, 4.855e-7
-0.096, -1.075e-6, -5.884e-7, 4.867e-7
-0.097, -1.071e-6, -5.869e-7, 4.845e-7
-0.098, -1.070e-6, -5.857e-7, 4.842e-7
-0.099, -1.071e-6, -5.863e-7, 4.845e-7
-0.100, -1.067e-6, -5.850e-7, 4.824e-7
-0.101, -1.067e-6, -5.847e-7, 4.821e-7
-0.102, -1.067e-6, -5.832e-7, 4.839e-7
-0.103, -1.067e-6, -5.847e-7, 4.821e-7
-0.104, -1.067e-6, -5.847e-7, 4.821e-7
-0.105, -1.066e-6, -5.838e-7, 4.824e-7
-0.106, -1.063e-6, -5.835e-7, 4.793e-7
-0.107, -1.065e-6, -5.844e-7, 4.803e-7
-0.108, -1.064e-6, -5.820e-7, 4.818e-7
-0.109, -1.061e-6, -5.823e-7, 4.787e-7
-0.110, -1.061e-6, -5.826e-7, 4.784e-7
-0.111, -1.061e-6, -5.820e-7, 4.793e-7
-0.112, -1.060e-6, -5.820e-7, 4.775e-7
-0.113, -1.061e-6, -5.811e-7, 4.803e-7
-0.114, -1.058e-6, -5.805e-7, 4.772e-7
-0.115, -1.058e-6, -5.814e-7, 4.766e-7
-0.116, -1.058e-6, -5.811e-7, 4.772e-7
-0.117, -1.057e-6, -5.796e-7, 4.778e-7
-0.118, -1.057e-6, -5.814e-7, 4.757e-7
-0.119, -1.053e-6, -5.783e-7, 4.751e-7
-0.120, -1.055e-6, -5.796e-7, 4.751e-7
-0.121, -1.054e-6, -5.802e-7, 4.739e-7
-0.122, -1.053e-6, -5.780e-7, 4.754e-7
-0.123, -1.052e-6, -5.786e-7, 4.739e-7
-0.124, -1.055e-6, -5.802e-7, 4.745e-7
-0.125, -1.049e-6, -5.756e-7, 4.739e-7
-0.126, -1.047e-6, -5.765e-7, 4.708e-7
-0.127, -1.051e-6, -5.780e-7, 4.726e-7
-0.128, -1.049e-6, -5.756e-7, 4.729e-7
-0.129, -1.046e-6, -5.753e-7, 4.705e-7
-0.130, -1.048e-6, -5.771e-7, 4.705e-7
-0.131, -1.047e-6, -5.750e-7, 4.720e-7
-0.132, -1.049e-6, -5.777e-7, 4.711e-7
-0.133, -1.046e-6, -5.756e-7, 4.702e-7
-0.134, -1.045e-6, -5.738e-7, 4.717e-7
-0.135, -1.043e-6, -5.744e-7, 4.687e-7
-0.136, -1.045e-6, -5.744e-7, 4.711e-7
-0.137, -1.042e-6, -5.728e-7, 4.693e-7
-0.138, -1.041e-6, -5.731e-7, 4.678e-7
-0.139, -1.043e-6, -5.734e-7, 4.693e-7
-0.140, -1.039e-6, -5.722e-7, 4.671e-7
-0.141, -1.040e-6, -5.722e-7, 4.674e-7
-0.142, -1.039e-6, -5.707e-7, 4.687e-7
-0.143, -1.040e-6, -5.725e-7, 4.674e-7
-0.144, -1.039e-6, -5.719e-7, 4.668e-7
-0.145, -1.038e-6, -5.704e-7, 4.678e-7
-0.146, -1.036e-6, -5.701e-7, 4.659e-7
-0.147, -1.037e-6, -5.707e-7, 4.662e-7
-0.148, -1.038e-6, -5.713e-7, 4.662e-7
-0.149, -1.034e-6, -5.692e-7, 4.644e-7
-0.150, -1.033e-6, -5.686e-7, 4.647e-7
-0.151, -1.033e-6, -5.683e-7, 4.647e-7
-0.152, -1.030e-6, -5.677e-7, 4.626e-7
-0.153, -1.032e-6, -5.677e-7, 4.647e-7
-0.154, -1.031e-6, -5.673e-7, 4.635e-7
-0.155, -1.031e-6, -5.680e-7, 4.635e-7
-0.156, -1.032e-6, -5.683e-7, 4.641e-7
-0.157, -1.033e-6, -5.673e-7, 4.653e-7
-0.158, -1.032e-6, -5.686e-7, 4.638e-7
-0.159, -1.030e-6, -5.661e-7, 4.638e-7
-0.160, -1.027e-6, -5.655e-7, 4.620e-7
-0.161, -1.028e-6, -5.667e-7, 4.616e-7
-0.162, -1.028e-6, -5.655e-7, 4.626e-7
-0.163, -1.026e-6, -5.634e-7, 4.623e-7
-0.164, -1.028e-6, -5.661e-7, 4.616e-7
-0.165, -1.026e-6, -5.637e-7, 4.623e-7
-0.166, -1.024e-6, -5.646e-7, 4.598e-7
-0.167, -1.027e-6, -5.643e-7, 4.623e-7
-0.168, -1.024e-6, -5.619e-7, 4.626e-7
-0.169, -1.022e-6, -5.622e-7, 4.598e-7
-0.170, -1.026e-6, -5.640e-7, 4.623e-7
-0.171, -1.024e-6, -5.615e-7, 4.623e-7
-0.172, -1.023e-6, -5.625e-7, 4.601e-7
-0.173, -1.021e-6, -5.603e-7, 4.610e-7
-0.174, -1.022e-6, -5.600e-7, 4.620e-7
-0.175, -1.019e-6, -5.612e-7, 4.580e-7
-0.176, -1.024e-6, -5.615e-7, 4.623e-7
-0.177, -1.021e-6, -5.606e-7, 4.601e-7
-0.178, -1.020e-6, -5.609e-7, 4.586e-7
-0.179, -1.021e-6, -5.600e-7, 4.613e-7
-0.180, -1.019e-6, -5.582e-7, 4.607e-7
-0.181, -1.018e-6, -5.600e-7, 4.577e-7
-0.182, -1.019e-6, -5.585e-7, 4.607e-7
-0.183, -1.017e-6, -5.582e-7, 4.589e-7
-0.184, -1.016e-6, -5.585e-7, 4.580e-7
-0.185, -1.017e-6, -5.570e-7, 4.604e-7
-0.186, -1.014e-6, -5.561e-7, 4.580e-7
-0.187, -1.016e-6, -5.591e-7, 4.571e-7
-0.188, -1.016e-6, -5.564e-7, 4.601e-7
-0.189, -1.015e-6, -5.551e-7, 4.598e-7
-0.190, -1.015e-6, -5.564e-7, 4.589e-7
-0.191, -1.014e-6, -5.564e-7, 4.577e-7
-0.192, -1.013e-6, -5.557e-7, 4.571e-7
-0.193, -1.013e-6, -5.548e-7, 4.583e-7
-0.194, -1.014e-6, -5.545e-7, 4.598e-7
-0.195, -1.013e-6, -5.548e-7, 4.583e-7
-0.196, -1.013e-6, -5.539e-7, 4.592e-7
-0.197, -1.012e-6, -5.536e-7, 4.583e-7
-0.198, -1.009e-6, -5.524e-7, 4.565e-7
-0.199, -1.013e-6, -5.539e-7, 4.592e-7
-0.200, -1.010e-6, -5.530e-7, 4.574e-7
-0.201, -1.009e-6, -5.524e-7, 4.565e-7
-0.202, -1.010e-6, -5.518e-7, 4.583e-7
-0.203, -1.009e-6, -5.524e-7, 4.568e-7
-0.204, -1.009e-6, -5.515e-7, 4.580e-7
-0.205, -1.006e-6, -5.493e-7, 4.571e-7
-0.206, -1.007e-6, -5.500e-7, 4.568e-7
-0.207, -1.006e-6, -5.487e-7, 4.571e-7
-0.208, -1.007e-6, -5.496e-7, 4.574e-7
-0.209, -1.006e-6, -5.490e-7, 4.574e-7
-0.210, -1.005e-6, -5.496e-7, 4.558e-7
-0.211, -1.005e-6, -5.475e-7, 4.571e-7
-0.212, -1.003e-6, -5.475e-7, 4.558e-7
-0.213, -1.002e-6, -5.466e-7, 4.555e-7
-0.214, -1.002e-6, -5.460e-7, 4.562e-7
-0.215, -1.001e-6, -5.466e-7, 4.540e-7
-0.216, -1.003e-6, -5.463e-7, 4.571e-7
-0.217, -9.976e-7, -5.426e-7, 4.549e-7
-0.218, -9.994e-7, -5.454e-7, 4.540e-7
-0.219, -1.001e-6, -5.469e-7, 4.543e-7
-0.220, -9.973e-7, -5.438e-7, 4.534e-7
-0.221, -9.954e-7, -5.423e-7, 4.531e-7
-0.222, -9.973e-7, -5.426e-7, 4.546e-7
-0.223, -9.942e-7, -5.411e-7, 4.531e-7
-0.224, -9.966e-7, -5.429e-7, 4.537e-7
-0.225, -9.945e-7, -5.402e-7, 4.543e-7
-0.226, -9.930e-7, -5.408e-7, 4.522e-7
-0.227, -9.918e-7, -5.417e-7, 4.501e-7
-0.228, -9.924e-7, -5.390e-7, 4.534e-7
-0.229, -9.908e-7, -5.399e-7, 4.510e-7
-0.230, -9.936e-7, -5.411e-7, 4.525e-7
-0.231, -9.890e-7, -5.371e-7, 4.519e-7
-0.232, -9.866e-7, -5.371e-7, 4.494e-7
-0.233, -9.893e-7, -5.381e-7, 4.513e-7
-0.234, -9.890e-7, -5.368e-7, 4.522e-7
-0.235, -9.857e-7, -5.359e-7, 4.497e-7
-0.236, -9.878e-7, -5.371e-7, 4.507e-7
-0.237, -9.844e-7, -5.341e-7, 4.504e-7
-0.238, -9.847e-7, -5.353e-7, 4.494e-7
-0.239, -9.823e-7, -5.338e-7, 4.485e-7
-0.240, -9.826e-7, -5.338e-7, 4.488e-7
-0.241, -9.799e-7, -5.329e-7, 4.470e-7
-0.242, -9.832e-7, -5.335e-7, 4.497e-7
-0.243, -9.771e-7, -5.295e-7, 4.476e-7
-0.244, -9.793e-7, -5.326e-7, 4.467e-7
-0.245, -9.771e-7, -5.304e-7, 4.467e-7
-0.246, -9.759e-7, -5.292e-7, 4.467e-7
-0.247, -9.768e-7, -5.304e-7, 4.464e-7
-0.248, -9.744e-7, -5.289e-7, 4.455e-7
-0.249, -9.735e-7, -5.280e-7, 4.455e-7
-0.250, -9.722e-7, -5.277e-7, 4.446e-7
-0.251, -9.710e-7, -5.252e-7, 4.458e-7
-0.252, -9.707e-7, -5.280e-7, 4.427e-7
-0.253, -9.692e-7, -5.258e-7, 4.433e-7
-0.254, -9.677e-7, -5.246e-7, 4.430e-7
-0.255, -9.667e-7, -5.243e-7, 4.424e-7
-0.256, -9.731e-7, -5.289e-7, 4.443e-7
-0.257, -9.649e-7, -5.234e-7, 4.415e-7
-0.258, -9.655e-7, -5.237e-7, 4.418e-7
-0.259, -9.634e-7, -5.228e-7, 4.406e-7
-0.260, -9.619e-7, -5.213e-7, 4.406e-7
-0.261, -9.628e-7, -5.219e-7, 4.409e-7
-0.262, -9.631e-7, -5.219e-7, 4.412e-7
-0.263, -9.603e-7, -5.210e-7, 4.394e-7
-0.264, -9.597e-7, -5.210e-7, 4.388e-7
-0.265, -9.628e-7, -5.219e-7, 4.409e-7
-0.266, -9.582e-7, -5.188e-7, 4.394e-7
-0.267, -9.567e-7, -5.194e-7, 4.372e-7
-0.268, -9.564e-7, -5.182e-7, 4.381e-7
-0.269, -9.564e-7, -5.185e-7, 4.378e-7
-0.270, -9.551e-7, -5.176e-7, 4.375e-7
-0.271, -9.561e-7, -5.185e-7, 4.375e-7
-0.272, -9.524e-7, -5.173e-7, 4.351e-7
-0.273, -9.530e-7, -5.167e-7, 4.363e-7
-0.274, -9.524e-7, -5.158e-7, 4.366e-7
-0.275, -9.506e-7, -5.158e-7, 4.348e-7
-0.276, -9.509e-7, -5.149e-7, 4.360e-7
-0.277, -9.475e-7, -5.130e-7, 4.345e-7
-0.278, -9.475e-7, -5.146e-7, 4.330e-7
-0.279, -9.484e-7, -5.139e-7, 4.345e-7
-0.280, -9.451e-7, -5.112e-7, 4.339e-7
-0.281, -9.469e-7, -5.146e-7, 4.324e-7
-0.282, -9.463e-7, -5.127e-7, 4.336e-7
-0.283, -9.442e-7, -5.106e-7, 4.336e-7
-0.284, -9.451e-7, -5.127e-7, 4.324e-7
-0.285, -9.451e-7, -5.121e-7, 4.330e-7
-0.286, -9.405e-7, -5.097e-7, 4.308e-7
-0.287, -9.402e-7, -5.103e-7, 4.299e-7
-0.288, -9.426e-7, -5.112e-7, 4.314e-7
-0.289, -9.420e-7, -5.109e-7, 4.311e-7
-0.290, -9.405e-7, -5.106e-7, 4.299e-7
-0.291, -9.381e-7, -5.075e-7, 4.305e-7
-0.292, -9.408e-7, -5.100e-7, 4.308e-7
-0.293, -9.371e-7, -5.091e-7, 4.281e-7
-0.294, -9.381e-7, -5.081e-7, 4.299e-7
-0.295, -9.365e-7, -5.075e-7, 4.290e-7
-0.296, -9.359e-7, -5.069e-7, 4.290e-7
-0.297, -9.353e-7, -5.066e-7, 4.287e-7
-0.298, -9.347e-7, -5.066e-7, 4.281e-7
-0.299, -9.332e-7, -5.057e-7, 4.275e-7
-0.300, -9.347e-7, -5.066e-7, 4.281e-7
-0.301, -9.341e-7, -5.063e-7, 4.278e-7
-0.302, -9.344e-7, -5.066e-7, 4.278e-7
-0.303, -9.307e-7, -5.054e-7, 4.253e-7
-0.304, -9.323e-7, -5.066e-7, 4.256e-7
-0.305, -9.307e-7, -5.048e-7, 4.259e-7
-0.306, -9.283e-7, -5.036e-7, 4.247e-7
-0.307, -9.289e-7, -5.042e-7, 4.247e-7
-0.308, -9.286e-7, -5.027e-7, 4.259e-7
-0.309, -9.258e-7, -5.030e-7, 4.229e-7
-0.310, -9.283e-7, -5.042e-7, 4.241e-7
-0.311, -9.280e-7, -5.027e-7, 4.253e-7
-0.312, -9.265e-7, -5.033e-7, 4.232e-7
-0.313, -9.265e-7, -5.030e-7, 4.235e-7
-0.314, -9.265e-7, -5.027e-7, 4.238e-7
-0.315, -9.237e-7, -5.020e-7, 4.217e-7
-0.316, -9.246e-7, -5.017e-7, 4.229e-7
-0.317, -9.225e-7, -4.999e-7, 4.226e-7
-0.318, -9.228e-7, -5.017e-7, 4.211e-7
-0.319, -9.197e-7, -4.999e-7, 4.198e-7
-0.320, -9.191e-7, -4.993e-7, 4.198e-7
-0.321, -9.176e-7, -4.987e-7, 4.189e-7
-0.322, -9.213e-7, -4.999e-7, 4.214e-7
-0.323, -9.179e-7, -4.993e-7, 4.186e-7
-0.324, -9.219e-7, -5.048e-7, 4.171e-7
-0.325, -9.167e-7, -4.975e-7, 4.192e-7
-0.326, -9.146e-7, -4.981e-7, 4.165e-7
-0.327, -9.143e-7, -4.978e-7, 4.165e-7
-0.328, -9.136e-7, -4.959e-7, 4.177e-7
-0.329, -9.152e-7, -4.987e-7, 4.165e-7
-0.330, -9.146e-7, -4.990e-7, 4.156e-7
-0.331, -9.133e-7, -4.972e-7, 4.162e-7
-0.332, -9.103e-7, -4.959e-7, 4.143e-7
-0.333, -9.130e-7, -4.972e-7, 4.159e-7
-0.334, -9.112e-7, -4.956e-7, 4.156e-7
-0.335, -9.097e-7, -4.966e-7, 4.131e-7
-0.336, -9.094e-7, -4.956e-7, 4.137e-7
-0.337, -9.097e-7, -4.941e-7, 4.156e-7
-0.338, -9.082e-7, -4.969e-7, 4.113e-7
-0.339, -9.082e-7, -4.959e-7, 4.122e-7
-0.340, -9.072e-7, -4.941e-7, 4.131e-7
-0.341, -9.048e-7, -4.941e-7, 4.107e-7
-0.342, -9.063e-7, -4.938e-7, 4.125e-7
-0.343, -9.042e-7, -4.926e-7, 4.116e-7
-0.344, -9.039e-7, -4.935e-7, 4.104e-7
-0.345, -9.036e-7, -4.935e-7, 4.101e-7
-0.346, -9.024e-7, -4.923e-7, 4.101e-7
-0.347, -9.017e-7, -4.926e-7, 4.092e-7
-0.348, -9.008e-7, -4.920e-7, 4.089e-7
-0.349, -9.002e-7, -4.914e-7, 4.089e-7
-0.350, -9.011e-7, -4.926e-7, 4.085e-7
-0.351, -8.984e-7, -4.898e-7, 4.085e-7
-0.352, -8.978e-7, -4.911e-7, 4.067e-7
-0.353, -8.962e-7, -4.904e-7, 4.058e-7
-0.354, -8.966e-7, -4.904e-7, 4.061e-7
-0.355, -8.941e-7, -4.892e-7, 4.049e-7
-0.356, -8.959e-7, -4.904e-7, 4.055e-7
-0.357, -8.950e-7, -4.901e-7, 4.049e-7
-0.358, -8.920e-7, -4.886e-7, 4.034e-7
-0.359, -8.926e-7, -4.886e-7, 4.040e-7
-0.360, -8.920e-7, -4.874e-7, 4.046e-7
-0.361, -8.929e-7, -4.904e-7, 4.024e-7
-0.362, -8.911e-7, -4.880e-7, 4.031e-7
-0.363, -8.920e-7, -4.886e-7, 4.034e-7
-0.364, -8.920e-7, -4.895e-7, 4.024e-7
-0.365, -8.901e-7, -4.892e-7, 4.009e-7
-0.366, -8.941e-7, -4.929e-7, 4.012e-7
-0.367, -8.905e-7, -4.898e-7, 4.006e-7
-0.368, -8.901e-7, -4.895e-7, 4.006e-7
-0.369, -8.883e-7, -4.877e-7, 4.006e-7
-0.370, -8.895e-7, -4.895e-7, 4.000e-7
-0.371, -8.883e-7, -4.877e-7, 4.006e-7
-0.372, -8.874e-7, -4.883e-7, 3.991e-7
-0.373, -8.895e-7, -4.889e-7, 4.006e-7
-0.374, -8.886e-7, -4.892e-7, 3.994e-7
-0.375, -8.847e-7, -4.862e-7, 3.985e-7
-0.376, -8.889e-7, -4.901e-7, 3.988e-7
-0.377, -8.871e-7, -4.886e-7, 3.985e-7
-0.378, -8.856e-7, -4.886e-7, 3.970e-7
-0.379, -8.850e-7, -4.871e-7, 3.979e-7
-0.380, -8.847e-7, -4.862e-7, 3.985e-7
-0.381, -8.831e-7, -4.877e-7, 3.954e-7
-0.382, -8.840e-7, -4.874e-7, 3.966e-7
-0.383, -8.813e-7, -4.859e-7, 3.954e-7
-0.384, -8.816e-7, -4.877e-7, 3.939e-7
-0.385, -8.837e-7, -4.874e-7, 3.963e-7
-0.386, -8.807e-7, -4.859e-7, 3.948e-7
-0.387, -8.807e-7, -4.874e-7, 3.933e-7
-0.388, -8.831e-7, -4.874e-7, 3.957e-7
-0.389, -8.786e-7, -4.846e-7, 3.939e-7
-0.390, -8.798e-7, -4.868e-7, 3.930e-7
-0.391, -8.804e-7, -4.868e-7, 3.936e-7
-0.392, -8.798e-7, -4.859e-7, 3.939e-7
-0.393, -8.798e-7, -4.868e-7, 3.930e-7
-0.394, -8.837e-7, -4.908e-7, 3.930e-7
-0.395, -8.801e-7, -4.874e-7, 3.927e-7
-0.396, -8.810e-7, -4.883e-7, 3.927e-7
-0.397, -8.776e-7, -4.853e-7, 3.924e-7
-0.398, -8.789e-7, -4.862e-7, 3.927e-7
-0.399, -8.819e-7, -4.892e-7, 3.927e-7
-0.400, -8.810e-7, -4.892e-7, 3.918e-7
