Mar. 20, 2018   15:06:54
Square Wave Voltammetry
File: 41_7,45g0
Data Source:  Experiment
Instrument Model:  CHI1040A
Header: 
Note: 

Init E (V) = 0.7
Final E (V) = -0.4
Incr E (V) = 0.001
Amplitude (V) = 0.1
Frequency (Hz) = 152
Quiet Time (sec) = 2
Sensitivity (A/V) = 1e-6

Difference:

Forward:

Reverse:

Potential/V, Diff(i/A), For(i/A), Rev(i/A)

0.699, -1.018e-5, -4.358e-7, 9.739e-6
0.698, -1.526e-5, -6.305e-6, 8.958e-6
0.697, -1.565e-5, -6.801e-6, 8.845e-6
0.696, -1.565e-5, -6.849e-6, 8.798e-6
0.695, -1.562e-5, -6.861e-6, 8.763e-6
0.694, -1.562e-5, -6.871e-6, 8.752e-6
0.693, -1.559e-5, -6.861e-6, 8.731e-6
0.692, -1.557e-5, -6.861e-6, 8.713e-6
0.691, -1.557e-5, -6.867e-6, 8.699e-6
0.690, -1.554e-5, -6.852e-6, 8.693e-6
0.689, -1.554e-5, -6.862e-6, 8.674e-6
0.688, -1.553e-5, -6.863e-6, 8.665e-6
0.687, -1.551e-5, -6.854e-6, 8.651e-6
0.686, -1.549e-5, -6.856e-6, 8.634e-6
0.685, -1.548e-5, -6.852e-6, 8.631e-6
0.684, -1.547e-5, -6.847e-6, 8.620e-6
0.683, -1.545e-5, -6.849e-6, 8.600e-6
0.682, -1.544e-5, -6.844e-6, 8.593e-6
0.681, -1.543e-5, -6.836e-6, 8.595e-6
0.680, -1.542e-5, -6.851e-6, 8.569e-6
0.679, -1.540e-5, -6.837e-6, 8.567e-6
0.678, -1.539e-5, -6.830e-6, 8.556e-6
0.677, -1.539e-5, -6.843e-6, 8.542e-6
0.676, -1.536e-5, -6.829e-6, 8.535e-6
0.675, -1.534e-5, -6.823e-6, 8.516e-6
0.674, -1.534e-5, -6.833e-6, 8.512e-6
0.673, -1.533e-5, -6.827e-6, 8.502e-6
0.672, -1.531e-5, -6.818e-6, 8.492e-6
0.671, -1.530e-5, -6.822e-6, 8.481e-6
0.670, -1.529e-5, -6.819e-6, 8.470e-6
0.669, -1.527e-5, -6.816e-6, 8.455e-6
0.668, -1.526e-5, -6.811e-6, 8.445e-6
0.667, -1.525e-5, -6.808e-6, 8.437e-6
0.666, -1.524e-5, -6.804e-6, 8.432e-6
0.665, -1.523e-5, -6.810e-6, 8.421e-6
0.664, -1.522e-5, -6.810e-6, 8.414e-6
0.663, -1.522e-5, -6.812e-6, 8.413e-6
0.662, -1.521e-5, -6.810e-6, 8.399e-6
0.661, -1.522e-5, -6.815e-6, 8.401e-6
0.660, -1.520e-5, -6.810e-6, 8.391e-6
0.659, -1.518e-5, -6.808e-6, 8.376e-6
0.658, -1.519e-5, -6.811e-6, 8.376e-6
0.657, -1.518e-5, -6.810e-6, 8.368e-6
0.656, -1.517e-5, -6.809e-6, 8.356e-6
0.655, -1.518e-5, -6.819e-6, 8.358e-6
0.654, -1.516e-5, -6.815e-6, 8.346e-6
0.653, -1.515e-5, -6.808e-6, 8.340e-6
0.652, -1.515e-5, -6.815e-6, 8.333e-6
0.651, -1.514e-5, -6.811e-6, 8.326e-6
0.650, -1.512e-5, -6.808e-6, 8.312e-6
0.649, -1.512e-5, -6.813e-6, 8.305e-6
0.648, -1.511e-5, -6.810e-6, 8.301e-6
0.647, -1.510e-5, -6.805e-6, 8.291e-6
0.646, -1.509e-5, -6.811e-6, 8.283e-6
0.645, -1.509e-5, -6.811e-6, 8.280e-6
0.644, -1.508e-5, -6.808e-6, 8.272e-6
0.643, -1.507e-5, -6.814e-6, 8.254e-6
0.642, -1.507e-5, -6.808e-6, 8.262e-6
0.641, -1.506e-5, -6.811e-6, 8.249e-6
0.640, -1.506e-5, -6.815e-6, 8.241e-6
0.639, -1.505e-5, -6.812e-6, 8.238e-6
0.638, -1.504e-5, -6.811e-6, 8.229e-6
0.637, -1.504e-5, -6.817e-6, 8.226e-6
0.636, -1.505e-5, -6.821e-6, 8.226e-6
0.635, -1.503e-5, -6.820e-6, 8.213e-6
0.634, -1.503e-5, -6.824e-6, 8.208e-6
0.633, -1.503e-5, -6.818e-6, 8.210e-6
0.632, -1.502e-5, -6.824e-6, 8.194e-6
0.631, -1.502e-5, -6.830e-6, 8.193e-6
0.630, -1.501e-5, -6.821e-6, 8.191e-6
0.629, -1.501e-5, -6.828e-6, 8.183e-6
0.628, -1.501e-5, -6.833e-6, 8.176e-6
0.627, -1.500e-5, -6.828e-6, 8.175e-6
0.626, -1.501e-5, -6.840e-6, 8.169e-6
0.625, -1.501e-5, -6.842e-6, 8.165e-6
0.624, -1.499e-5, -6.829e-6, 8.159e-6
0.623, -1.499e-5, -6.843e-6, 8.151e-6
0.622, -1.499e-5, -6.847e-6, 8.147e-6
0.621, -1.498e-5, -6.838e-6, 8.146e-6
0.620, -1.498e-5, -6.845e-6, 8.133e-6
0.619, -1.497e-5, -6.847e-6, 8.128e-6
0.618, -1.497e-5, -6.844e-6, 8.129e-6
0.617, -1.497e-5, -6.851e-6, 8.117e-6
0.616, -1.498e-5, -6.858e-6, 8.120e-6
0.615, -1.497e-5, -6.853e-6, 8.115e-6
0.614, -1.497e-5, -6.860e-6, 8.106e-6
0.613, -1.497e-5, -6.866e-6, 8.104e-6
0.612, -1.496e-5, -6.862e-6, 8.102e-6
0.611, -1.496e-5, -6.864e-6, 8.095e-6
0.610, -1.496e-5, -6.870e-6, 8.088e-6
0.609, -1.496e-5, -6.870e-6, 8.087e-6
0.608, -1.496e-5, -6.877e-6, 8.084e-6
0.607, -1.496e-5, -6.880e-6, 8.077e-6
0.606, -1.496e-5, -6.880e-6, 8.076e-6
0.605, -1.496e-5, -6.883e-6, 8.079e-6
0.604, -1.497e-5, -6.894e-6, 8.073e-6
0.603, -1.496e-5, -6.895e-6, 8.063e-6
0.602, -1.496e-5, -6.894e-6, 8.063e-6
0.601, -1.496e-5, -6.899e-6, 8.062e-6
0.600, -1.496e-5, -6.906e-6, 8.057e-6
0.599, -1.495e-5, -6.901e-6, 8.049e-6
0.598, -1.496e-5, -6.909e-6, 8.047e-6
0.597, -1.496e-5, -6.912e-6, 8.047e-6
0.596, -1.496e-5, -6.912e-6, 8.047e-6
0.595, -1.495e-5, -6.922e-6, 8.030e-6
0.594, -1.496e-5, -6.923e-6, 8.040e-6
0.593, -1.496e-5, -6.924e-6, 8.033e-6
0.592, -1.495e-5, -6.930e-6, 8.023e-6
0.591, -1.496e-5, -6.933e-6, 8.023e-6
0.590, -1.495e-5, -6.927e-6, 8.019e-6
0.589, -1.495e-5, -6.939e-6, 8.015e-6
0.588, -1.496e-5, -6.945e-6, 8.019e-6
0.587, -1.496e-5, -6.946e-6, 8.016e-6
0.586, -1.497e-5, -6.958e-6, 8.010e-6
0.585, -1.498e-5, -6.963e-6, 8.013e-6
0.584, -1.496e-5, -6.958e-6, 8.007e-6
0.583, -1.496e-5, -6.963e-6, 8.002e-6
0.582, -1.498e-5, -6.974e-6, 8.003e-6
0.581, -1.498e-5, -6.977e-6, 8.008e-6
0.580, -1.498e-5, -6.983e-6, 7.998e-6
0.579, -1.499e-5, -6.989e-6, 8.005e-6
0.578, -1.501e-5, -6.995e-6, 8.010e-6
0.577, -1.501e-5, -7.009e-6, 7.998e-6
0.576, -1.501e-5, -7.005e-6, 8.002e-6
0.575, -1.501e-5, -7.007e-6, 7.999e-6
0.574, -1.501e-5, -7.021e-6, 7.990e-6
0.573, -1.501e-5, -7.015e-6, 7.995e-6
0.572, -1.501e-5, -7.020e-6, 7.994e-6
0.571, -1.502e-5, -7.037e-6, 7.984e-6
0.570, -1.503e-5, -7.036e-6, 7.991e-6
0.569, -1.502e-5, -7.033e-6, 7.988e-6
0.568, -1.503e-5, -7.050e-6, 7.980e-6
0.567, -1.503e-5, -7.047e-6, 7.984e-6
0.566, -1.503e-5, -7.054e-6, 7.974e-6
0.565, -1.503e-5, -7.061e-6, 7.971e-6
0.564, -1.503e-5, -7.057e-6, 7.973e-6
0.563, -1.503e-5, -7.060e-6, 7.970e-6
0.562, -1.504e-5, -7.077e-6, 7.967e-6
0.561, -1.505e-5, -7.078e-6, 7.977e-6
0.560, -1.507e-5, -7.092e-6, 7.974e-6
0.559, -1.508e-5, -7.105e-6, 7.978e-6
0.558, -1.508e-5, -7.103e-6, 7.975e-6
0.557, -1.508e-5, -7.102e-6, 7.977e-6
0.556, -1.510e-5, -7.120e-6, 7.977e-6
0.555, -1.510e-5, -7.125e-6, 7.977e-6
0.554, -1.510e-5, -7.128e-6, 7.973e-6
0.553, -1.511e-5, -7.136e-6, 7.976e-6
0.552, -1.512e-5, -7.146e-6, 7.977e-6
0.551, -1.512e-5, -7.143e-6, 7.972e-6
0.550, -1.513e-5, -7.156e-6, 7.976e-6
0.549, -1.514e-5, -7.164e-6, 7.976e-6
0.548, -1.513e-5, -7.160e-6, 7.972e-6
0.547, -1.514e-5, -7.169e-6, 7.967e-6
0.546, -1.516e-5, -7.183e-6, 7.978e-6
0.545, -1.515e-5, -7.183e-6, 7.969e-6
0.544, -1.516e-5, -7.194e-6, 7.970e-6
0.543, -1.517e-5, -7.201e-6, 7.972e-6
0.542, -1.518e-5, -7.206e-6, 7.975e-6
0.541, -1.518e-5, -7.212e-6, 7.968e-6
0.540, -1.518e-5, -7.217e-6, 7.968e-6
0.539, -1.519e-5, -7.220e-6, 7.969e-6
0.538, -1.520e-5, -7.228e-6, 7.969e-6
0.537, -1.520e-5, -7.234e-6, 7.965e-6
0.536, -1.521e-5, -7.242e-6, 7.969e-6
0.535, -1.522e-5, -7.248e-6, 7.969e-6
0.534, -1.523e-5, -7.258e-6, 7.967e-6
0.533, -1.524e-5, -7.266e-6, 7.974e-6
0.532, -1.524e-5, -7.266e-6, 7.976e-6
0.531, -1.525e-5, -7.281e-6, 7.969e-6
0.530, -1.526e-5, -7.283e-6, 7.974e-6
0.529, -1.526e-5, -7.291e-6, 7.973e-6
0.528, -1.527e-5, -7.302e-6, 7.973e-6
0.527, -1.529e-5, -7.308e-6, 7.983e-6
0.526, -1.529e-5, -7.313e-6, 7.974e-6
0.525, -1.530e-5, -7.327e-6, 7.977e-6
0.524, -1.531e-5, -7.329e-6, 7.986e-6
0.523, -1.531e-5, -7.335e-6, 7.972e-6
0.522, -1.531e-5, -7.342e-6, 7.972e-6
0.521, -1.532e-5, -7.344e-6, 7.980e-6
0.520, -1.532e-5, -7.352e-6, 7.971e-6
0.519, -1.533e-5, -7.359e-6, 7.972e-6
0.518, -1.534e-5, -7.360e-6, 7.977e-6
0.517, -1.535e-5, -7.374e-6, 7.972e-6
0.516, -1.536e-5, -7.383e-6, 7.976e-6
0.515, -1.537e-5, -7.384e-6, 7.984e-6
0.514, -1.539e-5, -7.403e-6, 7.985e-6
0.513, -1.539e-5, -7.409e-6, 7.978e-6
0.512, -1.539e-5, -7.409e-6, 7.985e-6
0.511, -1.540e-5, -7.418e-6, 7.983e-6
0.510, -1.542e-5, -7.432e-6, 7.983e-6
0.509, -1.541e-5, -7.428e-6, 7.987e-6
0.508, -1.543e-5, -7.441e-6, 7.986e-6
0.507, -1.544e-5, -7.454e-6, 7.981e-6
0.506, -1.544e-5, -7.450e-6, 7.987e-6
0.505, -1.544e-5, -7.459e-6, 7.980e-6
0.504, -1.545e-5, -7.469e-6, 7.983e-6
0.503, -1.546e-5, -7.472e-6, 7.988e-6
0.502, -1.547e-5, -7.482e-6, 7.984e-6
0.501, -1.548e-5, -7.494e-6, 7.990e-6
0.500, -1.549e-5, -7.495e-6, 7.994e-6
0.499, -1.549e-5, -7.506e-6, 7.987e-6
0.498, -1.551e-5, -7.518e-6, 7.995e-6
0.497, -1.552e-5, -7.521e-6, 7.997e-6
0.496, -1.551e-5, -7.523e-6, 7.991e-6
0.495, -1.553e-5, -7.536e-6, 7.995e-6
0.494, -1.554e-5, -7.542e-6, 7.995e-6
0.493, -1.554e-5, -7.544e-6, 7.997e-6
0.492, -1.555e-5, -7.557e-6, 7.993e-6
0.491, -1.555e-5, -7.559e-6, 7.993e-6
0.490, -1.556e-5, -7.566e-6, 7.994e-6
0.489, -1.557e-5, -7.577e-6, 7.992e-6
0.488, -1.557e-5, -7.580e-6, 7.992e-6
0.487, -1.559e-5, -7.586e-6, 8.000e-6
0.486, -1.559e-5, -7.595e-6, 7.991e-6
0.485, -1.560e-5, -7.605e-6, 7.996e-6
0.484, -1.561e-5, -7.608e-6, 8.007e-6
0.483, -1.562e-5, -7.621e-6, 7.994e-6
0.482, -1.564e-5, -7.631e-6, 8.006e-6
0.481, -1.564e-5, -7.636e-6, 8.008e-6
0.480, -1.564e-5, -7.641e-6, 8.001e-6
0.479, -1.566e-5, -7.652e-6, 8.006e-6
0.478, -1.566e-5, -7.655e-6, 8.009e-6
0.477, -1.567e-5, -7.664e-6, 8.009e-6
0.476, -1.570e-5, -7.681e-6, 8.018e-6
0.475, -1.569e-5, -7.679e-6, 8.013e-6
0.474, -1.570e-5, -7.688e-6, 8.008e-6
0.473, -1.571e-5, -7.698e-6, 8.017e-6
0.472, -1.573e-5, -7.706e-6, 8.022e-6
0.471, -1.572e-5, -7.713e-6, 8.010e-6
0.470, -1.573e-5, -7.718e-6, 8.017e-6
0.469, -1.574e-5, -7.724e-6, 8.020e-6
0.468, -1.575e-5, -7.735e-6, 8.017e-6
0.467, -1.576e-5, -7.739e-6, 8.017e-6
0.466, -1.577e-5, -7.745e-6, 8.026e-6
0.465, -1.579e-5, -7.765e-6, 8.022e-6
0.464, -1.578e-5, -7.769e-6, 8.015e-6
0.463, -1.578e-5, -7.764e-6, 8.019e-6
0.462, -1.579e-5, -7.774e-6, 8.014e-6
0.461, -1.581e-5, -7.783e-6, 8.024e-6
0.460, -1.581e-5, -7.783e-6, 8.025e-6
0.459, -1.581e-5, -7.798e-6, 8.016e-6
0.458, -1.585e-5, -7.815e-6, 8.037e-6
0.457, -1.586e-5, -7.816e-6, 8.040e-6
0.456, -1.587e-5, -7.835e-6, 8.034e-6
0.455, -1.588e-5, -7.839e-6, 8.039e-6
0.454, -1.588e-5, -7.842e-6, 8.040e-6
0.453, -1.590e-5, -7.860e-6, 8.041e-6
0.452, -1.591e-5, -7.865e-6, 8.049e-6
0.451, -1.591e-5, -7.865e-6, 8.047e-6
0.450, -1.593e-5, -7.888e-6, 8.046e-6
0.449, -1.594e-5, -7.884e-6, 8.052e-6
0.448, -1.594e-5, -7.891e-6, 8.049e-6
0.447, -1.596e-5, -7.909e-6, 8.056e-6
0.446, -1.597e-5, -7.914e-6, 8.058e-6
0.445, -1.597e-5, -7.915e-6, 8.051e-6
0.444, -1.598e-5, -7.924e-6, 8.056e-6
0.443, -1.599e-5, -7.933e-6, 8.057e-6
0.442, -1.600e-5, -7.937e-6, 8.061e-6
0.441, -1.601e-5, -7.951e-6, 8.059e-6
0.440, -1.602e-5, -7.961e-6, 8.060e-6
0.439, -1.602e-5, -7.957e-6, 8.063e-6
0.438, -1.603e-5, -7.971e-6, 8.057e-6
0.437, -1.605e-5, -7.981e-6, 8.065e-6
0.436, -1.604e-5, -7.979e-6, 8.064e-6
0.435, -1.605e-5, -7.991e-6, 8.063e-6
0.434, -1.608e-5, -8.004e-6, 8.071e-6
0.433, -1.608e-5, -8.007e-6, 8.071e-6
0.432, -1.609e-5, -8.020e-6, 8.074e-6
0.431, -1.611e-5, -8.032e-6, 8.076e-6
0.430, -1.612e-5, -8.037e-6, 8.080e-6
0.429, -1.612e-5, -8.041e-6, 8.077e-6
0.428, -1.614e-5, -8.058e-6, 8.084e-6
0.427, -1.614e-5, -8.060e-6, 8.078e-6
0.426, -1.615e-5, -8.064e-6, 8.082e-6
0.425, -1.616e-5, -8.074e-6, 8.086e-6
0.424, -1.618e-5, -8.088e-6, 8.093e-6
0.423, -1.618e-5, -8.090e-6, 8.089e-6
0.422, -1.619e-5, -8.100e-6, 8.088e-6
0.421, -1.621e-5, -8.112e-6, 8.096e-6
0.420, -1.620e-5, -8.109e-6, 8.089e-6
0.419, -1.621e-5, -8.124e-6, 8.089e-6
0.418, -1.623e-5, -8.130e-6, 8.102e-6
0.417, -1.623e-5, -8.136e-6, 8.094e-6
0.416, -1.624e-5, -8.149e-6, 8.096e-6
0.415, -1.625e-5, -8.153e-6, 8.101e-6
0.414, -1.626e-5, -8.159e-6, 8.098e-6
0.413, -1.627e-5, -8.171e-6, 8.099e-6
0.412, -1.629e-5, -8.176e-6, 8.111e-6
0.411, -1.629e-5, -8.185e-6, 8.101e-6
0.410, -1.629e-5, -8.192e-6, 8.103e-6
0.409, -1.631e-5, -8.194e-6, 8.112e-6
0.408, -1.631e-5, -8.205e-6, 8.105e-6
0.407, -1.633e-5, -8.217e-6, 8.108e-6
0.406, -1.634e-5, -8.222e-6, 8.114e-6
0.405, -1.634e-5, -8.230e-6, 8.110e-6
0.404, -1.634e-5, -8.236e-6, 8.103e-6
0.403, -1.635e-5, -8.238e-6, 8.114e-6
0.402, -1.637e-5, -8.252e-6, 8.115e-6
0.401, -1.638e-5, -8.265e-6, 8.117e-6
0.400, -1.639e-5, -8.264e-6, 8.122e-6
0.399, -1.640e-5, -8.277e-6, 8.119e-6
0.398, -1.641e-5, -8.287e-6, 8.120e-6
0.397, -1.641e-5, -8.285e-6, 8.120e-6
0.396, -1.643e-5, -8.299e-6, 8.127e-6
0.395, -1.643e-5, -8.308e-6, 8.118e-6
0.394, -1.643e-5, -8.309e-6, 8.125e-6
0.393, -1.644e-5, -8.317e-6, 8.119e-6
0.392, -1.644e-5, -8.320e-6, 8.124e-6
0.391, -1.645e-5, -8.328e-6, 8.124e-6
0.390, -1.647e-5, -8.339e-6, 8.128e-6
0.389, -1.648e-5, -8.353e-6, 8.126e-6
0.388, -1.648e-5, -8.348e-6, 8.132e-6
0.387, -1.648e-5, -8.363e-6, 8.121e-6
0.386, -1.649e-5, -8.366e-6, 8.126e-6
0.385, -1.650e-5, -8.370e-6, 8.128e-6
0.384, -1.650e-5, -8.376e-6, 8.126e-6
0.383, -1.652e-5, -8.388e-6, 8.129e-6
0.382, -1.652e-5, -8.392e-6, 8.131e-6
0.381, -1.653e-5, -8.403e-6, 8.130e-6
0.380, -1.655e-5, -8.410e-6, 8.141e-6
0.379, -1.656e-5, -8.422e-6, 8.134e-6
0.378, -1.656e-5, -8.423e-6, 8.136e-6
0.377, -1.657e-5, -8.432e-6, 8.136e-6
0.376, -1.658e-5, -8.441e-6, 8.135e-6
0.375, -1.658e-5, -8.445e-6, 8.140e-6
0.374, -1.660e-5, -8.452e-6, 8.143e-6
0.373, -1.661e-5, -8.467e-6, 8.145e-6
0.372, -1.662e-5, -8.471e-6, 8.146e-6
0.371, -1.661e-5, -8.474e-6, 8.138e-6
0.370, -1.663e-5, -8.485e-6, 8.148e-6
0.369, -1.664e-5, -8.486e-6, 8.150e-6
0.368, -1.664e-5, -8.496e-6, 8.140e-6
0.367, -1.665e-5, -8.504e-6, 8.143e-6
0.366, -1.665e-5, -8.509e-6, 8.146e-6
0.365, -1.666e-5, -8.515e-6, 8.146e-6
0.364, -1.668e-5, -8.527e-6, 8.150e-6
0.363, -1.668e-5, -8.528e-6, 8.148e-6
0.362, -1.668e-5, -8.538e-6, 8.144e-6
0.361, -1.668e-5, -8.545e-6, 8.138e-6
0.360, -1.669e-5, -8.543e-6, 8.142e-6
0.359, -1.669e-5, -8.551e-6, 8.138e-6
0.358, -1.671e-5, -8.559e-6, 8.147e-6
0.357, -1.671e-5, -8.565e-6, 8.149e-6
0.356, -1.674e-5, -8.584e-6, 8.152e-6
0.355, -1.674e-5, -8.592e-6, 8.153e-6
0.354, -1.676e-5, -8.597e-6, 8.165e-6
0.353, -1.676e-5, -8.606e-6, 8.155e-6
0.352, -1.677e-5, -8.609e-6, 8.157e-6
0.351, -1.678e-5, -8.615e-6, 8.161e-6
0.350, -1.679e-5, -8.628e-6, 8.159e-6
0.349, -1.680e-5, -8.634e-6, 8.170e-6
0.348, -1.680e-5, -8.640e-6, 8.164e-6
0.347, -1.681e-5, -8.652e-6, 8.163e-6
0.346, -1.682e-5, -8.655e-6, 8.168e-6
0.345, -1.683e-5, -8.655e-6, 8.172e-6
0.344, -1.683e-5, -8.674e-6, 8.160e-6
0.343, -1.683e-5, -8.670e-6, 8.165e-6
0.342, -1.684e-5, -8.675e-6, 8.167e-6
0.341, -1.686e-5, -8.694e-6, 8.168e-6
0.340, -1.686e-5, -8.695e-6, 8.167e-6
0.339, -1.687e-5, -8.698e-6, 8.168e-6
0.338, -1.688e-5, -8.709e-6, 8.171e-6
0.337, -1.689e-5, -8.718e-6, 8.176e-6
0.336, -1.689e-5, -8.724e-6, 8.169e-6
0.335, -1.690e-5, -8.732e-6, 8.171e-6
0.334, -1.691e-5, -8.738e-6, 8.173e-6
0.333, -1.691e-5, -8.740e-6, 8.172e-6
0.332, -1.693e-5, -8.752e-6, 8.175e-6
0.331, -1.693e-5, -8.756e-6, 8.176e-6
0.330, -1.694e-5, -8.765e-6, 8.178e-6
0.329, -1.695e-5, -8.775e-6, 8.178e-6
0.328, -1.696e-5, -8.781e-6, 8.182e-6
0.327, -1.697e-5, -8.784e-6, 8.182e-6
0.326, -1.697e-5, -8.794e-6, 8.178e-6
0.325, -1.699e-5, -8.802e-6, 8.184e-6
0.324, -1.699e-5, -8.805e-6, 8.185e-6
0.323, -1.700e-5, -8.814e-6, 8.186e-6
0.322, -1.702e-5, -8.829e-6, 8.194e-6
0.321, -1.703e-5, -8.835e-6, 8.191e-6
0.320, -1.703e-5, -8.836e-6, 8.189e-6
0.319, -1.705e-5, -8.850e-6, 8.195e-6
0.318, -1.704e-5, -8.853e-6, 8.192e-6
0.317, -1.705e-5, -8.857e-6, 8.191e-6
0.316, -1.706e-5, -8.870e-6, 8.195e-6
0.315, -1.707e-5, -8.874e-6, 8.192e-6
0.314, -1.707e-5, -8.876e-6, 8.191e-6
0.313, -1.708e-5, -8.886e-6, 8.191e-6
0.312, -1.709e-5, -8.891e-6, 8.196e-6
0.311, -1.709e-5, -8.897e-6, 8.191e-6
0.310, -1.711e-5, -8.907e-6, 8.198e-6
0.309, -1.712e-5, -8.917e-6, 8.202e-6
0.308, -1.711e-5, -8.918e-6, 8.196e-6
0.307, -1.712e-5, -8.927e-6, 8.196e-6
0.306, -1.714e-5, -8.937e-6, 8.205e-6
0.305, -1.714e-5, -8.942e-6, 8.199e-6
0.304, -1.714e-5, -8.944e-6, 8.194e-6
0.303, -1.715e-5, -8.952e-6, 8.201e-6
0.302, -1.715e-5, -8.958e-6, 8.193e-6
0.301, -1.716e-5, -8.963e-6, 8.200e-6
0.300, -1.718e-5, -8.974e-6, 8.206e-6
0.299, -1.718e-5, -8.981e-6, 8.196e-6
0.298, -1.719e-5, -8.986e-6, 8.201e-6
0.297, -1.719e-5, -8.986e-6, 8.207e-6
0.296, -1.720e-5, -8.999e-6, 8.202e-6
0.295, -1.721e-5, -9.009e-6, 8.202e-6
0.294, -1.723e-5, -9.013e-6, 8.213e-6
0.293, -1.722e-5, -9.021e-6, 8.202e-6
0.292, -1.723e-5, -9.027e-6, 8.203e-6
0.291, -1.723e-5, -9.028e-6, 8.204e-6
0.290, -1.725e-5, -9.039e-6, 8.211e-6
0.289, -1.725e-5, -9.048e-6, 8.205e-6
0.288, -1.726e-5, -9.049e-6, 8.209e-6
0.287, -1.726e-5, -9.059e-6, 8.205e-6
0.286, -1.728e-5, -9.067e-6, 8.209e-6
0.285, -1.728e-5, -9.068e-6, 8.209e-6
0.284, -1.728e-5, -9.075e-6, 8.208e-6
0.283, -1.730e-5, -9.086e-6, 8.209e-6
0.282, -1.730e-5, -9.086e-6, 8.213e-6
0.281, -1.730e-5, -9.094e-6, 8.206e-6
0.280, -1.731e-5, -9.106e-6, 8.207e-6
0.279, -1.732e-5, -9.109e-6, 8.214e-6
0.278, -1.733e-5, -9.116e-6, 8.210e-6
0.277, -1.734e-5, -9.126e-6, 8.214e-6
0.276, -1.735e-5, -9.127e-6, 8.219e-6
0.275, -1.735e-5, -9.137e-6, 8.214e-6
0.274, -1.737e-5, -9.147e-6, 8.219e-6
0.273, -1.737e-5, -9.151e-6, 8.217e-6
0.272, -1.737e-5, -9.151e-6, 8.218e-6
0.271, -1.739e-5, -9.169e-6, 8.221e-6
0.270, -1.740e-5, -9.175e-6, 8.223e-6
0.269, -1.740e-5, -9.178e-6, 8.223e-6
0.268, -1.741e-5, -9.188e-6, 8.223e-6
0.267, -1.742e-5, -9.192e-6, 8.225e-6
0.266, -1.742e-5, -9.199e-6, 8.223e-6
0.265, -1.742e-5, -9.200e-6, 8.222e-6
0.264, -1.744e-5, -9.212e-6, 8.225e-6
0.263, -1.744e-5, -9.217e-6, 8.225e-6
0.262, -1.744e-5, -9.221e-6, 8.223e-6
0.261, -1.746e-5, -9.232e-6, 8.229e-6
0.260, -1.747e-5, -9.237e-6, 8.229e-6
0.259, -1.746e-5, -9.242e-6, 8.216e-6
0.258, -1.747e-5, -9.248e-6, 8.224e-6
0.257, -1.748e-5, -9.252e-6, 8.226e-6
0.256, -1.748e-5, -9.256e-6, 8.223e-6
0.255, -1.750e-5, -9.268e-6, 8.228e-6
0.254, -1.750e-5, -9.272e-6, 8.227e-6
0.253, -1.751e-5, -9.284e-6, 8.230e-6
0.252, -1.753e-5, -9.295e-6, 8.236e-6
0.251, -1.754e-5, -9.299e-6, 8.239e-6
0.250, -1.754e-5, -9.302e-6, 8.236e-6
0.249, -1.755e-5, -9.313e-6, 8.237e-6
0.248, -1.756e-5, -9.319e-6, 8.243e-6
0.247, -1.756e-5, -9.324e-6, 8.235e-6
0.246, -1.758e-5, -9.334e-6, 8.243e-6
0.245, -1.759e-5, -9.338e-6, 8.248e-6
0.244, -1.759e-5, -9.346e-6, 8.243e-6
0.243, -1.760e-5, -9.355e-6, 8.244e-6
0.242, -1.761e-5, -9.358e-6, 8.250e-6
0.241, -1.762e-5, -9.372e-6, 8.248e-6
0.240, -1.763e-5, -9.374e-6, 8.255e-6
0.239, -1.763e-5, -9.380e-6, 8.254e-6
0.238, -1.763e-5, -9.389e-6, 8.245e-6
0.237, -1.765e-5, -9.393e-6, 8.256e-6
0.236, -1.766e-5, -9.399e-6, 8.260e-6
0.235, -1.766e-5, -9.407e-6, 8.248e-6
0.234, -1.767e-5, -9.415e-6, 8.260e-6
0.233, -1.767e-5, -9.415e-6, 8.259e-6
0.232, -1.768e-5, -9.427e-6, 8.252e-6
0.231, -1.769e-5, -9.431e-6, 8.255e-6
0.230, -1.769e-5, -9.436e-6, 8.257e-6
0.229, -1.771e-5, -9.447e-6, 8.258e-6
0.228, -1.772e-5, -9.455e-6, 8.265e-6
0.227, -1.772e-5, -9.457e-6, 8.263e-6
0.226, -1.774e-5, -9.469e-6, 8.266e-6
0.225, -1.774e-5, -9.472e-6, 8.269e-6
0.224, -1.775e-5, -9.478e-6, 8.268e-6
0.223, -1.776e-5, -9.490e-6, 8.270e-6
0.222, -1.777e-5, -9.495e-6, 8.272e-6
0.221, -1.777e-5, -9.498e-6, 8.275e-6
0.220, -1.779e-5, -9.511e-6, 8.278e-6
0.219, -1.780e-5, -9.517e-6, 8.280e-6
0.218, -1.780e-5, -9.522e-6, 8.280e-6
0.217, -1.780e-5, -9.528e-6, 8.276e-6
0.216, -1.782e-5, -9.536e-6, 8.286e-6
0.215, -1.782e-5, -9.538e-6, 8.279e-6
0.214, -1.782e-5, -9.546e-6, 8.279e-6
0.213, -1.784e-5, -9.553e-6, 8.286e-6
0.212, -1.785e-5, -9.559e-6, 8.286e-6
0.211, -1.785e-5, -9.566e-6, 8.283e-6
0.210, -1.786e-5, -9.574e-6, 8.289e-6
0.209, -1.787e-5, -9.577e-6, 8.288e-6
0.208, -1.787e-5, -9.583e-6, 8.290e-6
0.207, -1.788e-5, -9.592e-6, 8.291e-6
0.206, -1.790e-5, -9.600e-6, 8.295e-6
0.205, -1.790e-5, -9.604e-6, 8.295e-6
0.204, -1.791e-5, -9.612e-6, 8.297e-6
0.203, -1.791e-5, -9.617e-6, 8.297e-6
0.202, -1.791e-5, -9.619e-6, 8.294e-6
0.201, -1.793e-5, -9.630e-6, 8.296e-6
0.200, -1.794e-5, -9.634e-6, 8.304e-6
0.199, -1.794e-5, -9.639e-6, 8.297e-6
0.198, -1.795e-5, -9.648e-6, 8.301e-6
0.197, -1.796e-5, -9.653e-6, 8.308e-6
0.196, -1.796e-5, -9.657e-6, 8.306e-6
0.195, -1.797e-5, -9.666e-6, 8.305e-6
0.194, -1.799e-5, -9.673e-6, 8.316e-6
0.193, -1.799e-5, -9.678e-6, 8.308e-6
0.192, -1.799e-5, -9.684e-6, 8.310e-6
0.191, -1.800e-5, -9.689e-6, 8.314e-6
0.190, -1.801e-5, -9.695e-6, 8.313e-6
0.189, -1.801e-5, -9.701e-6, 8.311e-6
0.188, -1.802e-5, -9.705e-6, 8.318e-6
0.187, -1.802e-5, -9.709e-6, 8.310e-6
0.186, -1.803e-5, -9.719e-6, 8.309e-6
0.185, -1.804e-5, -9.720e-6, 8.319e-6
0.184, -1.804e-5, -9.727e-6, 8.315e-6
0.183, -1.805e-5, -9.733e-6, 8.313e-6
0.182, -1.805e-5, -9.737e-6, 8.315e-6
0.181, -1.806e-5, -9.743e-6, 8.318e-6
0.180, -1.806e-5, -9.748e-6, 8.314e-6
0.179, -1.807e-5, -9.753e-6, 8.318e-6
0.178, -1.808e-5, -9.759e-6, 8.316e-6
0.177, -1.808e-5, -9.765e-6, 8.316e-6
0.176, -1.809e-5, -9.769e-6, 8.325e-6
0.175, -1.809e-5, -9.774e-6, 8.320e-6
0.174, -1.810e-5, -9.782e-6, 8.321e-6
0.173, -1.811e-5, -9.784e-6, 8.329e-6
0.172, -1.812e-5, -9.790e-6, 8.327e-6
0.171, -1.812e-5, -9.797e-6, 8.319e-6
0.170, -1.812e-5, -9.799e-6, 8.323e-6
0.169, -1.813e-5, -9.802e-6, 8.329e-6
0.168, -1.814e-5, -9.811e-6, 8.328e-6
0.167, -1.814e-5, -9.813e-6, 8.332e-6
0.166, -1.815e-5, -9.819e-6, 8.326e-6
0.165, -1.815e-5, -9.825e-6, 8.330e-6
0.164, -1.816e-5, -9.827e-6, 8.329e-6
0.163, -1.816e-5, -9.831e-6, 8.326e-6
0.162, -1.817e-5, -9.837e-6, 8.330e-6
0.161, -1.817e-5, -9.840e-6, 8.327e-6
0.160, -1.817e-5, -9.844e-6, 8.330e-6
0.159, -1.818e-5, -9.849e-6, 8.328e-6
0.158, -1.818e-5, -9.853e-6, 8.330e-6
0.157, -1.817e-5, -9.857e-6, 8.318e-6
0.156, -1.819e-5, -9.861e-6, 8.324e-6
0.155, -1.819e-5, -9.863e-6, 8.324e-6
0.154, -1.819e-5, -9.865e-6, 8.321e-6
0.153, -1.820e-5, -9.871e-6, 8.325e-6
0.152, -1.820e-5, -9.876e-6, 8.324e-6
0.151, -1.821e-5, -9.883e-6, 8.332e-6
0.150, -1.821e-5, -9.885e-6, 8.328e-6
0.149, -1.822e-5, -9.890e-6, 8.330e-6
0.148, -1.822e-5, -9.891e-6, 8.330e-6
0.147, -1.822e-5, -9.896e-6, 8.326e-6
0.146, -1.823e-5, -9.902e-6, 8.330e-6
0.145, -1.824e-5, -9.904e-6, 8.336e-6
0.144, -1.824e-5, -9.908e-6, 8.329e-6
0.143, -1.824e-5, -9.911e-6, 8.334e-6
0.142, -1.825e-5, -9.913e-6, 8.332e-6
0.141, -1.824e-5, -9.918e-6, 8.323e-6
0.140, -1.825e-5, -9.921e-6, 8.332e-6
0.139, -1.826e-5, -9.924e-6, 8.332e-6
0.138, -1.825e-5, -9.927e-6, 8.322e-6
0.137, -1.825e-5, -9.929e-6, 8.325e-6
0.136, -1.826e-5, -9.930e-6, 8.328e-6
0.135, -1.826e-5, -9.935e-6, 8.323e-6
0.134, -1.826e-5, -9.938e-6, 8.327e-6
0.133, -1.827e-5, -9.940e-6, 8.329e-6
0.132, -1.826e-5, -9.944e-6, 8.320e-6
0.131, -1.827e-5, -9.947e-6, 8.319e-6
0.130, -1.827e-5, -9.948e-6, 8.326e-6
0.129, -1.827e-5, -9.951e-6, 8.316e-6
0.128, -1.828e-5, -9.953e-6, 8.324e-6
0.127, -1.828e-5, -9.956e-6, 8.323e-6
0.126, -1.827e-5, -9.958e-6, 8.313e-6
0.125, -1.828e-5, -9.960e-6, 8.323e-6
0.124, -1.828e-5, -9.963e-6, 8.322e-6
0.123, -1.827e-5, -9.966e-6, 8.308e-6
0.122, -1.829e-5, -9.966e-6, 8.321e-6
0.121, -1.829e-5, -9.968e-6, 8.322e-6
0.120, -1.828e-5, -9.971e-6, 8.312e-6
0.119, -1.829e-5, -9.973e-6, 8.316e-6
0.118, -1.829e-5, -9.974e-6, 8.317e-6
0.117, -1.829e-5, -9.977e-6, 8.312e-6
0.116, -1.829e-5, -9.977e-6, 8.315e-6
0.115, -1.829e-5, -9.979e-6, 8.307e-6
0.114, -1.829e-5, -9.981e-6, 8.307e-6
0.113, -1.829e-5, -9.982e-6, 8.309e-6
0.112, -1.829e-5, -9.983e-6, 8.303e-6
0.111, -1.829e-5, -9.985e-6, 8.301e-6
0.110, -1.829e-5, -9.986e-6, 8.302e-6
0.109, -1.829e-5, -9.986e-6, 8.305e-6
0.108, -1.829e-5, -9.988e-6, 8.301e-6
0.107, -1.828e-5, -9.988e-6, 8.296e-6
0.106, -1.829e-5, -9.989e-6, 8.299e-6
0.105, -1.829e-5, -9.990e-6, 8.303e-6
0.104, -1.828e-5, -9.992e-6, 8.291e-6
0.103, -1.829e-5, -9.992e-6, 8.295e-6
0.102, -1.829e-5, -9.992e-6, 8.293e-6
0.101, -1.828e-5, -9.993e-6, 8.291e-6
0.100, -1.828e-5, -9.993e-6, 8.290e-6
0.099, -1.827e-5, -9.994e-6, 8.279e-6
0.098, -1.828e-5, -9.994e-6, 8.286e-6
0.097, -1.828e-5, -9.994e-6, 8.284e-6
0.096, -1.827e-5, -9.994e-6, 8.281e-6
0.095, -1.827e-5, -9.994e-6, 8.277e-6
0.094, -1.827e-5, -9.994e-6, 8.273e-6
0.093, -1.827e-5, -9.994e-6, 8.273e-6
0.092, -1.827e-5, -9.994e-6, 8.274e-6
0.091, -1.826e-5, -9.994e-6, 8.269e-6
0.090, -1.826e-5, -9.994e-6, 8.270e-6
0.089, -1.826e-5, -9.994e-6, 8.261e-6
0.088, -1.826e-5, -9.994e-6, 8.265e-6
0.087, -1.825e-5, -9.994e-6, 8.258e-6
0.086, -1.824e-5, -9.994e-6, 8.250e-6
0.085, -1.825e-5, -9.994e-6, 8.252e-6
0.084, -1.824e-5, -9.994e-6, 8.248e-6
0.083, -1.824e-5, -9.994e-6, 8.243e-6
0.082, -1.825e-5, -9.994e-6, 8.252e-6
0.081, -1.824e-5, -9.994e-6, 8.244e-6
0.080, -1.822e-5, -9.994e-6, 8.228e-6
0.079, -1.823e-5, -9.994e-6, 8.236e-6
0.078, -1.822e-5, -9.994e-6, 8.227e-6
0.077, -1.822e-5, -9.994e-6, 8.222e-6
0.076, -1.823e-5, -9.994e-6, 8.232e-6
0.075, -1.821e-5, -9.994e-6, 8.215e-6
0.074, -1.821e-5, -9.994e-6, 8.214e-6
0.073, -1.821e-5, -9.994e-6, 8.218e-6
0.072, -1.821e-5, -9.994e-6, 8.212e-6
0.071, -1.820e-5, -9.994e-6, 8.202e-6
0.070, -1.820e-5, -9.994e-6, 8.207e-6
0.069, -1.819e-5, -9.994e-6, 8.199e-6
0.068, -1.819e-5, -9.994e-6, 8.195e-6
0.067, -1.820e-5, -9.994e-6, 8.201e-6
0.066, -1.819e-5, -9.994e-6, 8.194e-6
0.065, -1.818e-5, -9.994e-6, 8.184e-6
0.064, -1.818e-5, -9.994e-6, 8.186e-6
0.063, -1.817e-5, -9.994e-6, 8.179e-6
0.062, -1.817e-5, -9.994e-6, 8.174e-6
0.061, -1.817e-5, -9.994e-6, 8.177e-6
0.060, -1.816e-5, -9.994e-6, 8.165e-6
0.059, -1.815e-5, -9.994e-6, 8.158e-6
0.058, -1.815e-5, -9.994e-6, 8.160e-6
0.057, -1.815e-5, -9.994e-6, 8.155e-6
0.056, -1.814e-5, -9.994e-6, 8.148e-6
0.055, -1.814e-5, -9.994e-6, 8.147e-6
0.054, -1.812e-5, -9.994e-6, 8.125e-6
0.053, -1.812e-5, -9.994e-6, 8.128e-6
0.052, -1.812e-5, -9.994e-6, 8.129e-6
0.051, -1.812e-5, -9.994e-6, 8.125e-6
0.050, -1.812e-5, -9.994e-6, 8.123e-6
0.049, -1.811e-5, -9.994e-6, 8.118e-6
0.048, -1.810e-5, -9.994e-6, 8.110e-6
0.047, -1.811e-5, -9.994e-6, 8.113e-6
0.046, -1.809e-5, -9.994e-6, 8.100e-6
0.045, -1.810e-5, -9.994e-6, 8.106e-6
0.044, -1.809e-5, -9.994e-6, 8.095e-6
0.043, -1.808e-5, -9.994e-6, 8.088e-6
0.042, -1.808e-5, -9.994e-6, 8.087e-6
0.041, -1.808e-5, -9.994e-6, 8.087e-6
0.040, -1.807e-5, -9.994e-6, 8.077e-6
0.039, -1.807e-5, -9.994e-6, 8.074e-6
0.038, -1.806e-5, -9.994e-6, 8.063e-6
0.037, -1.806e-5, -9.994e-6, 8.061e-6
0.036, -1.806e-5, -9.994e-6, 8.061e-6
0.035, -1.804e-5, -9.994e-6, 8.049e-6
0.034, -1.804e-5, -9.994e-6, 8.047e-6
0.033, -1.804e-5, -9.994e-6, 8.046e-6
0.032, -1.803e-5, -9.994e-6, 8.039e-6
0.031, -1.803e-5, -9.994e-6, 8.034e-6
0.030, -1.803e-5, -9.994e-6, 8.032e-6
0.029, -1.801e-5, -9.994e-6, 8.016e-6
0.028, -1.801e-5, -9.994e-6, 8.019e-6
0.027, -1.801e-5, -9.994e-6, 8.012e-6
0.026, -1.800e-5, -9.994e-6, 8.005e-6
0.025, -1.800e-5, -9.994e-6, 8.003e-6
0.024, -1.799e-5, -9.994e-6, 7.996e-6
0.023, -1.798e-5, -9.994e-6, 7.988e-6
0.022, -1.798e-5, -9.994e-6, 7.987e-6
0.021, -1.798e-5, -9.994e-6, 7.986e-6
0.020, -1.796e-5, -9.994e-6, 7.969e-6
0.019, -1.797e-5, -9.994e-6, 7.971e-6
0.018, -1.797e-5, -9.994e-6, 7.972e-6
0.017, -1.795e-5, -9.994e-6, 7.952e-6
0.016, -1.795e-5, -9.994e-6, 7.960e-6
0.015, -1.795e-5, -9.994e-6, 7.957e-6
0.014, -1.794e-5, -9.994e-6, 7.941e-6
0.013, -1.794e-5, -9.994e-6, 7.941e-6
0.012, -1.793e-5, -9.994e-6, 7.937e-6
0.011, -1.791e-5, -9.994e-6, 7.919e-6
0.010, -1.792e-5, -9.994e-6, 7.925e-6
0.009, -1.791e-5, -9.994e-6, 7.918e-6
0.008, -1.790e-5, -9.994e-6, 7.902e-6
0.007, -1.790e-5, -9.994e-6, 7.906e-6
0.006, -1.790e-5, -9.994e-6, 7.901e-6
0.005, -1.788e-5, -9.994e-6, 7.890e-6
0.004, -1.789e-5, -9.994e-6, 7.892e-6
0.003, -1.788e-5, -9.994e-6, 7.882e-6
0.002, -1.787e-5, -9.994e-6, 7.876e-6
0.001, -1.787e-5, -9.994e-6, 7.872e-6
0.000, -1.786e-5, -9.994e-6, 7.866e-6
-0.001, -1.785e-5, -9.994e-6, 7.855e-6
-0.002, -1.785e-5, -9.994e-6, 7.851e-6
-0.003, -1.785e-5, -9.994e-6, 7.854e-6
-0.004, -1.783e-5, -9.994e-6, 7.839e-6
-0.005, -1.783e-5, -9.994e-6, 7.833e-6
-0.006, -1.783e-5, -9.994e-6, 7.831e-6
-0.007, -1.782e-5, -9.994e-6, 7.825e-6
-0.008, -1.781e-5, -9.994e-6, 7.818e-6
-0.009, -1.781e-5, -9.994e-6, 7.811e-6
-0.010, -1.781e-5, -9.994e-6, 7.811e-6
-0.011, -1.780e-5, -9.994e-6, 7.804e-6
-0.012, -1.779e-5, -9.994e-6, 7.798e-6
-0.013, -1.778e-5, -9.994e-6, 7.789e-6
-0.014, -1.778e-5, -9.994e-6, 7.784e-6
-0.015, -1.777e-5, -9.994e-6, 7.781e-6
-0.016, -1.777e-5, -9.994e-6, 7.771e-6
-0.017, -1.776e-5, -9.994e-6, 7.763e-6
-0.018, -1.775e-5, -9.994e-6, 7.759e-6
-0.019, -1.775e-5, -9.994e-6, 7.757e-6
-0.020, -1.774e-5, -9.994e-6, 7.748e-6
-0.021, -1.774e-5, -9.994e-6, 7.743e-6
-0.022, -1.774e-5, -9.994e-6, 7.741e-6
-0.023, -1.772e-5, -9.994e-6, 7.724e-6
-0.024, -1.772e-5, -9.994e-6, 7.723e-6
-0.025, -1.771e-5, -9.994e-6, 7.718e-6
-0.026, -1.770e-5, -9.994e-6, 7.709e-6
-0.027, -1.770e-5, -9.994e-6, 7.709e-6
-0.028, -1.770e-5, -9.994e-6, 7.705e-6
-0.029, -1.768e-5, -9.994e-6, 7.689e-6
-0.030, -1.769e-5, -9.994e-6, 7.693e-6
-0.031, -1.768e-5, -9.994e-6, 7.683e-6
-0.032, -1.767e-5, -9.994e-6, 7.673e-6
-0.033, -1.767e-5, -9.994e-6, 7.675e-6
-0.034, -1.765e-5, -9.994e-6, 7.659e-6
-0.035, -1.765e-5, -9.994e-6, 7.657e-6
-0.036, -1.765e-5, -9.994e-6, 7.656e-6
-0.037, -1.764e-5, -9.994e-6, 7.643e-6
-0.038, -1.763e-5, -9.994e-6, 7.635e-6
-0.039, -1.764e-5, -9.994e-6, 7.642e-6
-0.040, -1.762e-5, -9.994e-6, 7.621e-6
-0.041, -1.761e-5, -9.994e-6, 7.616e-6
-0.042, -1.761e-5, -9.994e-6, 7.617e-6
-0.043, -1.760e-5, -9.994e-6, 7.609e-6
-0.044, -1.759e-5, -9.994e-6, 7.600e-6
-0.045, -1.759e-5, -9.994e-6, 7.601e-6
-0.046, -1.759e-5, -9.994e-6, 7.592e-6
-0.047, -1.757e-5, -9.994e-6, 7.579e-6
-0.048, -1.757e-5, -9.994e-6, 7.571e-6
-0.049, -1.756e-5, -9.994e-6, 7.564e-6
-0.050, -1.755e-5, -9.994e-6, 7.560e-6
-0.051, -1.755e-5, -9.994e-6, 7.560e-6
-0.052, -1.755e-5, -9.994e-6, 7.551e-6
-0.053, -1.754e-5, -9.994e-6, 7.543e-6
-0.054, -1.754e-5, -9.994e-6, 7.541e-6
-0.055, -1.753e-5, -9.994e-6, 7.535e-6
-0.056, -1.752e-5, -9.994e-6, 7.524e-6
-0.057, -1.752e-5, -9.994e-6, 7.523e-6
-0.058, -1.751e-5, -9.994e-6, 7.516e-6
-0.059, -1.750e-5, -9.994e-6, 7.507e-6
-0.060, -1.750e-5, -9.994e-6, 7.507e-6
-0.061, -1.749e-5, -9.994e-6, 7.500e-6
-0.062, -1.748e-5, -9.994e-6, 7.491e-6
-0.063, -1.748e-5, -9.994e-6, 7.483e-6
-0.064, -1.747e-5, -9.994e-6, 7.479e-6
-0.065, -1.746e-5, -9.994e-6, 7.470e-6
-0.066, -1.746e-5, -9.994e-6, 7.464e-6
-0.067, -1.746e-5, -9.994e-6, 7.462e-6
-0.068, -1.745e-5, -9.994e-6, 7.456e-6
-0.069, -1.744e-5, -9.994e-6, 7.447e-6
-0.070, -1.743e-5, -9.994e-6, 7.438e-6
-0.071, -1.743e-5, -9.994e-6, 7.434e-6
-0.072, -1.742e-5, -9.994e-6, 7.426e-6
-0.073, -1.742e-5, -9.994e-6, 7.426e-6
-0.074, -1.741e-5, -9.994e-6, 7.411e-6
-0.075, -1.740e-5, -9.994e-6, 7.409e-6
-0.076, -1.740e-5, -9.994e-6, 7.404e-6
-0.077, -1.740e-5, -9.994e-6, 7.402e-6
-0.078, -1.739e-5, -9.994e-6, 7.393e-6
-0.079, -1.738e-5, -9.994e-6, 7.388e-6
-0.080, -1.737e-5, -9.994e-6, 7.376e-6
-0.081, -1.736e-5, -9.994e-6, 7.370e-6
-0.082, -1.736e-5, -9.994e-6, 7.365e-6
-0.083, -1.735e-5, -9.994e-6, 7.357e-6
-0.084, -1.735e-5, -9.994e-6, 7.353e-6
-0.085, -1.734e-5, -9.994e-6, 7.345e-6
-0.086, -1.733e-5, -9.994e-6, 7.338e-6
-0.087, -1.733e-5, -9.994e-6, 7.337e-6
-0.088, -1.732e-5, -9.994e-6, 7.330e-6
-0.089, -1.732e-5, -9.994e-6, 7.322e-6
-0.090, -1.731e-5, -9.994e-6, 7.314e-6
-0.091, -1.731e-5, -9.994e-6, 7.317e-6
-0.092, -1.729e-5, -9.994e-6, 7.299e-6
-0.093, -1.729e-5, -9.994e-6, 7.297e-6
-0.094, -1.729e-5, -9.994e-6, 7.297e-6
-0.095, -1.727e-5, -9.994e-6, 7.278e-6
-0.096, -1.727e-5, -9.994e-6, 7.281e-6
-0.097, -1.727e-5, -9.994e-6, 7.276e-6
-0.098, -1.725e-5, -9.994e-6, 7.258e-6
-0.099, -1.725e-5, -9.994e-6, 7.260e-6
-0.100, -1.725e-5, -9.994e-6, 7.253e-6
-0.101, -1.723e-5, -9.994e-6, 7.240e-6
-0.102, -1.723e-5, -9.994e-6, 7.241e-6
-0.103, -1.723e-5, -9.994e-6, 7.241e-6
-0.104, -1.721e-5, -9.994e-6, 7.219e-6
-0.105, -1.722e-5, -9.994e-6, 7.222e-6
-0.106, -1.721e-5, -9.994e-6, 7.218e-6
-0.107, -1.720e-5, -9.994e-6, 7.204e-6
-0.108, -1.720e-5, -9.994e-6, 7.204e-6
-0.109, -1.719e-5, -9.994e-6, 7.198e-6
-0.110, -1.718e-5, -9.994e-6, 7.186e-6
-0.111, -1.718e-5, -9.994e-6, 7.185e-6
-0.112, -1.718e-5, -9.994e-6, 7.181e-6
-0.113, -1.716e-5, -9.994e-6, 7.168e-6
-0.114, -1.716e-5, -9.994e-6, 7.161e-6
-0.115, -1.716e-5, -9.994e-6, 7.161e-6
-0.116, -1.714e-5, -9.994e-6, 7.149e-6
-0.117, -1.714e-5, -9.994e-6, 7.144e-6
-0.118, -1.713e-5, -9.994e-6, 7.140e-6
-0.119, -1.713e-5, -9.994e-6, 7.131e-6
-0.120, -1.712e-5, -9.994e-6, 7.121e-6
-0.121, -1.711e-5, -9.994e-6, 7.120e-6
-0.122, -1.710e-5, -9.994e-6, 7.109e-6
-0.123, -1.710e-5, -9.994e-6, 7.105e-6
-0.124, -1.709e-5, -9.994e-6, 7.101e-6
-0.125, -1.708e-5, -9.994e-6, 7.083e-6
-0.126, -1.708e-5, -9.994e-6, 7.086e-6
-0.127, -1.708e-5, -9.994e-6, 7.085e-6
-0.128, -1.707e-5, -9.994e-6, 7.075e-6
-0.129, -1.706e-5, -9.994e-6, 7.066e-6
-0.130, -1.706e-5, -9.994e-6, 7.063e-6
-0.131, -1.705e-5, -9.994e-6, 7.053e-6
-0.132, -1.704e-5, -9.994e-6, 7.050e-6
-0.133, -1.704e-5, -9.994e-6, 7.045e-6
-0.134, -1.703e-5, -9.994e-6, 7.037e-6
-0.135, -1.702e-5, -9.994e-6, 7.028e-6
-0.136, -1.702e-5, -9.994e-6, 7.023e-6
-0.137, -1.702e-5, -9.994e-6, 7.022e-6
-0.138, -1.700e-5, -9.994e-6, 7.009e-6
-0.139, -1.700e-5, -9.994e-6, 7.006e-6
-0.140, -1.699e-5, -9.994e-6, 6.998e-6
-0.141, -1.698e-5, -9.994e-6, 6.987e-6
-0.142, -1.698e-5, -9.994e-6, 6.990e-6
-0.143, -1.697e-5, -9.994e-6, 6.980e-6
-0.144, -1.697e-5, -9.994e-6, 6.971e-6
-0.145, -1.697e-5, -9.994e-6, 6.973e-6
-0.146, -1.695e-5, -9.994e-6, 6.952e-6
-0.147, -1.694e-5, -9.994e-6, 6.949e-6
-0.148, -1.695e-5, -9.994e-6, 6.951e-6
-0.149, -1.693e-5, -9.994e-6, 6.936e-6
-0.150, -1.692e-5, -9.994e-6, 6.930e-6
-0.151, -1.691e-5, -9.994e-6, 6.919e-6
-0.152, -1.690e-5, -9.994e-6, 6.911e-6
-0.153, -1.690e-5, -9.994e-6, 6.906e-6
-0.154, -1.691e-5, -9.994e-6, 6.911e-6
-0.155, -1.689e-5, -9.994e-6, 6.895e-6
-0.156, -1.689e-5, -9.994e-6, 6.891e-6
-0.157, -1.688e-5, -9.994e-6, 6.891e-6
-0.158, -1.688e-5, -9.994e-6, 6.883e-6
-0.159, -1.687e-5, -9.994e-6, 6.874e-6
-0.160, -1.687e-5, -9.994e-6, 6.874e-6
-0.161, -1.685e-5, -9.994e-6, 6.860e-6
-0.162, -1.684e-5, -9.994e-6, 6.847e-6
-0.163, -1.685e-5, -9.994e-6, 6.855e-6
-0.164, -1.683e-5, -9.994e-6, 6.840e-6
-0.165, -1.682e-5, -9.994e-6, 6.831e-6
-0.166, -1.683e-5, -9.994e-6, 6.834e-6
-0.167, -1.682e-5, -9.994e-6, 6.823e-6
-0.168, -1.681e-5, -9.994e-6, 6.811e-6
-0.169, -1.680e-5, -9.994e-6, 6.810e-6
-0.170, -1.679e-5, -9.994e-6, 6.800e-6
-0.171, -1.679e-5, -9.994e-6, 6.794e-6
-0.172, -1.678e-5, -9.994e-6, 6.787e-6
-0.173, -1.678e-5, -9.994e-6, 6.782e-6
-0.174, -1.677e-5, -9.994e-6, 6.778e-6
-0.175, -1.676e-5, -9.994e-6, 6.769e-6
-0.176, -1.675e-5, -9.994e-6, 6.758e-6
-0.177, -1.674e-5, -9.994e-6, 6.751e-6
-0.178, -1.674e-5, -9.994e-6, 6.750e-6
-0.179, -1.674e-5, -9.994e-6, 6.746e-6
-0.180, -1.673e-5, -9.994e-6, 6.739e-6
-0.181, -1.672e-5, -9.994e-6, 6.727e-6
-0.182, -1.672e-5, -9.994e-6, 6.725e-6
-0.183, -1.671e-5, -9.994e-6, 6.717e-6
-0.184, -1.671e-5, -9.994e-6, 6.711e-6
-0.185, -1.670e-5, -9.994e-6, 6.703e-6
-0.186, -1.669e-5, -9.994e-6, 6.695e-6
-0.187, -1.668e-5, -9.994e-6, 6.689e-6
-0.188, -1.668e-5, -9.994e-6, 6.689e-6
-0.189, -1.667e-5, -9.994e-6, 6.676e-6
-0.190, -1.667e-5, -9.994e-6, 6.674e-6
-0.191, -1.666e-5, -9.994e-6, 6.666e-6
-0.192, -1.665e-5, -9.994e-6, 6.654e-6
-0.193, -1.664e-5, -9.994e-6, 6.649e-6
-0.194, -1.664e-5, -9.994e-6, 6.644e-6
-0.195, -1.663e-5, -9.994e-6, 6.637e-6
-0.196, -1.663e-5, -9.994e-6, 6.633e-6
-0.197, -1.662e-5, -9.994e-6, 6.628e-6
-0.198, -1.661e-5, -9.994e-6, 6.613e-6
-0.199, -1.661e-5, -9.994e-6, 6.615e-6
-0.200, -1.660e-5, -9.994e-6, 6.606e-6
-0.201, -1.659e-5, -9.994e-6, 6.593e-6
-0.202, -1.659e-5, -9.994e-6, 6.591e-6
-0.203, -1.659e-5, -9.994e-6, 6.591e-6
-0.204, -1.657e-5, -9.994e-6, 6.579e-6
-0.205, -1.656e-5, -9.994e-6, 6.568e-6
-0.206, -1.657e-5, -9.994e-6, 6.571e-6
-0.207, -1.655e-5, -9.994e-6, 6.559e-6
-0.208, -1.655e-5, -9.994e-6, 6.555e-6
-0.209, -1.654e-5, -9.994e-6, 6.549e-6
-0.210, -1.653e-5, -9.994e-6, 6.533e-6
-0.211, -1.654e-5, -9.994e-6, 6.542e-6
-0.212, -1.653e-5, -9.994e-6, 6.534e-6
-0.213, -1.651e-5, -9.994e-6, 6.516e-6
-0.214, -1.651e-5, -9.994e-6, 6.514e-6
-0.215, -1.651e-5, -9.994e-6, 6.514e-6
-0.216, -1.649e-5, -9.994e-6, 6.492e-6
-0.217, -1.648e-5, -9.994e-6, 6.491e-6
-0.218, -1.648e-5, -9.994e-6, 6.488e-6
-0.219, -1.647e-5, -9.994e-6, 6.478e-6
-0.220, -1.647e-5, -9.994e-6, 6.479e-6
-0.221, -1.647e-5, -9.994e-6, 6.474e-6
-0.222, -1.645e-5, -9.994e-6, 6.458e-6
-0.223, -1.644e-5, -9.994e-6, 6.449e-6
-0.224, -1.644e-5, -9.994e-6, 6.444e-6
-0.225, -1.643e-5, -9.994e-6, 6.436e-6
-0.226, -1.643e-5, -9.994e-6, 6.436e-6
-0.227, -1.641e-5, -9.994e-6, 6.416e-6
-0.228, -1.641e-5, -9.994e-6, 6.416e-6
-0.229, -1.640e-5, -9.994e-6, 6.407e-6
-0.230, -1.640e-5, -9.994e-6, 6.409e-6
-0.231, -1.639e-5, -9.994e-6, 6.395e-6
-0.232, -1.638e-5, -9.994e-6, 6.388e-6
-0.233, -1.638e-5, -9.994e-6, 6.385e-6
-0.234, -1.637e-5, -9.994e-6, 6.380e-6
-0.235, -1.636e-5, -9.994e-6, 6.367e-6
-0.236, -1.636e-5, -9.994e-6, 6.368e-6
-0.237, -1.635e-5, -9.994e-6, 6.354e-6
-0.238, -1.635e-5, -9.994e-6, 6.354e-6
-0.239, -1.634e-5, -9.994e-6, 6.348e-6
-0.240, -1.634e-5, -9.994e-6, 6.344e-6
-0.241, -1.633e-5, -9.994e-6, 6.331e-6
-0.242, -1.631e-5, -9.994e-6, 6.319e-6
-0.243, -1.631e-5, -9.994e-6, 6.315e-6
-0.244, -1.631e-5, -9.994e-6, 6.312e-6
-0.245, -1.630e-5, -9.994e-6, 6.303e-6
-0.246, -1.629e-5, -9.994e-6, 6.296e-6
-0.247, -1.628e-5, -9.994e-6, 6.290e-6
-0.248, -1.627e-5, -9.994e-6, 6.280e-6
-0.249, -1.628e-5, -9.994e-6, 6.282e-6
-0.250, -1.626e-5, -9.994e-6, 6.268e-6
-0.251, -1.626e-5, -9.994e-6, 6.265e-6
-0.252, -1.625e-5, -9.994e-6, 6.257e-6
-0.253, -1.623e-5, -9.994e-6, 6.234e-6
-0.254, -1.624e-5, -9.994e-6, 6.246e-6
-0.255, -1.623e-5, -9.994e-6, 6.232e-6
-0.256, -1.622e-5, -9.994e-6, 6.225e-6
-0.257, -1.622e-5, -9.994e-6, 6.228e-6
-0.258, -1.621e-5, -9.994e-6, 6.214e-6
-0.259, -1.620e-5, -9.994e-6, 6.206e-6
-0.260, -1.620e-5, -9.994e-6, 6.208e-6
-0.261, -1.619e-5, -9.994e-6, 6.194e-6
-0.262, -1.619e-5, -9.994e-6, 6.191e-6
-0.263, -1.618e-5, -9.994e-6, 6.191e-6
-0.264, -1.617e-5, -9.994e-6, 6.176e-6
-0.265, -1.616e-5, -9.994e-6, 6.162e-6
-0.266, -1.616e-5, -9.994e-6, 6.167e-6
-0.267, -1.615e-5, -9.994e-6, 6.154e-6
-0.268, -1.614e-5, -9.994e-6, 6.141e-6
-0.269, -1.613e-5, -9.994e-6, 6.141e-6
-0.270, -1.613e-5, -9.994e-6, 6.134e-6
-0.271, -1.612e-5, -9.994e-6, 6.121e-6
-0.272, -1.612e-5, -9.994e-6, 6.123e-6
-0.273, -1.611e-5, -9.994e-6, 6.115e-6
-0.274, -1.609e-5, -9.994e-6, 6.095e-6
-0.275, -1.610e-5, -9.994e-6, 6.108e-6
-0.276, -1.608e-5, -9.994e-6, 6.088e-6
-0.277, -1.607e-5, -9.994e-6, 6.077e-6
-0.278, -1.607e-5, -9.994e-6, 6.077e-6
-0.279, -1.605e-5, -9.994e-6, 6.057e-6
-0.280, -1.605e-5, -9.994e-6, 6.056e-6
-0.281, -1.605e-5, -9.994e-6, 6.056e-6
-0.282, -1.604e-5, -9.994e-6, 6.046e-6
-0.283, -1.603e-5, -9.994e-6, 6.034e-6
-0.284, -1.603e-5, -9.994e-6, 6.040e-6
-0.285, -1.602e-5, -9.994e-6, 6.026e-6
-0.286, -1.602e-5, -9.994e-6, 6.021e-6
-0.287, -1.601e-5, -9.994e-6, 6.013e-6
-0.288, -1.600e-5, -9.994e-6, 6.002e-6
-0.289, -1.599e-5, -9.994e-6, 5.993e-6
-0.290, -1.598e-5, -9.994e-6, 5.990e-6
-0.291, -1.597e-5, -9.994e-6, 5.975e-6
-0.292, -1.597e-5, -9.994e-6, 5.974e-6
-0.293, -1.597e-5, -9.994e-6, 5.971e-6
-0.294, -1.595e-5, -9.994e-6, 5.960e-6
-0.295, -1.594e-5, -9.994e-6, 5.945e-6
-0.296, -1.594e-5, -9.994e-6, 5.947e-6
-0.297, -1.592e-5, -9.994e-6, 5.927e-6
-0.298, -1.592e-5, -9.994e-6, 5.929e-6
-0.299, -1.591e-5, -9.994e-6, 5.917e-6
-0.300, -1.591e-5, -9.994e-6, 5.915e-6
-0.301, -1.590e-5, -9.994e-6, 5.905e-6
-0.302, -1.589e-5, -9.994e-6, 5.899e-6
-0.303, -1.590e-5, -9.994e-6, 5.903e-6
-0.304, -1.588e-5, -9.994e-6, 5.889e-6
-0.305, -1.587e-5, -9.994e-6, 5.876e-6
-0.306, -1.586e-5, -9.994e-6, 5.865e-6
-0.307, -1.586e-5, -9.994e-6, 5.861e-6
-0.308, -1.585e-5, -9.994e-6, 5.855e-6
-0.309, -1.583e-5, -9.994e-6, 5.839e-6
-0.310, -1.583e-5, -9.994e-6, 5.837e-6
-0.311, -1.582e-5, -9.994e-6, 5.827e-6
-0.312, -1.582e-5, -9.994e-6, 5.823e-6
-0.313, -1.580e-5, -9.994e-6, 5.807e-6
-0.314, -1.581e-5, -9.994e-6, 5.811e-6
-0.315, -1.580e-5, -9.994e-6, 5.802e-6
-0.316, -1.578e-5, -9.994e-6, 5.791e-6
-0.317, -1.578e-5, -9.994e-6, 5.788e-6
-0.318, -1.578e-5, -9.994e-6, 5.784e-6
-0.319, -1.576e-5, -9.994e-6, 5.762e-6
-0.320, -1.576e-5, -9.994e-6, 5.767e-6
-0.321, -1.575e-5, -9.994e-6, 5.753e-6
-0.322, -1.574e-5, -9.994e-6, 5.746e-6
-0.323, -1.573e-5, -9.994e-6, 5.739e-6
-0.324, -1.573e-5, -9.994e-6, 5.734e-6
-0.325, -1.571e-5, -9.994e-6, 5.711e-6
-0.326, -1.571e-5, -9.994e-6, 5.715e-6
-0.327, -1.571e-5, -9.994e-6, 5.714e-6
-0.328, -1.568e-5, -9.994e-6, 5.687e-6
-0.329, -1.569e-5, -9.994e-6, 5.692e-6
-0.330, -1.568e-5, -9.994e-6, 5.683e-6
-0.331, -1.567e-5, -9.994e-6, 5.672e-6
-0.332, -1.566e-5, -9.994e-6, 5.665e-6
-0.333, -1.565e-5, -9.994e-6, 5.660e-6
-0.334, -1.564e-5, -9.994e-6, 5.644e-6
-0.335, -1.563e-5, -9.994e-6, 5.638e-6
-0.336, -1.562e-5, -9.994e-6, 5.629e-6
-0.337, -1.562e-5, -9.994e-6, 5.624e-6
-0.338, -1.562e-5, -9.994e-6, 5.622e-6
-0.339, -1.560e-5, -9.994e-6, 5.608e-6
-0.340, -1.560e-5, -9.994e-6, 5.602e-6
-0.341, -1.559e-5, -9.994e-6, 5.593e-6
-0.342, -1.558e-5, -9.994e-6, 5.586e-6
-0.343, -1.558e-5, -9.994e-6, 5.581e-6
-0.344, -1.556e-5, -9.994e-6, 5.565e-6
-0.345, -1.556e-5, -9.994e-6, 5.562e-6
-0.346, -1.555e-5, -9.994e-6, 5.555e-6
-0.347, -1.554e-5, -9.994e-6, 5.549e-6
-0.348, -1.554e-5, -9.994e-6, 5.542e-6
-0.349, -1.552e-5, -9.994e-6, 5.522e-6
-0.350, -1.551e-5, -9.994e-6, 5.515e-6
-0.351, -1.551e-5, -9.994e-6, 5.511e-6
-0.352, -1.550e-5, -9.994e-6, 5.502e-6
-0.353, -1.548e-5, -9.994e-6, 5.488e-6
-0.354, -1.547e-5, -9.994e-6, 5.477e-6
-0.355, -1.546e-5, -9.994e-6, 5.466e-6
-0.356, -1.545e-5, -9.994e-6, 5.459e-6
-0.357, -1.545e-5, -9.994e-6, 5.456e-6
-0.358, -1.544e-5, -9.994e-6, 5.447e-6
-0.359, -1.543e-5, -9.994e-6, 5.437e-6
-0.360, -1.542e-5, -9.994e-6, 5.431e-6
-0.361, -1.542e-5, -9.994e-6, 5.428e-6
-0.362, -1.540e-5, -9.994e-6, 5.411e-6
-0.363, -1.539e-5, -9.994e-6, 5.399e-6
-0.364, -1.538e-5, -9.994e-6, 5.390e-6
-0.365, -1.537e-5, -9.994e-6, 5.373e-6
-0.366, -1.537e-5, -9.994e-6, 5.379e-6
-0.367, -1.536e-5, -9.994e-6, 5.366e-6
-0.368, -1.535e-5, -9.994e-6, 5.359e-6
-0.369, -1.534e-5, -9.994e-6, 5.351e-6
-0.370, -1.533e-5, -9.994e-6, 5.332e-6
-0.371, -1.532e-5, -9.994e-6, 5.324e-6
-0.372, -1.531e-5, -9.994e-6, 5.319e-6
-0.373, -1.529e-5, -9.994e-6, 5.299e-6
-0.374, -1.529e-5, -9.994e-6, 5.291e-6
-0.375, -1.529e-5, -9.994e-6, 5.295e-6
-0.376, -1.527e-5, -9.994e-6, 5.273e-6
-0.377, -1.526e-5, -9.994e-6, 5.264e-6
-0.378, -1.526e-5, -9.994e-6, 5.264e-6
-0.379, -1.524e-5, -9.994e-6, 5.242e-6
-0.380, -1.523e-5, -9.994e-6, 5.238e-6
-0.381, -1.522e-5, -9.994e-6, 5.230e-6
-0.382, -1.521e-5, -9.994e-6, 5.219e-6
-0.383, -1.520e-5, -9.994e-6, 5.204e-6
-0.384, -1.520e-5, -9.994e-6, 5.203e-6
-0.385, -1.518e-5, -9.994e-6, 5.184e-6
-0.386, -1.517e-5, -9.994e-6, 5.171e-6
-0.387, -1.517e-5, -9.994e-6, 5.171e-6
-0.388, -1.515e-5, -9.994e-6, 5.157e-6
-0.389, -1.513e-5, -9.994e-6, 5.138e-6
-0.390, -1.513e-5, -9.994e-6, 5.139e-6
-0.391, -1.512e-5, -9.994e-6, 5.123e-6
-0.392, -1.510e-5, -9.994e-6, 5.108e-6
-0.393, -1.510e-5, -9.994e-6, 5.105e-6
-0.394, -1.509e-5, -9.994e-6, 5.097e-6
-0.395, -1.507e-5, -9.994e-6, 5.078e-6
-0.396, -1.507e-5, -9.994e-6, 5.071e-6
-0.397, -1.506e-5, -9.994e-6, 5.063e-6
-0.398, -1.505e-5, -9.994e-6, 5.052e-6
-0.399, -1.504e-5, -9.994e-6, 5.044e-6
-0.400, -1.503e-5, -9.994e-6, 5.033e-6
