Feb. 28, 2018   14:08:47
Square Wave Voltammetry
File: c:\users\electrochemist\desktop\2018\28022018_unbuffered_9,2\42_e2_9,2_0118_ph7,49_2.txt
Data Source:  Experiment
Instrument Model:  CHI1040A
Header: 
Note: 

Init E (V) = 0.5
Final E (V) = -0.05
Incr E (V) = 0.001
Amplitude (V) = 0.1
Frequency (Hz) = 150
Quiet Time (sec) = 0
Sensitivity (A/V) = 1e-6

Difference:

Forward:

Reverse:

Potential/V, Diff(i/A), For(i/A), Rev(i/A)

0.499, -4.849e-7, -1.258e-7, 3.591e-7
0.498, -5.932e-7, -2.838e-7, 3.094e-7
0.497, -5.902e-7, -2.964e-7, 2.938e-7
0.496, -5.841e-7, -3.000e-7, 2.841e-7
0.495, -5.807e-7, -3.037e-7, 2.770e-7
0.494, -5.758e-7, -3.043e-7, 2.715e-7
0.493, -5.731e-7, -3.046e-7, 2.685e-7
0.492, -5.716e-7, -3.067e-7, 2.648e-7
0.491, -5.719e-7, -3.104e-7, 2.615e-7
0.490, -5.691e-7, -3.092e-7, 2.599e-7
0.489, -5.667e-7, -3.101e-7, 2.566e-7
0.488, -5.670e-7, -3.119e-7, 2.551e-7
0.487, -5.664e-7, -3.116e-7, 2.548e-7
0.486, -5.639e-7, -3.125e-7, 2.514e-7
0.485, -5.658e-7, -3.141e-7, 2.517e-7
0.484, -5.655e-7, -3.128e-7, 2.526e-7
0.483, -5.658e-7, -3.156e-7, 2.502e-7
0.482, -5.645e-7, -3.165e-7, 2.480e-7
0.481, -5.645e-7, -3.153e-7, 2.493e-7
0.480, -5.636e-7, -3.168e-7, 2.468e-7
0.479, -5.633e-7, -3.165e-7, 2.468e-7
0.478, -5.624e-7, -3.162e-7, 2.462e-7
0.477, -5.627e-7, -3.183e-7, 2.444e-7
0.476, -5.639e-7, -3.186e-7, 2.453e-7
0.475, -5.615e-7, -3.174e-7, 2.441e-7
0.474, -5.621e-7, -3.196e-7, 2.426e-7
0.473, -5.618e-7, -3.196e-7, 2.422e-7
0.472, -5.627e-7, -3.183e-7, 2.444e-7
0.471, -5.609e-7, -3.199e-7, 2.410e-7
0.470, -5.636e-7, -3.223e-7, 2.413e-7
0.469, -5.633e-7, -3.205e-7, 2.429e-7
0.468, -5.609e-7, -3.205e-7, 2.404e-7
0.467, -5.621e-7, -3.223e-7, 2.398e-7
0.466, -5.621e-7, -3.211e-7, 2.410e-7
0.465, -5.615e-7, -3.223e-7, 2.392e-7
0.464, -5.633e-7, -3.232e-7, 2.401e-7
0.463, -5.627e-7, -3.229e-7, 2.398e-7
0.462, -5.618e-7, -3.232e-7, 2.386e-7
0.461, -5.630e-7, -3.238e-7, 2.392e-7
0.460, -5.648e-7, -3.244e-7, 2.404e-7
0.459, -5.606e-7, -3.241e-7, 2.364e-7
0.458, -5.655e-7, -3.269e-7, 2.386e-7
0.457, -5.639e-7, -3.250e-7, 2.389e-7
0.456, -5.606e-7, -3.247e-7, 2.358e-7
0.455, -5.658e-7, -3.287e-7, 2.371e-7
0.454, -5.655e-7, -3.266e-7, 2.389e-7
0.453, -5.636e-7, -3.269e-7, 2.368e-7
0.452, -5.664e-7, -3.284e-7, 2.380e-7
0.451, -5.648e-7, -3.272e-7, 2.377e-7
0.450, -5.642e-7, -3.284e-7, 2.358e-7
0.449, -5.661e-7, -3.299e-7, 2.361e-7
0.448, -5.658e-7, -3.284e-7, 2.374e-7
0.447, -5.661e-7, -3.296e-7, 2.364e-7
0.446, -5.685e-7, -3.321e-7, 2.364e-7
0.445, -5.673e-7, -3.293e-7, 2.380e-7
0.444, -5.648e-7, -3.293e-7, 2.355e-7
0.443, -5.658e-7, -3.315e-7, 2.343e-7
0.442, -5.679e-7, -3.318e-7, 2.361e-7
0.441, -5.700e-7, -3.324e-7, 2.377e-7
0.440, -5.694e-7, -3.330e-7, 2.364e-7
0.439, -5.682e-7, -3.324e-7, 2.358e-7
0.438, -5.691e-7, -3.324e-7, 2.368e-7
0.437, -5.697e-7, -3.345e-7, 2.352e-7
0.436, -5.706e-7, -3.342e-7, 2.364e-7
0.435, -5.691e-7, -3.342e-7, 2.349e-7
0.434, -5.710e-7, -3.354e-7, 2.355e-7
0.433, -5.731e-7, -3.351e-7, 2.380e-7
0.432, -5.703e-7, -3.354e-7, 2.349e-7
0.431, -5.713e-7, -3.360e-7, 2.352e-7
0.430, -5.722e-7, -3.366e-7, 2.355e-7
0.429, -5.719e-7, -3.360e-7, 2.358e-7
0.428, -5.722e-7, -3.376e-7, 2.346e-7
0.427, -5.725e-7, -3.379e-7, 2.346e-7
0.426, -5.731e-7, -3.379e-7, 2.352e-7
0.425, -5.737e-7, -3.388e-7, 2.349e-7
0.424, -5.758e-7, -3.409e-7, 2.349e-7
0.423, -5.767e-7, -3.403e-7, 2.364e-7
0.422, -5.767e-7, -3.412e-7, 2.355e-7
0.421, -5.761e-7, -3.409e-7, 2.352e-7
0.420, -5.771e-7, -3.412e-7, 2.358e-7
0.419, -5.767e-7, -3.418e-7, 2.349e-7
0.418, -5.777e-7, -3.424e-7, 2.352e-7
0.417, -5.777e-7, -3.424e-7, 2.352e-7
0.416, -5.780e-7, -3.434e-7, 2.346e-7
0.415, -5.783e-7, -3.437e-7, 2.346e-7
0.414, -5.798e-7, -3.437e-7, 2.361e-7
0.413, -5.789e-7, -3.443e-7, 2.346e-7
0.412, -5.810e-7, -3.458e-7, 2.352e-7
0.411, -5.819e-7, -3.455e-7, 2.364e-7
0.410, -5.813e-7, -3.452e-7, 2.361e-7
0.409, -5.822e-7, -3.470e-7, 2.352e-7
0.408, -5.819e-7, -3.455e-7, 2.364e-7
0.407, -5.816e-7, -3.470e-7, 2.346e-7
0.406, -5.835e-7, -3.488e-7, 2.346e-7
0.405, -5.841e-7, -3.470e-7, 2.371e-7
0.404, -5.835e-7, -3.479e-7, 2.355e-7
0.403, -5.844e-7, -3.492e-7, 2.352e-7
0.402, -5.862e-7, -3.501e-7, 2.361e-7
0.401, -5.859e-7, -3.504e-7, 2.355e-7
0.400, -5.865e-7, -3.504e-7, 2.361e-7
0.399, -5.871e-7, -3.510e-7, 2.361e-7
0.398, -5.874e-7, -3.513e-7, 2.361e-7
0.397, -5.893e-7, -3.525e-7, 2.368e-7
0.396, -5.899e-7, -3.525e-7, 2.374e-7
0.395, -5.902e-7, -3.531e-7, 2.371e-7
0.394, -5.890e-7, -3.534e-7, 2.355e-7
0.393, -5.896e-7, -3.531e-7, 2.364e-7
0.392, -5.902e-7, -3.537e-7, 2.364e-7
0.391, -5.908e-7, -3.546e-7, 2.361e-7
0.390, -5.935e-7, -3.562e-7, 2.374e-7
0.389, -5.932e-7, -3.559e-7, 2.374e-7
0.388, -5.951e-7, -3.568e-7, 2.383e-7
0.387, -5.944e-7, -3.559e-7, 2.386e-7
0.386, -5.938e-7, -3.580e-7, 2.358e-7
0.385, -5.957e-7, -3.583e-7, 2.374e-7
0.384, -5.969e-7, -3.595e-7, 2.374e-7
0.383, -5.969e-7, -3.592e-7, 2.377e-7
0.382, -5.978e-7, -3.601e-7, 2.377e-7
0.381, -5.981e-7, -3.598e-7, 2.383e-7
0.380, -5.996e-7, -3.611e-7, 2.386e-7
0.379, -6.018e-7, -3.626e-7, 2.392e-7
0.378, -5.996e-7, -3.617e-7, 2.380e-7
0.377, -6.002e-7, -3.614e-7, 2.389e-7
0.376, -6.036e-7, -3.644e-7, 2.392e-7
0.375, -6.015e-7, -3.626e-7, 2.389e-7
0.374, -6.030e-7, -3.635e-7, 2.395e-7
0.373, -6.045e-7, -3.650e-7, 2.395e-7
0.372, -6.063e-7, -3.659e-7, 2.404e-7
0.371, -6.060e-7, -3.656e-7, 2.404e-7
0.370, -6.045e-7, -3.659e-7, 2.386e-7
0.369, -6.063e-7, -3.669e-7, 2.395e-7
0.368, -6.073e-7, -3.678e-7, 2.395e-7
0.367, -6.073e-7, -3.675e-7, 2.398e-7
0.366, -6.088e-7, -3.684e-7, 2.404e-7
0.365, -6.097e-7, -3.693e-7, 2.404e-7
0.364, -6.103e-7, -3.702e-7, 2.401e-7
0.363, -6.106e-7, -3.699e-7, 2.407e-7
0.362, -6.112e-7, -3.699e-7, 2.413e-7
0.361, -6.103e-7, -3.708e-7, 2.395e-7
0.360, -6.137e-7, -3.723e-7, 2.413e-7
0.359, -6.128e-7, -3.726e-7, 2.401e-7
0.358, -6.140e-7, -3.733e-7, 2.407e-7
0.357, -6.146e-7, -3.739e-7, 2.407e-7
0.356, -6.149e-7, -3.739e-7, 2.410e-7
0.355, -6.161e-7, -3.754e-7, 2.407e-7
0.354, -6.186e-7, -3.757e-7, 2.429e-7
0.353, -6.189e-7, -3.757e-7, 2.432e-7
0.352, -6.195e-7, -3.763e-7, 2.432e-7
0.351, -6.216e-7, -3.784e-7, 2.432e-7
0.350, -6.198e-7, -3.772e-7, 2.425e-7
0.349, -6.210e-7, -3.788e-7, 2.422e-7
0.348, -6.219e-7, -3.794e-7, 2.425e-7
0.347, -6.222e-7, -3.788e-7, 2.435e-7
0.346, -6.250e-7, -3.800e-7, 2.450e-7
0.345, -6.240e-7, -3.803e-7, 2.438e-7
0.344, -6.259e-7, -3.809e-7, 2.450e-7
0.343, -6.271e-7, -3.830e-7, 2.441e-7
0.342, -6.271e-7, -3.827e-7, 2.444e-7
0.341, -6.268e-7, -3.818e-7, 2.450e-7
0.340, -6.274e-7, -3.836e-7, 2.438e-7
0.339, -6.274e-7, -3.836e-7, 2.438e-7
0.338, -6.292e-7, -3.836e-7, 2.456e-7
0.337, -6.311e-7, -3.852e-7, 2.459e-7
0.336, -6.332e-7, -3.867e-7, 2.465e-7
0.335, -6.344e-7, -3.864e-7, 2.480e-7
0.334, -6.320e-7, -3.864e-7, 2.456e-7
0.333, -6.344e-7, -3.876e-7, 2.468e-7
0.332, -6.344e-7, -3.867e-7, 2.477e-7
0.331, -6.356e-7, -3.897e-7, 2.459e-7
0.330, -6.372e-7, -3.907e-7, 2.465e-7
0.329, -6.384e-7, -3.897e-7, 2.487e-7
0.328, -6.372e-7, -3.916e-7, 2.456e-7
0.327, -6.390e-7, -3.916e-7, 2.474e-7
0.326, -6.421e-7, -3.925e-7, 2.496e-7
0.325, -6.433e-7, -3.934e-7, 2.499e-7
0.324, -6.430e-7, -3.946e-7, 2.483e-7
0.323, -6.457e-7, -3.958e-7, 2.499e-7
0.322, -6.445e-7, -3.949e-7, 2.496e-7
0.321, -6.460e-7, -3.971e-7, 2.490e-7
0.320, -6.463e-7, -3.955e-7, 2.508e-7
0.319, -6.463e-7, -3.965e-7, 2.499e-7
0.318, -6.482e-7, -3.989e-7, 2.493e-7
0.317, -6.497e-7, -3.983e-7, 2.514e-7
0.316, -6.506e-7, -3.989e-7, 2.517e-7
0.315, -6.512e-7, -4.007e-7, 2.505e-7
0.314, -6.530e-7, -4.010e-7, 2.520e-7
0.313, -6.536e-7, -4.010e-7, 2.526e-7
0.312, -6.543e-7, -4.026e-7, 2.517e-7
0.311, -6.573e-7, -4.035e-7, 2.538e-7
0.310, -6.555e-7, -4.026e-7, 2.529e-7
0.309, -6.570e-7, -4.044e-7, 2.526e-7
0.308, -6.576e-7, -4.035e-7, 2.541e-7
0.307, -6.594e-7, -4.041e-7, 2.554e-7
0.306, -6.604e-7, -4.068e-7, 2.535e-7
0.305, -6.613e-7, -4.056e-7, 2.557e-7
0.304, -6.616e-7, -4.068e-7, 2.548e-7
0.303, -6.625e-7, -4.084e-7, 2.541e-7
0.302, -6.668e-7, -4.105e-7, 2.563e-7
0.301, -6.649e-7, -4.093e-7, 2.557e-7
0.300, -6.677e-7, -4.123e-7, 2.554e-7
0.299, -6.689e-7, -4.117e-7, 2.572e-7
0.298, -6.686e-7, -4.117e-7, 2.569e-7
0.297, -6.701e-7, -4.135e-7, 2.566e-7
0.296, -6.710e-7, -4.132e-7, 2.578e-7
0.295, -6.717e-7, -4.132e-7, 2.584e-7
0.294, -6.741e-7, -4.157e-7, 2.584e-7
0.293, -6.741e-7, -4.157e-7, 2.584e-7
0.292, -6.744e-7, -4.148e-7, 2.596e-7
0.291, -6.768e-7, -4.175e-7, 2.593e-7
0.290, -6.771e-7, -4.172e-7, 2.599e-7
0.289, -6.775e-7, -4.178e-7, 2.596e-7
0.288, -6.784e-7, -4.190e-7, 2.593e-7
0.287, -6.808e-7, -4.203e-7, 2.606e-7
0.286, -6.802e-7, -4.184e-7, 2.618e-7
0.285, -6.829e-7, -4.221e-7, 2.609e-7
0.284, -6.839e-7, -4.218e-7, 2.621e-7
0.283, -6.842e-7, -4.218e-7, 2.624e-7
0.282, -6.854e-7, -4.236e-7, 2.618e-7
0.281, -6.881e-7, -4.242e-7, 2.639e-7
0.280, -6.887e-7, -4.245e-7, 2.642e-7
0.279, -6.897e-7, -4.261e-7, 2.636e-7
0.278, -6.909e-7, -4.264e-7, 2.645e-7
0.277, -6.909e-7, -4.264e-7, 2.645e-7
0.276, -6.921e-7, -4.282e-7, 2.639e-7
0.275, -6.961e-7, -4.294e-7, 2.667e-7
0.274, -6.942e-7, -4.285e-7, 2.657e-7
0.273, -6.973e-7, -4.315e-7, 2.657e-7
0.272, -6.985e-7, -4.306e-7, 2.679e-7
0.271, -6.979e-7, -4.312e-7, 2.667e-7
0.270, -6.988e-7, -4.325e-7, 2.664e-7
0.269, -7.009e-7, -4.331e-7, 2.679e-7
0.268, -7.016e-7, -4.334e-7, 2.682e-7
0.267, -7.016e-7, -4.343e-7, 2.673e-7
0.266, -7.055e-7, -4.364e-7, 2.691e-7
0.265, -7.058e-7, -4.364e-7, 2.694e-7
0.264, -7.067e-7, -4.373e-7, 2.694e-7
0.263, -7.080e-7, -4.389e-7, 2.691e-7
0.262, -7.089e-7, -4.383e-7, 2.706e-7
0.261, -7.092e-7, -4.398e-7, 2.694e-7
0.260, -7.135e-7, -4.410e-7, 2.725e-7
0.259, -7.135e-7, -4.416e-7, 2.718e-7
0.258, -7.168e-7, -4.441e-7, 2.728e-7
0.257, -7.147e-7, -4.428e-7, 2.718e-7
0.256, -7.162e-7, -4.434e-7, 2.728e-7
0.255, -7.174e-7, -4.450e-7, 2.725e-7
0.254, -7.202e-7, -4.450e-7, 2.752e-7
0.253, -7.211e-7, -4.465e-7, 2.746e-7
0.252, -7.223e-7, -4.471e-7, 2.752e-7
0.251, -7.238e-7, -4.489e-7, 2.749e-7
0.250, -7.244e-7, -4.483e-7, 2.761e-7
0.249, -7.260e-7, -4.489e-7, 2.770e-7
0.248, -7.275e-7, -4.517e-7, 2.758e-7
0.247, -7.284e-7, -4.517e-7, 2.767e-7
0.246, -7.305e-7, -4.523e-7, 2.783e-7
0.245, -7.299e-7, -4.529e-7, 2.770e-7
0.244, -7.330e-7, -4.544e-7, 2.786e-7
0.243, -7.324e-7, -4.544e-7, 2.779e-7
0.242, -7.339e-7, -4.557e-7, 2.783e-7
0.241, -7.363e-7, -4.572e-7, 2.792e-7
0.240, -7.382e-7, -4.578e-7, 2.804e-7
0.239, -7.391e-7, -4.590e-7, 2.801e-7
0.238, -7.415e-7, -4.602e-7, 2.813e-7
0.237, -7.415e-7, -4.596e-7, 2.819e-7
0.236, -7.412e-7, -4.602e-7, 2.810e-7
0.235, -7.440e-7, -4.618e-7, 2.822e-7
0.234, -7.464e-7, -4.630e-7, 2.834e-7
0.233, -7.455e-7, -4.630e-7, 2.825e-7
0.232, -7.501e-7, -4.654e-7, 2.847e-7
0.231, -7.504e-7, -4.660e-7, 2.844e-7
0.230, -7.504e-7, -4.669e-7, 2.834e-7
0.229, -7.550e-7, -4.676e-7, 2.874e-7
0.228, -7.528e-7, -4.685e-7, 2.844e-7
0.227, -7.537e-7, -4.688e-7, 2.850e-7
0.226, -7.568e-7, -4.697e-7, 2.871e-7
0.225, -7.577e-7, -4.703e-7, 2.874e-7
0.224, -7.595e-7, -4.724e-7, 2.871e-7
0.223, -7.605e-7, -4.724e-7, 2.880e-7
0.222, -7.623e-7, -4.734e-7, 2.889e-7
0.221, -7.629e-7, -4.734e-7, 2.895e-7
0.220, -7.659e-7, -4.764e-7, 2.895e-7
0.219, -7.653e-7, -4.755e-7, 2.898e-7
0.218, -7.681e-7, -4.776e-7, 2.905e-7
0.217, -7.714e-7, -4.785e-7, 2.929e-7
0.216, -7.690e-7, -4.785e-7, 2.905e-7
0.215, -7.721e-7, -4.801e-7, 2.920e-7
0.214, -7.748e-7, -4.807e-7, 2.941e-7
0.213, -7.742e-7, -4.810e-7, 2.932e-7
0.212, -7.763e-7, -4.822e-7, 2.941e-7
0.211, -7.769e-7, -4.831e-7, 2.938e-7
0.210, -7.800e-7, -4.843e-7, 2.956e-7
0.209, -7.812e-7, -4.859e-7, 2.953e-7
0.208, -7.815e-7, -4.853e-7, 2.963e-7
0.207, -7.843e-7, -4.874e-7, 2.969e-7
0.206, -7.849e-7, -4.874e-7, 2.975e-7
0.205, -7.882e-7, -4.898e-7, 2.984e-7
0.204, -7.879e-7, -4.904e-7, 2.975e-7
0.203, -7.897e-7, -4.911e-7, 2.987e-7
0.202, -7.922e-7, -4.923e-7, 2.999e-7
0.201, -7.925e-7, -4.923e-7, 3.002e-7
0.200, -7.949e-7, -4.947e-7, 3.002e-7
0.199, -7.952e-7, -4.944e-7, 3.008e-7
0.198, -7.962e-7, -4.953e-7, 3.008e-7
0.197, -7.989e-7, -4.969e-7, 3.021e-7
0.196, -8.001e-7, -4.981e-7, 3.021e-7
0.195, -8.026e-7, -4.990e-7, 3.036e-7
0.194, -8.041e-7, -4.990e-7, 3.051e-7
0.193, -8.044e-7, -5.008e-7, 3.036e-7
0.192, -8.062e-7, -5.011e-7, 3.051e-7
0.191, -8.078e-7, -5.023e-7, 3.054e-7
0.190, -8.084e-7, -5.030e-7, 3.054e-7
0.189, -8.114e-7, -5.048e-7, 3.066e-7
0.188, -8.132e-7, -5.051e-7, 3.082e-7
0.187, -8.145e-7, -5.060e-7, 3.085e-7
0.186, -8.160e-7, -5.069e-7, 3.091e-7
0.185, -8.175e-7, -5.078e-7, 3.097e-7
0.184, -8.178e-7, -5.094e-7, 3.085e-7
0.183, -8.197e-7, -5.088e-7, 3.109e-7
0.182, -8.212e-7, -5.109e-7, 3.103e-7
0.181, -8.221e-7, -5.112e-7, 3.109e-7
0.180, -8.258e-7, -5.130e-7, 3.127e-7
0.179, -8.255e-7, -5.127e-7, 3.127e-7
0.178, -8.276e-7, -5.139e-7, 3.136e-7
0.177, -8.297e-7, -5.158e-7, 3.140e-7
0.176, -8.319e-7, -5.170e-7, 3.149e-7
0.175, -8.334e-7, -5.176e-7, 3.158e-7
0.174, -8.343e-7, -5.185e-7, 3.158e-7
0.173, -8.349e-7, -5.185e-7, 3.164e-7
0.172, -8.374e-7, -5.200e-7, 3.173e-7
0.171, -8.377e-7, -5.210e-7, 3.167e-7
0.170, -8.401e-7, -5.207e-7, 3.194e-7
0.169, -8.422e-7, -5.231e-7, 3.191e-7
0.168, -8.422e-7, -5.234e-7, 3.188e-7
0.167, -8.453e-7, -5.234e-7, 3.219e-7
0.166, -8.456e-7, -5.252e-7, 3.204e-7
0.165, -8.486e-7, -5.261e-7, 3.225e-7
0.164, -8.496e-7, -5.271e-7, 3.225e-7
0.163, -8.496e-7, -5.277e-7, 3.219e-7
0.162, -8.523e-7, -5.289e-7, 3.234e-7
0.161, -8.541e-7, -5.292e-7, 3.249e-7
0.160, -8.551e-7, -5.298e-7, 3.252e-7
0.159, -8.575e-7, -5.316e-7, 3.259e-7
0.158, -8.581e-7, -5.319e-7, 3.262e-7
0.157, -8.602e-7, -5.335e-7, 3.268e-7
0.156, -8.612e-7, -5.344e-7, 3.268e-7
0.155, -8.621e-7, -5.335e-7, 3.286e-7
0.154, -8.621e-7, -5.341e-7, 3.280e-7
0.153, -8.657e-7, -5.365e-7, 3.292e-7
0.152, -8.676e-7, -5.368e-7, 3.307e-7
0.151, -8.691e-7, -5.384e-7, 3.307e-7
0.150, -8.728e-7, -5.405e-7, 3.323e-7
0.149, -8.721e-7, -5.396e-7, 3.326e-7
0.148, -8.731e-7, -5.408e-7, 3.323e-7
0.147, -8.764e-7, -5.426e-7, 3.338e-7
0.146, -8.761e-7, -5.414e-7, 3.347e-7
0.145, -8.770e-7, -5.429e-7, 3.341e-7
0.144, -8.779e-7, -5.435e-7, 3.344e-7
0.143, -8.816e-7, -5.442e-7, 3.375e-7
0.142, -8.804e-7, -5.454e-7, 3.350e-7
0.141, -8.840e-7, -5.466e-7, 3.375e-7
0.140, -8.843e-7, -5.463e-7, 3.381e-7
0.139, -8.865e-7, -5.478e-7, 3.387e-7
0.138, -8.871e-7, -5.490e-7, 3.381e-7
0.137, -8.895e-7, -5.487e-7, 3.408e-7
0.136, -8.892e-7, -5.496e-7, 3.396e-7
0.135, -8.908e-7, -5.506e-7, 3.402e-7
0.134, -8.935e-7, -5.515e-7, 3.420e-7
0.133, -8.950e-7, -5.533e-7, 3.417e-7
0.132, -8.962e-7, -5.533e-7, 3.429e-7
0.131, -8.969e-7, -5.527e-7, 3.442e-7
0.130, -8.969e-7, -5.539e-7, 3.429e-7
0.129, -9.008e-7, -5.554e-7, 3.454e-7
0.128, -9.002e-7, -5.554e-7, 3.448e-7
0.127, -9.005e-7, -5.567e-7, 3.439e-7
0.126, -9.048e-7, -5.582e-7, 3.466e-7
0.125, -9.048e-7, -5.573e-7, 3.475e-7
0.124, -9.066e-7, -5.588e-7, 3.478e-7
0.123, -9.088e-7, -5.603e-7, 3.484e-7
0.122, -9.085e-7, -5.585e-7, 3.500e-7
0.121, -9.097e-7, -5.597e-7, 3.500e-7
0.120, -9.136e-7, -5.625e-7, 3.512e-7
0.119, -9.127e-7, -5.606e-7, 3.521e-7
0.118, -9.136e-7, -5.618e-7, 3.518e-7
0.117, -9.176e-7, -5.640e-7, 3.536e-7
0.116, -9.179e-7, -5.634e-7, 3.545e-7
0.115, -9.176e-7, -5.643e-7, 3.533e-7
0.114, -9.207e-7, -5.652e-7, 3.555e-7
0.113, -9.210e-7, -5.655e-7, 3.555e-7
0.112, -9.204e-7, -5.646e-7, 3.558e-7
0.111, -9.240e-7, -5.673e-7, 3.567e-7
0.110, -9.240e-7, -5.661e-7, 3.579e-7
0.109, -9.255e-7, -5.673e-7, 3.582e-7
0.108, -9.274e-7, -5.683e-7, 3.591e-7
0.107, -9.277e-7, -5.680e-7, 3.597e-7
0.106, -9.286e-7, -5.689e-7, 3.597e-7
0.105, -9.320e-7, -5.707e-7, 3.613e-7
0.104, -9.323e-7, -5.701e-7, 3.622e-7
0.103, -9.326e-7, -5.710e-7, 3.616e-7
0.102, -9.335e-7, -5.716e-7, 3.619e-7
0.101, -9.359e-7, -5.716e-7, 3.643e-7
0.100, -9.347e-7, -5.710e-7, 3.637e-7
0.099, -9.365e-7, -5.728e-7, 3.637e-7
0.098, -9.396e-7, -5.734e-7, 3.661e-7
0.097, -9.408e-7, -5.747e-7, 3.661e-7
0.096, -9.405e-7, -5.744e-7, 3.661e-7
0.095, -9.420e-7, -5.734e-7, 3.686e-7
0.094, -9.411e-7, -5.738e-7, 3.674e-7
0.093, -9.445e-7, -5.756e-7, 3.689e-7
0.092, -9.457e-7, -5.756e-7, 3.701e-7
0.091, -9.451e-7, -5.762e-7, 3.689e-7
0.090, -9.463e-7, -5.756e-7, 3.707e-7
0.089, -9.475e-7, -5.759e-7, 3.716e-7
0.088, -9.481e-7, -5.762e-7, 3.719e-7
0.087, -9.490e-7, -5.771e-7, 3.719e-7
0.086, -9.500e-7, -5.771e-7, 3.728e-7
0.085, -9.509e-7, -5.780e-7, 3.728e-7
0.084, -9.524e-7, -5.783e-7, 3.741e-7
0.083, -9.536e-7, -5.780e-7, 3.756e-7
0.082, -9.536e-7, -5.780e-7, 3.756e-7
0.081, -9.530e-7, -5.789e-7, 3.741e-7
0.080, -9.551e-7, -5.783e-7, 3.768e-7
0.079, -9.564e-7, -5.802e-7, 3.762e-7
0.078, -9.561e-7, -5.795e-7, 3.765e-7
0.077, -9.594e-7, -5.805e-7, 3.790e-7
0.076, -9.588e-7, -5.789e-7, 3.799e-7
0.075, -9.597e-7, -5.805e-7, 3.793e-7
0.074, -9.603e-7, -5.805e-7, 3.799e-7
0.073, -9.616e-7, -5.811e-7, 3.805e-7
0.072, -9.603e-7, -5.805e-7, 3.799e-7
0.071, -9.622e-7, -5.808e-7, 3.814e-7
0.070, -9.612e-7, -5.799e-7, 3.814e-7
0.069, -9.622e-7, -5.802e-7, 3.820e-7
0.068, -9.634e-7, -5.814e-7, 3.820e-7
0.067, -9.652e-7, -5.817e-7, 3.835e-7
0.066, -9.649e-7, -5.814e-7, 3.835e-7
0.065, -9.658e-7, -5.817e-7, 3.841e-7
0.064, -9.652e-7, -5.805e-7, 3.848e-7
0.063, -9.667e-7, -5.811e-7, 3.857e-7
0.062, -9.680e-7, -5.817e-7, 3.863e-7
0.061, -9.667e-7, -5.802e-7, 3.866e-7
0.060, -9.683e-7, -5.811e-7, 3.872e-7
0.059, -9.692e-7, -5.823e-7, 3.869e-7
0.058, -9.689e-7, -5.808e-7, 3.881e-7
0.057, -9.689e-7, -5.805e-7, 3.884e-7
0.056, -9.713e-7, -5.817e-7, 3.896e-7
0.055, -9.704e-7, -5.805e-7, 3.899e-7
0.054, -9.698e-7, -5.802e-7, 3.896e-7
0.053, -9.695e-7, -5.799e-7, 3.896e-7
0.052, -9.707e-7, -5.795e-7, 3.912e-7
0.051, -9.719e-7, -5.805e-7, 3.915e-7
0.050, -9.725e-7, -5.808e-7, 3.918e-7
0.049, -9.731e-7, -5.805e-7, 3.927e-7
0.048, -9.707e-7, -5.795e-7, 3.912e-7
0.047, -9.741e-7, -5.802e-7, 3.939e-7
0.046, -9.744e-7, -5.802e-7, 3.942e-7
0.045, -9.725e-7, -5.795e-7, 3.930e-7
0.044, -9.735e-7, -5.795e-7, 3.939e-7
0.043, -9.738e-7, -5.789e-7, 3.948e-7
0.042, -9.731e-7, -5.789e-7, 3.942e-7
0.041, -9.753e-7, -5.792e-7, 3.960e-7
0.040, -9.738e-7, -5.789e-7, 3.948e-7
0.039, -9.738e-7, -5.777e-7, 3.960e-7
0.038, -9.753e-7, -5.783e-7, 3.970e-7
0.037, -9.747e-7, -5.777e-7, 3.970e-7
0.036, -9.744e-7, -5.774e-7, 3.970e-7
0.035, -9.731e-7, -5.771e-7, 3.960e-7
0.034, -9.750e-7, -5.771e-7, 3.979e-7
0.033, -9.744e-7, -5.762e-7, 3.982e-7
0.032, -9.750e-7, -5.774e-7, 3.976e-7
0.031, -9.753e-7, -5.762e-7, 3.991e-7
0.030, -9.731e-7, -5.747e-7, 3.985e-7
0.029, -9.747e-7, -5.753e-7, 3.994e-7
0.028, -9.744e-7, -5.750e-7, 3.994e-7
0.027, -9.731e-7, -5.734e-7, 3.997e-7
0.026, -9.750e-7, -5.747e-7, 4.003e-7
0.025, -9.738e-7, -5.731e-7, 4.006e-7
0.024, -9.741e-7, -5.738e-7, 4.003e-7
0.023, -9.719e-7, -5.716e-7, 4.003e-7
0.022, -9.731e-7, -5.722e-7, 4.009e-7
0.021, -9.728e-7, -5.716e-7, 4.012e-7
0.020, -9.731e-7, -5.722e-7, 4.009e-7
0.019, -9.725e-7, -5.701e-7, 4.024e-7
0.018, -9.719e-7, -5.695e-7, 4.024e-7
0.017, -9.707e-7, -5.692e-7, 4.015e-7
0.016, -9.725e-7, -5.692e-7, 4.034e-7
0.015, -9.710e-7, -5.689e-7, 4.021e-7
0.014, -9.701e-7, -5.676e-7, 4.024e-7
0.013, -9.698e-7, -5.670e-7, 4.028e-7
0.012, -9.701e-7, -5.673e-7, 4.028e-7
0.011, -9.710e-7, -5.667e-7, 4.043e-7
0.010, -9.695e-7, -5.661e-7, 4.034e-7
0.009, -9.701e-7, -5.652e-7, 4.049e-7
0.008, -9.667e-7, -5.637e-7, 4.031e-7
0.007, -9.695e-7, -5.646e-7, 4.049e-7
0.006, -9.683e-7, -5.640e-7, 4.043e-7
0.005, -9.658e-7, -5.619e-7, 4.040e-7
0.004, -9.661e-7, -5.622e-7, 4.040e-7
0.003, -9.664e-7, -5.609e-7, 4.055e-7
0.002, -9.664e-7, -5.622e-7, 4.043e-7
0.001, -9.655e-7, -5.603e-7, 4.052e-7
-0.000, -9.637e-7, -5.588e-7, 4.049e-7
-0.001, -9.628e-7, -5.585e-7, 4.043e-7
-0.002, -9.634e-7, -5.591e-7, 4.043e-7
-0.003, -9.637e-7, -5.573e-7, 4.064e-7
-0.004, -9.609e-7, -5.567e-7, 4.043e-7
-0.005, -9.625e-7, -5.573e-7, 4.052e-7
-0.006, -9.597e-7, -5.548e-7, 4.049e-7
-0.007, -9.606e-7, -5.548e-7, 4.058e-7
-0.008, -9.591e-7, -5.545e-7, 4.046e-7
-0.009, -9.606e-7, -5.542e-7, 4.064e-7
-0.010, -9.567e-7, -5.527e-7, 4.040e-7
-0.011, -9.591e-7, -5.533e-7, 4.058e-7
-0.012, -9.582e-7, -5.524e-7, 4.058e-7
-0.013, -9.573e-7, -5.512e-7, 4.061e-7
-0.014, -9.567e-7, -5.512e-7, 4.055e-7
-0.015, -9.573e-7, -5.499e-7, 4.073e-7
-0.016, -9.545e-7, -5.490e-7, 4.055e-7
-0.017, -9.521e-7, -5.487e-7, 4.034e-7
-0.018, -9.527e-7, -5.478e-7, 4.049e-7
-0.019, -9.521e-7, -5.469e-7, 4.052e-7
-0.020, -9.524e-7, -5.478e-7, 4.046e-7
-0.021, -9.512e-7, -5.460e-7, 4.052e-7
-0.022, -9.487e-7, -5.445e-7, 4.043e-7
-0.023, -9.493e-7, -5.454e-7, 4.040e-7
-0.024, -9.493e-7, -5.438e-7, 4.055e-7
-0.025, -9.472e-7, -5.429e-7, 4.043e-7
-0.026, -9.472e-7, -5.432e-7, 4.040e-7
-0.027, -9.454e-7, -5.420e-7, 4.034e-7
-0.028, -9.432e-7, -5.405e-7, 4.028e-7
-0.029, -9.460e-7, -5.414e-7, 4.046e-7
-0.030, -9.454e-7, -5.405e-7, 4.049e-7
-0.031, -9.432e-7, -5.387e-7, 4.046e-7
-0.032, -9.417e-7, -5.393e-7, 4.024e-7
-0.033, -9.414e-7, -5.371e-7, 4.043e-7
-0.034, -9.390e-7, -5.356e-7, 4.034e-7
-0.035, -9.390e-7, -5.362e-7, 4.028e-7
-0.036, -9.411e-7, -5.362e-7, 4.049e-7
-0.037, -9.368e-7, -5.341e-7, 4.028e-7
-0.038, -9.365e-7, -5.344e-7, 4.021e-7
-0.039, -9.374e-7, -5.341e-7, 4.034e-7
-0.040, -9.365e-7, -5.335e-7, 4.031e-7
-0.041, -9.353e-7, -5.329e-7, 4.024e-7
-0.042, -9.356e-7, -5.326e-7, 4.031e-7
-0.043, -9.326e-7, -5.304e-7, 4.021e-7
-0.044, -9.338e-7, -5.323e-7, 4.015e-7
-0.045, -9.320e-7, -5.292e-7, 4.028e-7
-0.046, -9.292e-7, -5.280e-7, 4.012e-7
-0.047, -9.307e-7, -5.295e-7, 4.012e-7
-0.048, -9.292e-7, -5.277e-7, 4.015e-7
-0.049, -9.280e-7, -5.261e-7, 4.018e-7
-0.050, -9.268e-7, -5.261e-7, 4.006e-7
