Mar. 20, 2018   15:10:23
Square Wave Voltammetry
File: c:\users\electrochemist\desktop\2018\20032018_unbufarray_unpap\42_g1_ph7,46_3.txt
Data Source:  Experiment
Instrument Model:  CHI1040A
Header: 
Note: 

Init E (V) = 0.7
Final E (V) = -0.4
Incr E (V) = 0.001
Amplitude (V) = 0.1
Frequency (Hz) = 152
Quiet Time (sec) = 2
Sensitivity (A/V) = 1e-6

Difference:

Forward:

Reverse:

Potential/V, Diff(i/A), For(i/A), Rev(i/A)

0.699, -8.566e-7, -2.347e-7, 6.219e-7
0.698, -1.085e-6, -5.292e-7, 5.553e-7
0.697, -1.090e-6, -5.463e-7, 5.434e-7
0.696, -1.089e-6, -5.499e-7, 5.395e-7
0.695, -1.085e-6, -5.527e-7, 5.325e-7
0.694, -1.083e-6, -5.539e-7, 5.294e-7
0.693, -1.081e-6, -5.545e-7, 5.263e-7
0.692, -1.078e-6, -5.548e-7, 5.236e-7
0.691, -1.076e-6, -5.548e-7, 5.215e-7
0.690, -1.075e-6, -5.557e-7, 5.190e-7
0.689, -1.074e-6, -5.570e-7, 5.169e-7
0.688, -1.072e-6, -5.567e-7, 5.151e-7
0.687, -1.069e-6, -5.533e-7, 5.160e-7
0.686, -1.068e-6, -5.576e-7, 5.108e-7
0.685, -1.068e-6, -5.564e-7, 5.114e-7
0.684, -1.066e-6, -5.557e-7, 5.102e-7
0.683, -1.066e-6, -5.588e-7, 5.074e-7
0.682, -1.068e-6, -5.582e-7, 5.096e-7
0.681, -1.062e-6, -5.567e-7, 5.053e-7
0.680, -1.063e-6, -5.579e-7, 5.053e-7
0.679, -1.060e-6, -5.573e-7, 5.029e-7
0.678, -1.059e-6, -5.567e-7, 5.025e-7
0.677, -1.060e-6, -5.603e-7, 5.001e-7
0.676, -1.057e-6, -5.560e-7, 5.010e-7
0.675, -1.058e-6, -5.594e-7, 4.986e-7
0.674, -1.059e-6, -5.612e-7, 4.974e-7
0.673, -1.059e-6, -5.579e-7, 5.007e-7
0.672, -1.052e-6, -5.585e-7, 4.940e-7
0.671, -1.058e-6, -5.628e-7, 4.949e-7
0.670, -1.050e-6, -5.557e-7, 4.940e-7
0.669, -1.049e-6, -5.588e-7, 4.906e-7
0.668, -1.053e-6, -5.609e-7, 4.922e-7
0.667, -1.049e-6, -5.570e-7, 4.922e-7
0.666, -1.049e-6, -5.591e-7, 4.897e-7
0.665, -1.049e-6, -5.597e-7, 4.894e-7
0.664, -1.049e-6, -5.588e-7, 4.903e-7
0.663, -1.046e-6, -5.603e-7, 4.861e-7
0.662, -1.049e-6, -5.597e-7, 4.891e-7
0.661, -1.047e-6, -5.585e-7, 4.885e-7
0.660, -1.047e-6, -5.621e-7, 4.852e-7
0.659, -1.047e-6, -5.621e-7, 4.848e-7
0.658, -1.046e-6, -5.600e-7, 4.861e-7
0.657, -1.046e-6, -5.628e-7, 4.836e-7
0.656, -1.046e-6, -5.628e-7, 4.830e-7
0.655, -1.043e-6, -5.609e-7, 4.818e-7
0.654, -1.044e-6, -5.621e-7, 4.818e-7
0.653, -1.042e-6, -5.585e-7, 4.836e-7
0.652, -1.040e-6, -5.606e-7, 4.794e-7
0.651, -1.042e-6, -5.637e-7, 4.781e-7
0.650, -1.042e-6, -5.603e-7, 4.815e-7
0.649, -1.037e-6, -5.603e-7, 4.769e-7
0.648, -1.040e-6, -5.628e-7, 4.775e-7
0.647, -1.039e-6, -5.600e-7, 4.790e-7
0.646, -1.039e-6, -5.640e-7, 4.748e-7
0.645, -1.040e-6, -5.634e-7, 4.763e-7
0.644, -1.034e-6, -5.600e-7, 4.739e-7
0.643, -1.036e-6, -5.643e-7, 4.714e-7
0.642, -1.040e-6, -5.640e-7, 4.757e-7
0.641, -1.038e-6, -5.618e-7, 4.766e-7
0.640, -1.038e-6, -5.652e-7, 4.726e-7
0.639, -1.036e-6, -5.637e-7, 4.720e-7
0.638, -1.037e-6, -5.631e-7, 4.736e-7
0.637, -1.039e-6, -5.664e-7, 4.726e-7
0.636, -1.038e-6, -5.646e-7, 4.729e-7
0.635, -1.036e-6, -5.640e-7, 4.723e-7
0.634, -1.037e-6, -5.676e-7, 4.690e-7
0.633, -1.038e-6, -5.652e-7, 4.723e-7
0.632, -1.035e-6, -5.652e-7, 4.699e-7
0.631, -1.034e-6, -5.670e-7, 4.668e-7
0.630, -1.036e-6, -5.643e-7, 4.714e-7
0.629, -1.037e-6, -5.683e-7, 4.687e-7
0.628, -1.039e-6, -5.683e-7, 4.711e-7
0.627, -1.036e-6, -5.670e-7, 4.687e-7
0.626, -1.036e-6, -5.676e-7, 4.681e-7
0.625, -1.038e-6, -5.679e-7, 4.699e-7
0.624, -1.035e-6, -5.673e-7, 4.681e-7
0.623, -1.036e-6, -5.710e-7, 4.653e-7
0.622, -1.038e-6, -5.689e-7, 4.693e-7
0.621, -1.037e-6, -5.713e-7, 4.653e-7
0.620, -1.039e-6, -5.731e-7, 4.662e-7
0.619, -1.039e-6, -5.707e-7, 4.687e-7
0.618, -1.037e-6, -5.695e-7, 4.675e-7
0.617, -1.037e-6, -5.719e-7, 4.653e-7
0.616, -1.039e-6, -5.725e-7, 4.668e-7
0.615, -1.040e-6, -5.719e-7, 4.678e-7
0.614, -1.036e-6, -5.728e-7, 4.635e-7
0.613, -1.042e-6, -5.744e-7, 4.681e-7
0.612, -1.036e-6, -5.704e-7, 4.659e-7
0.611, -1.040e-6, -5.762e-7, 4.638e-7
0.610, -1.041e-6, -5.744e-7, 4.662e-7
0.609, -1.042e-6, -5.753e-7, 4.662e-7
0.608, -1.041e-6, -5.765e-7, 4.641e-7
0.607, -1.038e-6, -5.750e-7, 4.635e-7
0.606, -1.041e-6, -5.759e-7, 4.647e-7
0.605, -1.043e-6, -5.777e-7, 4.653e-7
0.604, -1.040e-6, -5.759e-7, 4.644e-7
0.603, -1.042e-6, -5.765e-7, 4.653e-7
0.602, -1.044e-6, -5.789e-7, 4.650e-7
0.601, -1.044e-6, -5.780e-7, 4.662e-7
0.600, -1.042e-6, -5.789e-7, 4.626e-7
0.599, -1.046e-6, -5.798e-7, 4.665e-7
0.598, -1.044e-6, -5.795e-7, 4.641e-7
0.597, -1.048e-6, -5.808e-7, 4.675e-7
0.596, -1.047e-6, -5.808e-7, 4.659e-7
0.595, -1.048e-6, -5.829e-7, 4.650e-7
0.594, -1.048e-6, -5.829e-7, 4.647e-7
0.593, -1.050e-6, -5.841e-7, 4.659e-7
0.592, -1.049e-6, -5.847e-7, 4.641e-7
0.591, -1.050e-6, -5.844e-7, 4.659e-7
0.590, -1.051e-6, -5.841e-7, 4.665e-7
0.589, -1.047e-6, -5.844e-7, 4.626e-7
0.588, -1.053e-6, -5.863e-7, 4.665e-7
0.587, -1.050e-6, -5.850e-7, 4.653e-7
0.586, -1.048e-6, -5.853e-7, 4.629e-7
0.585, -1.051e-6, -5.863e-7, 4.650e-7
0.584, -1.052e-6, -5.863e-7, 4.656e-7
0.583, -1.052e-6, -5.890e-7, 4.629e-7
0.582, -1.053e-6, -5.887e-7, 4.641e-7
0.581, -1.050e-6, -5.875e-7, 4.629e-7
0.580, -1.054e-6, -5.902e-7, 4.635e-7
0.579, -1.056e-6, -5.911e-7, 4.653e-7
0.578, -1.056e-6, -5.908e-7, 4.653e-7
0.577, -1.054e-6, -5.918e-7, 4.626e-7
0.576, -1.056e-6, -5.899e-7, 4.656e-7
0.575, -1.055e-6, -5.911e-7, 4.635e-7
0.574, -1.062e-6, -5.951e-7, 4.668e-7
0.573, -1.057e-6, -5.924e-7, 4.650e-7
0.572, -1.052e-6, -5.908e-7, 4.610e-7
0.571, -1.054e-6, -5.930e-7, 4.613e-7
0.570, -1.057e-6, -5.905e-7, 4.662e-7
0.569, -1.056e-6, -5.942e-7, 4.617e-7
0.568, -1.062e-6, -5.954e-7, 4.662e-7
0.567, -1.061e-6, -5.933e-7, 4.678e-7
0.566, -1.055e-6, -5.933e-7, 4.620e-7
0.565, -1.059e-6, -5.966e-7, 4.626e-7
0.564, -1.059e-6, -5.960e-7, 4.626e-7
0.563, -1.060e-6, -5.963e-7, 4.635e-7
0.562, -1.065e-6, -5.997e-7, 4.656e-7
0.561, -1.063e-6, -5.969e-7, 4.659e-7
0.560, -1.063e-6, -5.985e-7, 4.644e-7
0.559, -1.066e-6, -6.015e-7, 4.644e-7
0.558, -1.066e-6, -5.994e-7, 4.662e-7
0.557, -1.063e-6, -5.988e-7, 4.641e-7
0.556, -1.071e-6, -6.027e-7, 4.681e-7
0.555, -1.063e-6, -6.006e-7, 4.623e-7
0.554, -1.067e-6, -6.021e-7, 4.644e-7
0.553, -1.067e-6, -6.012e-7, 4.656e-7
0.552, -1.065e-6, -6.012e-7, 4.638e-7
0.551, -1.067e-6, -6.030e-7, 4.635e-7
0.550, -1.068e-6, -6.052e-7, 4.629e-7
0.549, -1.066e-6, -6.033e-7, 4.626e-7
0.548, -1.066e-6, -6.021e-7, 4.641e-7
0.547, -1.068e-6, -6.049e-7, 4.632e-7
0.546, -1.070e-6, -6.061e-7, 4.638e-7
0.545, -1.072e-6, -6.058e-7, 4.665e-7
0.544, -1.071e-6, -6.058e-7, 4.653e-7
0.543, -1.068e-6, -6.058e-7, 4.623e-7
0.542, -1.071e-6, -6.079e-7, 4.629e-7
0.541, -1.068e-6, -6.055e-7, 4.629e-7
0.540, -1.074e-6, -6.107e-7, 4.635e-7
0.539, -1.072e-6, -6.070e-7, 4.647e-7
0.538, -1.074e-6, -6.095e-7, 4.641e-7
0.537, -1.073e-6, -6.104e-7, 4.626e-7
0.536, -1.077e-6, -6.104e-7, 4.662e-7
0.535, -1.072e-6, -6.082e-7, 4.641e-7
0.534, -1.076e-6, -6.113e-7, 4.650e-7
0.533, -1.078e-6, -6.116e-7, 4.668e-7
0.532, -1.075e-6, -6.098e-7, 4.656e-7
0.531, -1.079e-6, -6.140e-7, 4.647e-7
0.530, -1.078e-6, -6.122e-7, 4.659e-7
0.529, -1.073e-6, -6.122e-7, 4.607e-7
0.528, -1.080e-6, -6.156e-7, 4.641e-7
0.527, -1.081e-6, -6.134e-7, 4.678e-7
0.526, -1.080e-6, -6.156e-7, 4.644e-7
0.525, -1.084e-6, -6.183e-7, 4.653e-7
0.524, -1.084e-6, -6.174e-7, 4.668e-7
0.523, -1.082e-6, -6.189e-7, 4.632e-7
0.522, -1.089e-6, -6.201e-7, 4.690e-7
0.521, -1.083e-6, -6.171e-7, 4.659e-7
0.520, -1.086e-6, -6.207e-7, 4.656e-7
0.519, -1.089e-6, -6.189e-7, 4.699e-7
0.518, -1.089e-6, -6.195e-7, 4.696e-7
0.517, -1.089e-6, -6.229e-7, 4.665e-7
0.516, -1.093e-6, -6.238e-7, 4.696e-7
0.515, -1.090e-6, -6.210e-7, 4.690e-7
0.514, -1.095e-6, -6.271e-7, 4.681e-7
0.513, -1.096e-6, -6.247e-7, 4.714e-7
0.512, -1.091e-6, -6.235e-7, 4.678e-7
0.511, -1.096e-6, -6.278e-7, 4.681e-7
0.510, -1.099e-6, -6.271e-7, 4.717e-7
0.509, -1.093e-6, -6.244e-7, 4.687e-7
0.508, -1.098e-6, -6.299e-7, 4.678e-7
0.507, -1.100e-6, -6.290e-7, 4.708e-7
0.506, -1.099e-6, -6.290e-7, 4.702e-7
0.505, -1.100e-6, -6.308e-7, 4.690e-7
0.504, -1.104e-6, -6.311e-7, 4.733e-7
0.503, -1.103e-6, -6.320e-7, 4.714e-7
0.502, -1.104e-6, -6.333e-7, 4.705e-7
0.501, -1.106e-6, -6.342e-7, 4.717e-7
0.500, -1.106e-6, -6.354e-7, 4.705e-7
0.499, -1.107e-6, -6.357e-7, 4.711e-7
0.498, -1.109e-6, -6.354e-7, 4.739e-7
0.497, -1.107e-6, -6.348e-7, 4.717e-7
0.496, -1.109e-6, -6.369e-7, 4.723e-7
0.495, -1.112e-6, -6.378e-7, 4.745e-7
0.494, -1.114e-6, -6.400e-7, 4.736e-7
0.493, -1.114e-6, -6.381e-7, 4.754e-7
0.492, -1.115e-6, -6.403e-7, 4.745e-7
0.491, -1.119e-6, -6.439e-7, 4.751e-7
0.490, -1.119e-6, -6.427e-7, 4.760e-7
0.489, -1.117e-6, -6.415e-7, 4.760e-7
0.488, -1.120e-6, -6.448e-7, 4.748e-7
0.487, -1.122e-6, -6.439e-7, 4.778e-7
0.486, -1.120e-6, -6.439e-7, 4.760e-7
0.485, -1.125e-6, -6.470e-7, 4.784e-7
0.484, -1.123e-6, -6.470e-7, 4.763e-7
0.483, -1.125e-6, -6.473e-7, 4.778e-7
0.482, -1.127e-6, -6.497e-7, 4.772e-7
0.481, -1.128e-6, -6.482e-7, 4.800e-7
0.480, -1.128e-6, -6.497e-7, 4.778e-7
0.479, -1.127e-6, -6.497e-7, 4.775e-7
0.478, -1.134e-6, -6.525e-7, 4.812e-7
0.477, -1.131e-6, -6.516e-7, 4.797e-7
0.476, -1.132e-6, -6.519e-7, 4.800e-7
0.475, -1.130e-6, -6.510e-7, 4.794e-7
0.474, -1.134e-6, -6.552e-7, 4.787e-7
0.473, -1.135e-6, -6.558e-7, 4.797e-7
0.472, -1.133e-6, -6.540e-7, 4.794e-7
0.471, -1.139e-6, -6.580e-7, 4.815e-7
0.470, -1.138e-6, -6.571e-7, 4.812e-7
0.469, -1.136e-6, -6.571e-7, 4.787e-7
0.468, -1.140e-6, -6.607e-7, 4.794e-7
0.467, -1.142e-6, -6.595e-7, 4.827e-7
0.466, -1.142e-6, -6.610e-7, 4.812e-7
0.465, -1.147e-6, -6.629e-7, 4.842e-7
0.464, -1.143e-6, -6.595e-7, 4.839e-7
0.463, -1.143e-6, -6.629e-7, 4.803e-7
0.462, -1.148e-6, -6.644e-7, 4.836e-7
0.461, -1.146e-6, -6.616e-7, 4.848e-7
0.460, -1.147e-6, -6.650e-7, 4.818e-7
0.459, -1.150e-6, -6.647e-7, 4.858e-7
0.458, -1.149e-6, -6.638e-7, 4.855e-7
0.457, -1.150e-6, -6.659e-7, 4.839e-7
0.456, -1.156e-6, -6.696e-7, 4.864e-7
0.455, -1.152e-6, -6.671e-7, 4.845e-7
0.454, -1.152e-6, -6.702e-7, 4.821e-7
0.453, -1.157e-6, -6.705e-7, 4.864e-7
0.452, -1.157e-6, -6.717e-7, 4.852e-7
0.451, -1.161e-6, -6.741e-7, 4.864e-7
0.450, -1.162e-6, -6.741e-7, 4.876e-7
0.449, -1.161e-6, -6.723e-7, 4.882e-7
0.448, -1.161e-6, -6.738e-7, 4.873e-7
0.447, -1.162e-6, -6.744e-7, 4.876e-7
0.446, -1.163e-6, -6.757e-7, 4.873e-7
0.445, -1.165e-6, -6.760e-7, 4.888e-7
0.444, -1.164e-6, -6.763e-7, 4.876e-7
0.443, -1.167e-6, -6.781e-7, 4.888e-7
0.442, -1.165e-6, -6.778e-7, 4.876e-7
0.441, -1.168e-6, -6.772e-7, 4.909e-7
0.440, -1.167e-6, -6.787e-7, 4.879e-7
0.439, -1.169e-6, -6.799e-7, 4.888e-7
0.438, -1.172e-6, -6.815e-7, 4.906e-7
0.437, -1.174e-6, -6.821e-7, 4.919e-7
0.436, -1.174e-6, -6.818e-7, 4.919e-7
0.435, -1.175e-6, -6.824e-7, 4.931e-7
0.434, -1.177e-6, -6.860e-7, 4.909e-7
0.433, -1.179e-6, -6.864e-7, 4.922e-7
0.432, -1.178e-6, -6.860e-7, 4.922e-7
0.431, -1.179e-6, -6.879e-7, 4.906e-7
0.430, -1.182e-6, -6.879e-7, 4.940e-7
0.429, -1.180e-6, -6.873e-7, 4.928e-7
0.428, -1.184e-6, -6.891e-7, 4.946e-7
0.427, -1.185e-6, -6.900e-7, 4.949e-7
0.426, -1.186e-6, -6.906e-7, 4.958e-7
0.425, -1.187e-6, -6.937e-7, 4.937e-7
0.424, -1.189e-6, -6.931e-7, 4.955e-7
0.423, -1.186e-6, -6.921e-7, 4.937e-7
0.422, -1.191e-6, -6.964e-7, 4.943e-7
0.421, -1.193e-6, -6.946e-7, 4.986e-7
0.420, -1.193e-6, -6.976e-7, 4.952e-7
0.419, -1.194e-6, -6.964e-7, 4.980e-7
0.418, -1.196e-6, -6.970e-7, 4.989e-7
0.417, -1.199e-6, -7.001e-7, 4.986e-7
0.416, -1.200e-6, -7.010e-7, 4.995e-7
0.415, -1.201e-6, -7.007e-7, 5.001e-7
0.414, -1.202e-6, -7.031e-7, 4.989e-7
0.413, -1.204e-6, -7.031e-7, 5.010e-7
0.412, -1.203e-6, -7.028e-7, 4.998e-7
0.411, -1.207e-6, -7.071e-7, 4.998e-7
0.410, -1.211e-6, -7.065e-7, 5.041e-7
0.409, -1.210e-6, -7.074e-7, 5.025e-7
0.408, -1.210e-6, -7.098e-7, 4.998e-7
0.407, -1.211e-6, -7.068e-7, 5.047e-7
0.406, -1.214e-6, -7.092e-7, 5.044e-7
0.405, -1.217e-6, -7.132e-7, 5.035e-7
0.404, -1.219e-6, -7.126e-7, 5.065e-7
0.403, -1.217e-6, -7.132e-7, 5.041e-7
0.402, -1.223e-6, -7.166e-7, 5.065e-7
0.401, -1.219e-6, -7.141e-7, 5.050e-7
0.400, -1.222e-6, -7.150e-7, 5.068e-7
0.399, -1.224e-6, -7.175e-7, 5.062e-7
0.398, -1.229e-6, -7.172e-7, 5.120e-7
0.397, -1.227e-6, -7.199e-7, 5.071e-7
0.396, -1.227e-6, -7.187e-7, 5.083e-7
0.395, -1.229e-6, -7.202e-7, 5.086e-7
0.394, -1.232e-6, -7.221e-7, 5.102e-7
0.393, -1.234e-6, -7.227e-7, 5.111e-7
0.392, -1.235e-6, -7.230e-7, 5.123e-7
0.391, -1.237e-6, -7.242e-7, 5.126e-7
0.390, -1.238e-6, -7.245e-7, 5.132e-7
0.389, -1.239e-6, -7.263e-7, 5.123e-7
0.388, -1.241e-6, -7.285e-7, 5.126e-7
0.387, -1.242e-6, -7.263e-7, 5.154e-7
0.386, -1.243e-6, -7.291e-7, 5.135e-7
0.385, -1.246e-6, -7.312e-7, 5.148e-7
0.384, -1.247e-6, -7.306e-7, 5.166e-7
0.383, -1.246e-6, -7.318e-7, 5.144e-7
0.382, -1.249e-6, -7.346e-7, 5.141e-7
0.381, -1.253e-6, -7.340e-7, 5.190e-7
0.380, -1.252e-6, -7.364e-7, 5.160e-7
0.379, -1.255e-6, -7.367e-7, 5.181e-7
0.378, -1.259e-6, -7.382e-7, 5.212e-7
0.377, -1.259e-6, -7.401e-7, 5.187e-7
0.376, -1.264e-6, -7.428e-7, 5.215e-7
0.375, -1.262e-6, -7.394e-7, 5.230e-7
0.374, -1.261e-6, -7.413e-7, 5.193e-7
0.373, -1.266e-6, -7.434e-7, 5.227e-7
0.372, -1.268e-6, -7.437e-7, 5.242e-7
0.371, -1.268e-6, -7.456e-7, 5.224e-7
0.370, -1.270e-6, -7.459e-7, 5.239e-7
0.369, -1.273e-6, -7.462e-7, 5.263e-7
0.368, -1.274e-6, -7.486e-7, 5.254e-7
0.367, -1.276e-6, -7.492e-7, 5.273e-7
0.366, -1.273e-6, -7.498e-7, 5.233e-7
0.365, -1.279e-6, -7.529e-7, 5.263e-7
0.364, -1.281e-6, -7.517e-7, 5.291e-7
0.363, -1.280e-6, -7.532e-7, 5.263e-7
0.362, -1.284e-6, -7.562e-7, 5.276e-7
0.361, -1.283e-6, -7.538e-7, 5.291e-7
0.360, -1.284e-6, -7.556e-7, 5.285e-7
0.359, -1.287e-6, -7.581e-7, 5.291e-7
0.358, -1.284e-6, -7.553e-7, 5.285e-7
0.357, -1.288e-6, -7.596e-7, 5.288e-7
0.356, -1.291e-6, -7.611e-7, 5.303e-7
0.355, -1.290e-6, -7.590e-7, 5.306e-7
0.354, -1.292e-6, -7.626e-7, 5.294e-7
0.353, -1.300e-6, -7.654e-7, 5.349e-7
0.352, -1.298e-6, -7.626e-7, 5.352e-7
0.351, -1.297e-6, -7.648e-7, 5.318e-7
0.350, -1.300e-6, -7.666e-7, 5.331e-7
0.349, -1.301e-6, -7.660e-7, 5.355e-7
0.348, -1.303e-6, -7.694e-7, 5.337e-7
0.347, -1.305e-6, -7.694e-7, 5.355e-7
0.346, -1.303e-6, -7.669e-7, 5.364e-7
0.345, -1.309e-6, -7.724e-7, 5.370e-7
0.344, -1.309e-6, -7.724e-7, 5.364e-7
0.343, -1.308e-6, -7.721e-7, 5.355e-7
0.342, -1.311e-6, -7.739e-7, 5.367e-7
0.341, -1.314e-6, -7.752e-7, 5.386e-7
0.340, -1.312e-6, -7.736e-7, 5.382e-7
0.339, -1.316e-6, -7.776e-7, 5.389e-7
0.338, -1.316e-6, -7.758e-7, 5.404e-7
0.337, -1.318e-6, -7.788e-7, 5.395e-7
0.336, -1.321e-6, -7.800e-7, 5.413e-7
0.335, -1.323e-6, -7.794e-7, 5.437e-7
0.334, -1.325e-6, -7.822e-7, 5.428e-7
0.333, -1.326e-6, -7.819e-7, 5.440e-7
0.332, -1.326e-6, -7.828e-7, 5.428e-7
0.331, -1.329e-6, -7.849e-7, 5.437e-7
0.330, -1.330e-6, -7.861e-7, 5.440e-7
0.329, -1.332e-6, -7.861e-7, 5.462e-7
0.328, -1.335e-6, -7.898e-7, 5.453e-7
0.327, -1.335e-6, -7.877e-7, 5.471e-7
0.326, -1.336e-6, -7.898e-7, 5.459e-7
0.325, -1.340e-6, -7.941e-7, 5.456e-7
0.324, -1.341e-6, -7.925e-7, 5.483e-7
0.323, -1.341e-6, -7.935e-7, 5.477e-7
0.322, -1.346e-6, -7.962e-7, 5.501e-7
0.321, -1.348e-6, -7.947e-7, 5.532e-7
0.320, -1.348e-6, -7.962e-7, 5.517e-7
0.319, -1.350e-6, -7.990e-7, 5.514e-7
0.318, -1.353e-6, -7.996e-7, 5.538e-7
0.317, -1.353e-6, -8.008e-7, 5.526e-7
0.316, -1.358e-6, -8.035e-7, 5.547e-7
0.315, -1.355e-6, -8.026e-7, 5.526e-7
0.314, -1.355e-6, -8.023e-7, 5.523e-7
0.313, -1.366e-6, -8.075e-7, 5.584e-7
0.312, -1.361e-6, -8.041e-7, 5.569e-7
0.311, -1.366e-6, -8.096e-7, 5.566e-7
0.310, -1.370e-6, -8.087e-7, 5.608e-7
0.309, -1.369e-6, -8.093e-7, 5.596e-7
0.308, -1.371e-6, -8.127e-7, 5.581e-7
0.307, -1.377e-6, -8.151e-7, 5.614e-7
0.306, -1.372e-6, -8.127e-7, 5.596e-7
0.305, -1.374e-6, -8.163e-7, 5.581e-7
0.304, -1.380e-6, -8.163e-7, 5.633e-7
0.303, -1.377e-6, -8.163e-7, 5.605e-7
0.302, -1.381e-6, -8.200e-7, 5.611e-7
0.301, -1.383e-6, -8.191e-7, 5.639e-7
0.300, -1.383e-6, -8.185e-7, 5.645e-7
0.299, -1.392e-6, -8.249e-7, 5.666e-7
0.298, -1.392e-6, -8.246e-7, 5.669e-7
0.297, -1.392e-6, -8.240e-7, 5.685e-7
0.296, -1.396e-6, -8.283e-7, 5.678e-7
0.295, -1.399e-6, -8.286e-7, 5.706e-7
0.294, -1.398e-6, -8.286e-7, 5.697e-7
0.293, -1.403e-6, -8.322e-7, 5.703e-7
0.292, -1.401e-6, -8.307e-7, 5.703e-7
0.291, -1.404e-6, -8.319e-7, 5.721e-7
0.290, -1.411e-6, -8.374e-7, 5.736e-7
0.289, -1.408e-6, -8.362e-7, 5.721e-7
0.288, -1.412e-6, -8.365e-7, 5.752e-7
0.287, -1.416e-6, -8.402e-7, 5.755e-7
0.286, -1.418e-6, -8.408e-7, 5.776e-7
0.285, -1.422e-6, -8.438e-7, 5.782e-7
0.284, -1.423e-6, -8.429e-7, 5.801e-7
0.283, -1.425e-6, -8.463e-7, 5.788e-7
0.282, -1.426e-6, -8.469e-7, 5.791e-7
0.281, -1.427e-6, -8.475e-7, 5.797e-7
0.280, -1.428e-6, -8.481e-7, 5.804e-7
0.279, -1.434e-6, -8.514e-7, 5.828e-7
0.278, -1.435e-6, -8.511e-7, 5.837e-7
0.277, -1.438e-6, -8.539e-7, 5.843e-7
0.276, -1.441e-6, -8.554e-7, 5.859e-7
0.275, -1.443e-6, -8.554e-7, 5.880e-7
0.274, -1.447e-6, -8.588e-7, 5.880e-7
0.273, -1.447e-6, -8.591e-7, 5.883e-7
0.272, -1.450e-6, -8.606e-7, 5.892e-7
0.271, -1.453e-6, -8.643e-7, 5.892e-7
0.270, -1.453e-6, -8.646e-7, 5.886e-7
0.269, -1.457e-6, -8.636e-7, 5.929e-7
0.268, -1.460e-6, -8.682e-7, 5.913e-7
0.267, -1.464e-6, -8.691e-7, 5.953e-7
0.266, -1.462e-6, -8.676e-7, 5.947e-7
0.265, -1.464e-6, -8.722e-7, 5.923e-7
0.264, -1.471e-6, -8.731e-7, 5.981e-7
0.263, -1.470e-6, -8.734e-7, 5.962e-7
0.262, -1.473e-6, -8.789e-7, 5.938e-7
0.261, -1.472e-6, -8.752e-7, 5.968e-7
0.260, -1.474e-6, -8.774e-7, 5.965e-7
0.259, -1.480e-6, -8.804e-7, 5.996e-7
0.258, -1.479e-6, -8.807e-7, 5.984e-7
0.257, -1.482e-6, -8.838e-7, 5.981e-7
0.256, -1.489e-6, -8.868e-7, 6.017e-7
0.255, -1.489e-6, -8.850e-7, 6.042e-7
0.254, -1.489e-6, -8.881e-7, 6.014e-7
0.253, -1.497e-6, -8.920e-7, 6.051e-7
0.252, -1.496e-6, -8.893e-7, 6.066e-7
0.251, -1.497e-6, -8.932e-7, 6.036e-7
0.250, -1.502e-6, -8.948e-7, 6.075e-7
0.249, -1.504e-6, -8.951e-7, 6.093e-7
0.248, -1.505e-6, -8.966e-7, 6.081e-7
0.247, -1.511e-6, -9.000e-7, 6.109e-7
0.246, -1.510e-6, -8.978e-7, 6.124e-7
0.245, -1.514e-6, -9.021e-7, 6.115e-7
0.244, -1.518e-6, -9.042e-7, 6.142e-7
0.243, -1.516e-6, -9.042e-7, 6.121e-7
0.242, -1.520e-6, -9.073e-7, 6.127e-7
0.241, -1.523e-6, -9.076e-7, 6.158e-7
0.240, -1.526e-6, -9.085e-7, 6.179e-7
0.239, -1.526e-6, -9.103e-7, 6.158e-7
0.238, -1.532e-6, -9.125e-7, 6.191e-7
0.237, -1.534e-6, -9.146e-7, 6.197e-7
0.236, -1.536e-6, -9.158e-7, 6.197e-7
0.235, -1.539e-6, -9.167e-7, 6.219e-7
0.234, -1.540e-6, -9.183e-7, 6.216e-7
0.233, -1.542e-6, -9.204e-7, 6.219e-7
0.232, -1.545e-6, -9.219e-7, 6.234e-7
0.231, -1.547e-6, -9.241e-7, 6.234e-7
0.230, -1.551e-6, -9.259e-7, 6.252e-7
0.229, -1.554e-6, -9.256e-7, 6.280e-7
0.228, -1.554e-6, -9.280e-7, 6.261e-7
0.227, -1.562e-6, -9.320e-7, 6.298e-7
0.226, -1.563e-6, -9.317e-7, 6.313e-7
0.225, -1.566e-6, -9.360e-7, 6.304e-7
0.224, -1.568e-6, -9.338e-7, 6.341e-7
0.223, -1.568e-6, -9.366e-7, 6.316e-7
0.222, -1.573e-6, -9.399e-7, 6.332e-7
0.221, -1.577e-6, -9.409e-7, 6.359e-7
0.220, -1.576e-6, -9.399e-7, 6.365e-7
0.219, -1.580e-6, -9.454e-7, 6.344e-7
0.218, -1.586e-6, -9.463e-7, 6.399e-7
0.217, -1.585e-6, -9.470e-7, 6.377e-7
0.216, -1.590e-6, -9.509e-7, 6.396e-7
0.215, -1.594e-6, -9.512e-7, 6.432e-7
0.214, -1.599e-6, -9.552e-7, 6.441e-7
0.213, -1.601e-6, -9.561e-7, 6.444e-7
0.212, -1.604e-6, -9.570e-7, 6.472e-7
0.211, -1.603e-6, -9.592e-7, 6.438e-7
0.210, -1.611e-6, -9.616e-7, 6.496e-7
0.209, -1.612e-6, -9.622e-7, 6.499e-7
0.208, -1.616e-6, -9.653e-7, 6.502e-7
0.207, -1.618e-6, -9.671e-7, 6.505e-7
0.206, -1.620e-6, -9.683e-7, 6.515e-7
0.205, -1.628e-6, -9.750e-7, 6.527e-7
0.204, -1.631e-6, -9.732e-7, 6.579e-7
0.203, -1.630e-6, -9.735e-7, 6.566e-7
0.202, -1.637e-6, -9.781e-7, 6.585e-7
0.201, -1.638e-6, -9.784e-7, 6.597e-7
0.200, -1.643e-6, -9.805e-7, 6.621e-7
0.199, -1.644e-6, -9.830e-7, 6.606e-7
0.198, -1.648e-6, -9.839e-7, 6.640e-7
0.197, -1.651e-6, -9.851e-7, 6.661e-7
0.196, -1.654e-6, -9.885e-7, 6.652e-7
0.195, -1.657e-6, -9.885e-7, 6.685e-7
0.194, -1.659e-6, -9.900e-7, 6.692e-7
0.193, -1.664e-6, -9.949e-7, 6.692e-7
0.192, -1.669e-6, -9.964e-7, 6.722e-7
0.191, -1.669e-6, -9.970e-7, 6.716e-7
0.190, -1.673e-6, -9.994e-7, 6.734e-7
0.189, -1.681e-6, -1.003e-6, 6.777e-7
0.188, -1.681e-6, -1.002e-6, 6.783e-7
0.187, -1.684e-6, -1.006e-6, 6.774e-7
0.186, -1.688e-6, -1.008e-6, 6.804e-7
0.185, -1.691e-6, -1.010e-6, 6.804e-7
0.184, -1.695e-6, -1.012e-6, 6.832e-7
0.183, -1.697e-6, -1.013e-6, 6.841e-7
0.182, -1.702e-6, -1.017e-6, 6.850e-7
0.181, -1.708e-6, -1.019e-6, 6.893e-7
0.180, -1.709e-6, -1.021e-6, 6.878e-7
0.179, -1.712e-6, -1.023e-6, 6.884e-7
0.178, -1.717e-6, -1.025e-6, 6.924e-7
0.177, -1.718e-6, -1.026e-6, 6.920e-7
0.176, -1.721e-6, -1.029e-6, 6.924e-7
0.175, -1.725e-6, -1.029e-6, 6.960e-7
0.174, -1.726e-6, -1.032e-6, 6.945e-7
0.173, -1.732e-6, -1.035e-6, 6.972e-7
0.172, -1.737e-6, -1.036e-6, 7.012e-7
0.171, -1.738e-6, -1.038e-6, 7.003e-7
0.170, -1.745e-6, -1.040e-6, 7.043e-7
0.169, -1.746e-6, -1.041e-6, 7.049e-7
0.168, -1.748e-6, -1.044e-6, 7.036e-7
0.167, -1.753e-6, -1.045e-6, 7.082e-7
0.166, -1.758e-6, -1.048e-6, 7.104e-7
0.165, -1.760e-6, -1.051e-6, 7.097e-7
0.164, -1.762e-6, -1.050e-6, 7.119e-7
0.163, -1.766e-6, -1.053e-6, 7.137e-7
0.162, -1.770e-6, -1.057e-6, 7.134e-7
0.161, -1.776e-6, -1.058e-6, 7.180e-7
0.160, -1.777e-6, -1.058e-6, 7.189e-7
0.159, -1.782e-6, -1.064e-6, 7.186e-7
0.158, -1.783e-6, -1.060e-6, 7.226e-7
0.157, -1.784e-6, -1.064e-6, 7.195e-7
0.156, -1.792e-6, -1.068e-6, 7.238e-7
0.155, -1.796e-6, -1.069e-6, 7.265e-7
0.154, -1.797e-6, -1.071e-6, 7.256e-7
0.153, -1.800e-6, -1.073e-6, 7.271e-7
0.152, -1.804e-6, -1.075e-6, 7.299e-7
0.151, -1.806e-6, -1.077e-6, 7.290e-7
0.150, -1.812e-6, -1.079e-6, 7.335e-7
0.149, -1.815e-6, -1.079e-6, 7.357e-7
0.148, -1.818e-6, -1.082e-6, 7.357e-7
0.147, -1.823e-6, -1.086e-6, 7.369e-7
0.146, -1.824e-6, -1.085e-6, 7.390e-7
0.145, -1.827e-6, -1.087e-6, 7.400e-7
0.144, -1.832e-6, -1.089e-6, 7.430e-7
0.143, -1.833e-6, -1.089e-6, 7.439e-7
0.142, -1.837e-6, -1.093e-6, 7.436e-7
0.141, -1.842e-6, -1.096e-6, 7.464e-7
0.140, -1.844e-6, -1.096e-6, 7.482e-7
0.139, -1.849e-6, -1.100e-6, 7.488e-7
0.138, -1.849e-6, -1.100e-6, 7.494e-7
0.137, -1.853e-6, -1.101e-6, 7.519e-7
0.136, -1.855e-6, -1.103e-6, 7.522e-7
0.135, -1.861e-6, -1.106e-6, 7.552e-7
0.134, -1.859e-6, -1.105e-6, 7.534e-7
0.133, -1.863e-6, -1.108e-6, 7.546e-7
0.132, -1.870e-6, -1.109e-6, 7.604e-7
0.131, -1.869e-6, -1.111e-6, 7.577e-7
0.130, -1.875e-6, -1.113e-6, 7.622e-7
0.129, -1.877e-6, -1.114e-6, 7.625e-7
0.128, -1.880e-6, -1.117e-6, 7.635e-7
0.127, -1.884e-6, -1.118e-6, 7.659e-7
0.126, -1.884e-6, -1.119e-6, 7.653e-7
0.125, -1.889e-6, -1.122e-6, 7.671e-7
0.124, -1.893e-6, -1.123e-6, 7.699e-7
0.123, -1.897e-6, -1.123e-6, 7.735e-7
0.122, -1.900e-6, -1.127e-6, 7.723e-7
0.121, -1.901e-6, -1.127e-6, 7.741e-7
0.120, -1.905e-6, -1.128e-6, 7.766e-7
0.119, -1.905e-6, -1.131e-6, 7.741e-7
0.118, -1.909e-6, -1.131e-6, 7.787e-7
0.117, -1.914e-6, -1.135e-6, 7.790e-7
0.116, -1.917e-6, -1.136e-6, 7.808e-7
0.115, -1.920e-6, -1.137e-6, 7.827e-7
0.114, -1.922e-6, -1.137e-6, 7.848e-7
0.113, -1.927e-6, -1.142e-6, 7.845e-7
0.112, -1.929e-6, -1.141e-6, 7.876e-7
0.111, -1.932e-6, -1.144e-6, 7.882e-7
0.110, -1.936e-6, -1.146e-6, 7.906e-7
0.109, -1.940e-6, -1.147e-6, 7.931e-7
0.108, -1.940e-6, -1.149e-6, 7.906e-7
0.107, -1.944e-6, -1.149e-6, 7.946e-7
0.106, -1.949e-6, -1.151e-6, 7.982e-7
0.105, -1.947e-6, -1.152e-6, 7.949e-7
0.104, -1.955e-6, -1.156e-6, 7.998e-7
0.103, -1.955e-6, -1.155e-6, 8.001e-7
0.102, -1.955e-6, -1.157e-6, 7.985e-7
0.101, -1.963e-6, -1.158e-6, 8.050e-7
0.100, -1.962e-6, -1.158e-6, 8.043e-7
0.099, -1.962e-6, -1.159e-6, 8.031e-7
0.098, -1.971e-6, -1.162e-6, 8.092e-7
0.097, -1.972e-6, -1.162e-6, 8.095e-7
0.096, -1.974e-6, -1.167e-6, 8.071e-7
0.095, -1.981e-6, -1.167e-6, 8.135e-7
0.094, -1.977e-6, -1.165e-6, 8.120e-7
0.093, -1.983e-6, -1.170e-6, 8.126e-7
0.092, -1.990e-6, -1.172e-6, 8.178e-7
0.091, -1.987e-6, -1.169e-6, 8.181e-7
0.090, -1.993e-6, -1.175e-6, 8.187e-7
0.089, -1.997e-6, -1.174e-6, 8.223e-7
0.088, -1.998e-6, -1.175e-6, 8.233e-7
0.087, -1.998e-6, -1.176e-6, 8.217e-7
0.086, -2.002e-6, -1.177e-6, 8.251e-7
0.085, -2.004e-6, -1.179e-6, 8.248e-7
0.084, -2.008e-6, -1.182e-6, 8.260e-7
0.083, -2.012e-6, -1.182e-6, 8.297e-7
0.082, -2.011e-6, -1.183e-6, 8.281e-7
0.081, -2.017e-6, -1.184e-6, 8.327e-7
0.080, -2.018e-6, -1.185e-6, 8.327e-7
0.079, -2.023e-6, -1.188e-6, 8.352e-7
0.078, -2.024e-6, -1.188e-6, 8.358e-7
0.077, -2.024e-6, -1.188e-6, 8.364e-7
0.076, -2.027e-6, -1.190e-6, 8.373e-7
0.075, -2.031e-6, -1.190e-6, 8.404e-7
0.074, -2.034e-6, -1.193e-6, 8.419e-7
0.073, -2.034e-6, -1.194e-6, 8.410e-7
0.072, -2.040e-6, -1.193e-6, 8.465e-7
0.071, -2.038e-6, -1.194e-6, 8.443e-7
0.070, -2.042e-6, -1.197e-6, 8.452e-7
0.069, -2.045e-6, -1.197e-6, 8.489e-7
0.068, -2.046e-6, -1.197e-6, 8.492e-7
0.067, -2.052e-6, -1.200e-6, 8.523e-7
0.066, -2.052e-6, -1.199e-6, 8.532e-7
0.065, -2.052e-6, -1.199e-6, 8.532e-7
0.064, -2.055e-6, -1.201e-6, 8.538e-7
0.063, -2.057e-6, -1.201e-6, 8.559e-7
0.062, -2.059e-6, -1.203e-6, 8.562e-7
0.061, -2.060e-6, -1.203e-6, 8.571e-7
0.060, -2.063e-6, -1.203e-6, 8.602e-7
0.059, -2.063e-6, -1.205e-6, 8.580e-7
0.058, -2.068e-6, -1.206e-6, 8.626e-7
0.057, -2.067e-6, -1.205e-6, 8.623e-7
0.056, -2.069e-6, -1.209e-6, 8.605e-7
0.055, -2.074e-6, -1.207e-6, 8.666e-7
0.054, -2.070e-6, -1.206e-6, 8.642e-7
0.053, -2.074e-6, -1.208e-6, 8.660e-7
0.052, -2.076e-6, -1.208e-6, 8.681e-7
0.051, -2.075e-6, -1.208e-6, 8.666e-7
0.050, -2.079e-6, -1.209e-6, 8.700e-7
0.049, -2.082e-6, -1.208e-6, 8.733e-7
0.048, -2.082e-6, -1.211e-6, 8.709e-7
0.047, -2.085e-6, -1.213e-6, 8.721e-7
0.046, -2.082e-6, -1.208e-6, 8.742e-7
0.045, -2.083e-6, -1.211e-6, 8.721e-7
0.044, -2.087e-6, -1.214e-6, 8.733e-7
0.043, -2.088e-6, -1.212e-6, 8.770e-7
0.042, -2.089e-6, -1.212e-6, 8.767e-7
0.041, -2.093e-6, -1.213e-6, 8.800e-7
0.040, -2.092e-6, -1.212e-6, 8.809e-7
0.039, -2.090e-6, -1.213e-6, 8.770e-7
0.038, -2.094e-6, -1.212e-6, 8.822e-7
0.037, -2.095e-6, -1.211e-6, 8.837e-7
0.036, -2.094e-6, -1.213e-6, 8.809e-7
0.035, -2.093e-6, -1.211e-6, 8.822e-7
0.034, -2.098e-6, -1.212e-6, 8.855e-7
0.033, -2.097e-6, -1.213e-6, 8.840e-7
0.032, -2.101e-6, -1.213e-6, 8.873e-7
0.031, -2.097e-6, -1.212e-6, 8.852e-7
0.030, -2.101e-6, -1.214e-6, 8.876e-7
0.029, -2.100e-6, -1.212e-6, 8.880e-7
0.028, -2.099e-6, -1.212e-6, 8.873e-7
0.027, -2.099e-6, -1.212e-6, 8.870e-7
0.026, -2.104e-6, -1.212e-6, 8.922e-7
0.025, -2.101e-6, -1.212e-6, 8.895e-7
0.024, -2.101e-6, -1.210e-6, 8.913e-7
0.023, -2.102e-6, -1.211e-6, 8.910e-7
0.022, -2.103e-6, -1.212e-6, 8.907e-7
0.021, -2.104e-6, -1.212e-6, 8.922e-7
0.020, -2.103e-6, -1.210e-6, 8.925e-7
0.019, -2.103e-6, -1.210e-6, 8.928e-7
0.018, -2.108e-6, -1.211e-6, 8.968e-7
0.017, -2.105e-6, -1.208e-6, 8.962e-7
0.016, -2.103e-6, -1.208e-6, 8.950e-7
0.015, -2.106e-6, -1.209e-6, 8.968e-7
0.014, -2.104e-6, -1.207e-6, 8.977e-7
0.013, -2.106e-6, -1.208e-6, 8.977e-7
0.012, -2.104e-6, -1.206e-6, 8.983e-7
0.011, -2.103e-6, -1.206e-6, 8.974e-7
0.010, -2.106e-6, -1.207e-6, 8.989e-7
0.009, -2.108e-6, -1.206e-6, 9.014e-7
0.008, -2.103e-6, -1.205e-6, 8.983e-7
0.007, -2.108e-6, -1.208e-6, 9.005e-7
0.006, -2.106e-6, -1.205e-6, 9.011e-7
0.005, -2.103e-6, -1.204e-6, 8.999e-7
0.004, -2.104e-6, -1.204e-6, 9.005e-7
0.003, -2.104e-6, -1.202e-6, 9.023e-7
0.002, -2.103e-6, -1.201e-6, 9.011e-7
0.001, -2.106e-6, -1.202e-6, 9.038e-7
0.000, -2.102e-6, -1.200e-6, 9.017e-7
-0.001, -2.101e-6, -1.200e-6, 9.008e-7
-0.002, -2.105e-6, -1.200e-6, 9.047e-7
-0.003, -2.102e-6, -1.197e-6, 9.044e-7
-0.004, -2.104e-6, -1.202e-6, 9.026e-7
-0.005, -2.103e-6, -1.198e-6, 9.057e-7
-0.006, -2.100e-6, -1.195e-6, 9.050e-7
-0.007, -2.100e-6, -1.197e-6, 9.026e-7
-0.008, -2.102e-6, -1.196e-6, 9.063e-7
-0.009, -2.099e-6, -1.193e-6, 9.053e-7
-0.010, -2.100e-6, -1.195e-6, 9.050e-7
-0.011, -2.100e-6, -1.193e-6, 9.075e-7
-0.012, -2.099e-6, -1.192e-6, 9.066e-7
-0.013, -2.098e-6, -1.193e-6, 9.044e-7
-0.014, -2.098e-6, -1.190e-6, 9.078e-7
-0.015, -2.094e-6, -1.187e-6, 9.063e-7
-0.016, -2.094e-6, -1.188e-6, 9.060e-7
-0.017, -2.092e-6, -1.187e-6, 9.053e-7
-0.018, -2.092e-6, -1.185e-6, 9.069e-7
-0.019, -2.092e-6, -1.187e-6, 9.060e-7
-0.020, -2.093e-6, -1.185e-6, 9.087e-7
-0.021, -2.090e-6, -1.183e-6, 9.063e-7
-0.022, -2.089e-6, -1.183e-6, 9.066e-7
-0.023, -2.089e-6, -1.181e-6, 9.081e-7
-0.024, -2.088e-6, -1.181e-6, 9.063e-7
-0.025, -2.088e-6, -1.179e-6, 9.084e-7
-0.026, -2.087e-6, -1.179e-6, 9.081e-7
-0.027, -2.084e-6, -1.178e-6, 9.057e-7
-0.028, -2.084e-6, -1.176e-6, 9.081e-7
-0.029, -2.081e-6, -1.175e-6, 9.060e-7
-0.030, -2.084e-6, -1.177e-6, 9.075e-7
-0.031, -2.082e-6, -1.173e-6, 9.090e-7
-0.032, -2.081e-6, -1.172e-6, 9.096e-7
-0.033, -2.080e-6, -1.172e-6, 9.087e-7
-0.034, -2.077e-6, -1.169e-6, 9.081e-7
-0.035, -2.074e-6, -1.168e-6, 9.066e-7
-0.036, -2.077e-6, -1.170e-6, 9.072e-7
-0.037, -2.073e-6, -1.165e-6, 9.078e-7
-0.038, -2.074e-6, -1.167e-6, 9.069e-7
-0.039, -2.072e-6, -1.165e-6, 9.063e-7
-0.040, -2.072e-6, -1.165e-6, 9.075e-7
-0.041, -2.067e-6, -1.162e-6, 9.050e-7
-0.042, -2.069e-6, -1.161e-6, 9.078e-7
-0.043, -2.065e-6, -1.158e-6, 9.069e-7
-0.044, -2.062e-6, -1.158e-6, 9.044e-7
-0.045, -2.063e-6, -1.156e-6, 9.072e-7
-0.046, -2.059e-6, -1.155e-6, 9.041e-7
-0.047, -2.055e-6, -1.153e-6, 9.020e-7
-0.048, -2.059e-6, -1.153e-6, 9.066e-7
-0.049, -2.055e-6, -1.150e-6, 9.047e-7
-0.050, -2.053e-6, -1.152e-6, 9.014e-7
-0.051, -2.052e-6, -1.147e-6, 9.053e-7
-0.052, -2.048e-6, -1.146e-6, 9.017e-7
-0.053, -2.051e-6, -1.148e-6, 9.029e-7
-0.054, -2.048e-6, -1.145e-6, 9.026e-7
-0.055, -2.044e-6, -1.143e-6, 9.011e-7
-0.056, -2.045e-6, -1.143e-6, 9.029e-7
-0.057, -2.043e-6, -1.141e-6, 9.023e-7
-0.058, -2.040e-6, -1.140e-6, 9.002e-7
-0.059, -2.042e-6, -1.140e-6, 9.017e-7
-0.060, -2.038e-6, -1.135e-6, 9.023e-7
-0.061, -2.034e-6, -1.136e-6, 8.974e-7
-0.062, -2.034e-6, -1.136e-6, 8.980e-7
-0.063, -2.032e-6, -1.132e-6, 8.995e-7
-0.064, -2.030e-6, -1.132e-6, 8.977e-7
-0.065, -2.031e-6, -1.132e-6, 8.986e-7
-0.066, -2.027e-6, -1.127e-6, 8.999e-7
-0.067, -2.023e-6, -1.127e-6, 8.953e-7
-0.068, -2.023e-6, -1.127e-6, 8.956e-7
-0.069, -2.019e-6, -1.123e-6, 8.959e-7
-0.070, -2.019e-6, -1.125e-6, 8.944e-7
-0.071, -2.016e-6, -1.121e-6, 8.947e-7
-0.072, -2.013e-6, -1.119e-6, 8.947e-7
-0.073, -2.010e-6, -1.119e-6, 8.904e-7
-0.074, -2.011e-6, -1.118e-6, 8.922e-7
-0.075, -2.005e-6, -1.114e-6, 8.913e-7
-0.076, -2.004e-6, -1.113e-6, 8.913e-7
-0.077, -2.005e-6, -1.112e-6, 8.925e-7
-0.078, -2.004e-6, -1.112e-6, 8.922e-7
-0.079, -2.000e-6, -1.111e-6, 8.895e-7
-0.080, -1.997e-6, -1.108e-6, 8.886e-7
-0.081, -1.993e-6, -1.107e-6, 8.861e-7
-0.082, -1.993e-6, -1.106e-6, 8.873e-7
-0.083, -1.992e-6, -1.104e-6, 8.886e-7
-0.084, -1.989e-6, -1.103e-6, 8.864e-7
-0.085, -1.990e-6, -1.103e-6, 8.864e-7
-0.086, -1.986e-6, -1.101e-6, 8.855e-7
-0.087, -1.983e-6, -1.100e-6, 8.831e-7
-0.088, -1.980e-6, -1.097e-6, 8.831e-7
-0.089, -1.979e-6, -1.097e-6, 8.822e-7
-0.090, -1.980e-6, -1.097e-6, 8.831e-7
-0.091, -1.978e-6, -1.095e-6, 8.831e-7
-0.092, -1.973e-6, -1.093e-6, 8.803e-7
-0.093, -1.972e-6, -1.093e-6, 8.788e-7
-0.094, -1.973e-6, -1.090e-6, 8.828e-7
-0.095, -1.967e-6, -1.089e-6, 8.776e-7
-0.096, -1.966e-6, -1.088e-6, 8.782e-7
-0.097, -1.965e-6, -1.087e-6, 8.779e-7
-0.098, -1.962e-6, -1.086e-6, 8.751e-7
-0.099, -1.965e-6, -1.086e-6, 8.785e-7
-0.100, -1.958e-6, -1.081e-6, 8.764e-7
-0.101, -1.957e-6, -1.082e-6, 8.748e-7
-0.102, -1.956e-6, -1.082e-6, 8.739e-7
-0.103, -1.954e-6, -1.077e-6, 8.773e-7
-0.104, -1.952e-6, -1.080e-6, 8.721e-7
-0.105, -1.952e-6, -1.078e-6, 8.739e-7
-0.106, -1.947e-6, -1.075e-6, 8.724e-7
-0.107, -1.946e-6, -1.076e-6, 8.699e-7
-0.108, -1.947e-6, -1.074e-6, 8.736e-7
-0.109, -1.944e-6, -1.072e-6, 8.721e-7
-0.110, -1.941e-6, -1.072e-6, 8.690e-7
-0.111, -1.940e-6, -1.069e-6, 8.703e-7
-0.112, -1.937e-6, -1.070e-6, 8.672e-7
-0.113, -1.935e-6, -1.070e-6, 8.657e-7
-0.114, -1.933e-6, -1.066e-6, 8.678e-7
-0.115, -1.934e-6, -1.067e-6, 8.663e-7
-0.116, -1.933e-6, -1.067e-6, 8.657e-7
-0.117, -1.933e-6, -1.065e-6, 8.678e-7
-0.118, -1.928e-6, -1.064e-6, 8.642e-7
-0.119, -1.929e-6, -1.065e-6, 8.642e-7
-0.120, -1.927e-6, -1.064e-6, 8.638e-7
-0.121, -1.922e-6, -1.059e-6, 8.626e-7
-0.122, -1.923e-6, -1.061e-6, 8.623e-7
-0.123, -1.921e-6, -1.059e-6, 8.623e-7
-0.124, -1.919e-6, -1.058e-6, 8.611e-7
-0.125, -1.917e-6, -1.057e-6, 8.596e-7
-0.126, -1.920e-6, -1.058e-6, 8.620e-7
-0.127, -1.915e-6, -1.054e-6, 8.611e-7
-0.128, -1.916e-6, -1.057e-6, 8.596e-7
-0.129, -1.911e-6, -1.052e-6, 8.590e-7
-0.130, -1.912e-6, -1.054e-6, 8.577e-7
-0.131, -1.910e-6, -1.051e-6, 8.590e-7
-0.132, -1.905e-6, -1.049e-6, 8.562e-7
-0.133, -1.908e-6, -1.053e-6, 8.559e-7
-0.134, -1.905e-6, -1.051e-6, 8.541e-7
-0.135, -1.905e-6, -1.049e-6, 8.562e-7
-0.136, -1.903e-6, -1.049e-6, 8.538e-7
-0.137, -1.903e-6, -1.048e-6, 8.547e-7
-0.138, -1.901e-6, -1.046e-6, 8.553e-7
-0.139, -1.901e-6, -1.046e-6, 8.547e-7
-0.140, -1.898e-6, -1.045e-6, 8.535e-7
-0.141, -1.899e-6, -1.047e-6, 8.526e-7
-0.142, -1.897e-6, -1.046e-6, 8.516e-7
-0.143, -1.895e-6, -1.044e-6, 8.510e-7
-0.144, -1.890e-6, -1.041e-6, 8.495e-7
-0.145, -1.893e-6, -1.043e-6, 8.495e-7
-0.146, -1.894e-6, -1.041e-6, 8.532e-7
-0.147, -1.888e-6, -1.040e-6, 8.474e-7
-0.148, -1.890e-6, -1.040e-6, 8.495e-7
-0.149, -1.887e-6, -1.040e-6, 8.471e-7
-0.150, -1.885e-6, -1.039e-6, 8.461e-7
-0.151, -1.884e-6, -1.038e-6, 8.461e-7
-0.152, -1.879e-6, -1.034e-6, 8.443e-7
-0.153, -1.880e-6, -1.036e-6, 8.434e-7
-0.154, -1.882e-6, -1.036e-6, 8.452e-7
-0.155, -1.879e-6, -1.035e-6, 8.440e-7
-0.156, -1.878e-6, -1.035e-6, 8.428e-7
-0.157, -1.876e-6, -1.031e-6, 8.449e-7
-0.158, -1.877e-6, -1.036e-6, 8.410e-7
-0.159, -1.876e-6, -1.033e-6, 8.425e-7
-0.160, -1.871e-6, -1.028e-6, 8.431e-7
-0.161, -1.872e-6, -1.030e-6, 8.416e-7
-0.162, -1.873e-6, -1.033e-6, 8.397e-7
-0.163, -1.871e-6, -1.030e-6, 8.410e-7
-0.164, -1.868e-6, -1.029e-6, 8.388e-7
-0.165, -1.867e-6, -1.029e-6, 8.373e-7
-0.166, -1.868e-6, -1.026e-6, 8.413e-7
-0.167, -1.864e-6, -1.027e-6, 8.364e-7
-0.168, -1.865e-6, -1.028e-6, 8.370e-7
-0.169, -1.863e-6, -1.025e-6, 8.379e-7
-0.170, -1.858e-6, -1.025e-6, 8.333e-7
-0.171, -1.863e-6, -1.027e-6, 8.367e-7
-0.172, -1.858e-6, -1.021e-6, 8.364e-7
-0.173, -1.855e-6, -1.023e-6, 8.321e-7
-0.174, -1.855e-6, -1.021e-6, 8.342e-7
-0.175, -1.854e-6, -1.021e-6, 8.324e-7
-0.176, -1.853e-6, -1.021e-6, 8.312e-7
-0.177, -1.853e-6, -1.021e-6, 8.318e-7
-0.178, -1.850e-6, -1.019e-6, 8.309e-7
-0.179, -1.852e-6, -1.021e-6, 8.306e-7
-0.180, -1.849e-6, -1.017e-6, 8.312e-7
-0.181, -1.850e-6, -1.021e-6, 8.297e-7
-0.182, -1.847e-6, -1.017e-6, 8.300e-7
-0.183, -1.850e-6, -1.020e-6, 8.303e-7
-0.184, -1.845e-6, -1.017e-6, 8.278e-7
-0.185, -1.845e-6, -1.018e-6, 8.272e-7
-0.186, -1.843e-6, -1.015e-6, 8.288e-7
-0.187, -1.843e-6, -1.016e-6, 8.272e-7
-0.188, -1.842e-6, -1.015e-6, 8.275e-7
-0.189, -1.839e-6, -1.013e-6, 8.263e-7
-0.190, -1.841e-6, -1.016e-6, 8.251e-7
-0.191, -1.840e-6, -1.014e-6, 8.257e-7
-0.192, -1.840e-6, -1.014e-6, 8.254e-7
-0.193, -1.838e-6, -1.013e-6, 8.242e-7
-0.194, -1.837e-6, -1.011e-6, 8.257e-7
-0.195, -1.836e-6, -1.012e-6, 8.248e-7
-0.196, -1.836e-6, -1.014e-6, 8.220e-7
-0.197, -1.837e-6, -1.014e-6, 8.236e-7
-0.198, -1.831e-6, -1.009e-6, 8.217e-7
-0.199, -1.832e-6, -1.010e-6, 8.217e-7
-0.200, -1.831e-6, -1.009e-6, 8.223e-7
-0.201, -1.829e-6, -1.009e-6, 8.208e-7
-0.202, -1.830e-6, -1.010e-6, 8.202e-7
-0.203, -1.831e-6, -1.008e-6, 8.230e-7
-0.204, -1.827e-6, -1.007e-6, 8.202e-7
-0.205, -1.829e-6, -1.009e-6, 8.205e-7
-0.206, -1.827e-6, -1.006e-6, 8.205e-7
-0.207, -1.826e-6, -1.008e-6, 8.181e-7
-0.208, -1.826e-6, -1.006e-6, 8.199e-7
-0.209, -1.824e-6, -1.004e-6, 8.199e-7
-0.210, -1.821e-6, -1.004e-6, 8.175e-7
-0.211, -1.825e-6, -1.004e-6, 8.205e-7
-0.212, -1.821e-6, -1.005e-6, 8.169e-7
-0.213, -1.820e-6, -1.004e-6, 8.159e-7
-0.214, -1.825e-6, -1.005e-6, 8.196e-7
-0.215, -1.820e-6, -1.002e-6, 8.178e-7
-0.216, -1.821e-6, -1.004e-6, 8.169e-7
-0.217, -1.822e-6, -1.003e-6, 8.190e-7
-0.218, -1.819e-6, -1.001e-6, 8.184e-7
-0.219, -1.818e-6, -1.003e-6, 8.150e-7
-0.220, -1.819e-6, -1.000e-6, 8.190e-7
-0.221, -1.820e-6, -1.003e-6, 8.178e-7
-0.222, -1.818e-6, -1.003e-6, 8.153e-7
-0.223, -1.820e-6, -1.003e-6, 8.169e-7
-0.224, -1.817e-6, -1.000e-6, 8.165e-7
-0.225, -1.818e-6, -1.003e-6, 8.153e-7
-0.226, -1.814e-6, -9.979e-7, 8.165e-7
-0.227, -1.814e-6, -9.985e-7, 8.153e-7
-0.228, -1.813e-6, -9.998e-7, 8.132e-7
-0.229, -1.816e-6, -1.000e-6, 8.159e-7
-0.230, -1.811e-6, -9.961e-7, 8.150e-7
-0.231, -1.816e-6, -1.001e-6, 8.153e-7
-0.232, -1.812e-6, -9.973e-7, 8.150e-7
-0.233, -1.812e-6, -9.976e-7, 8.144e-7
-0.234, -1.816e-6, -1.000e-6, 8.153e-7
-0.235, -1.808e-6, -9.943e-7, 8.141e-7
-0.236, -1.809e-6, -9.961e-7, 8.129e-7
-0.237, -1.812e-6, -9.967e-7, 8.153e-7
-0.238, -1.813e-6, -9.991e-7, 8.141e-7
-0.239, -1.811e-6, -9.979e-7, 8.129e-7
-0.240, -1.809e-6, -9.952e-7, 8.135e-7
-0.241, -1.811e-6, -9.979e-7, 8.129e-7
-0.242, -1.806e-6, -9.930e-7, 8.129e-7
-0.243, -1.809e-6, -9.952e-7, 8.141e-7
-0.244, -1.809e-6, -9.955e-7, 8.135e-7
-0.245, -1.807e-6, -9.937e-7, 8.129e-7
-0.246, -1.805e-6, -9.912e-7, 8.141e-7
-0.247, -1.806e-6, -9.943e-7, 8.114e-7
-0.248, -1.809e-6, -9.964e-7, 8.123e-7
-0.249, -1.805e-6, -9.930e-7, 8.120e-7
-0.250, -1.802e-6, -9.912e-7, 8.111e-7
-0.251, -1.808e-6, -9.952e-7, 8.132e-7
-0.252, -1.800e-6, -9.882e-7, 8.117e-7
-0.253, -1.799e-6, -9.891e-7, 8.095e-7
-0.254, -1.802e-6, -9.906e-7, 8.114e-7
-0.255, -1.801e-6, -9.900e-7, 8.111e-7
-0.256, -1.799e-6, -9.888e-7, 8.101e-7
-0.257, -1.801e-6, -9.897e-7, 8.117e-7
-0.258, -1.800e-6, -9.885e-7, 8.117e-7
-0.259, -1.799e-6, -9.885e-7, 8.107e-7
-0.260, -1.801e-6, -9.894e-7, 8.117e-7
-0.261, -1.802e-6, -9.927e-7, 8.089e-7
-0.262, -1.800e-6, -9.891e-7, 8.107e-7
-0.263, -1.795e-6, -9.839e-7, 8.114e-7
-0.264, -1.794e-6, -9.860e-7, 8.083e-7
-0.265, -1.798e-6, -9.885e-7, 8.095e-7
-0.266, -1.793e-6, -9.830e-7, 8.101e-7
-0.267, -1.794e-6, -9.866e-7, 8.074e-7
-0.268, -1.799e-6, -9.897e-7, 8.095e-7
-0.269, -1.800e-6, -9.882e-7, 8.117e-7
-0.270, -1.791e-6, -9.827e-7, 8.080e-7
-0.271, -1.793e-6, -9.851e-7, 8.083e-7
-0.272, -1.790e-6, -9.814e-7, 8.083e-7
-0.273, -1.793e-6, -9.866e-7, 8.068e-7
-0.274, -1.792e-6, -9.833e-7, 8.083e-7
-0.275, -1.787e-6, -9.793e-7, 8.077e-7
-0.276, -1.789e-6, -9.839e-7, 8.056e-7
-0.277, -1.790e-6, -9.836e-7, 8.065e-7
-0.278, -1.789e-6, -9.799e-7, 8.089e-7
-0.279, -1.783e-6, -9.778e-7, 8.049e-7
-0.280, -1.787e-6, -9.802e-7, 8.068e-7
-0.281, -1.785e-6, -9.793e-7, 8.062e-7
-0.282, -1.788e-6, -9.836e-7, 8.046e-7
-0.283, -1.783e-6, -9.778e-7, 8.049e-7
-0.284, -1.784e-6, -9.784e-7, 8.056e-7
-0.285, -1.784e-6, -9.799e-7, 8.043e-7
-0.286, -1.785e-6, -9.793e-7, 8.056e-7
-0.287, -1.780e-6, -9.775e-7, 8.025e-7
-0.288, -1.782e-6, -9.778e-7, 8.037e-7
-0.289, -1.779e-6, -9.750e-7, 8.043e-7
-0.290, -1.779e-6, -9.772e-7, 8.016e-7
-0.291, -1.778e-6, -9.747e-7, 8.031e-7
-0.292, -1.778e-6, -9.732e-7, 8.049e-7
-0.293, -1.781e-6, -9.775e-7, 8.034e-7
-0.294, -1.775e-6, -9.735e-7, 8.019e-7
-0.295, -1.775e-6, -9.735e-7, 8.016e-7
-0.296, -1.775e-6, -9.744e-7, 8.007e-7
-0.297, -1.774e-6, -9.729e-7, 8.016e-7
-0.298, -1.777e-6, -9.747e-7, 8.019e-7
-0.299, -1.770e-6, -9.695e-7, 8.007e-7
-0.300, -1.777e-6, -9.760e-7, 8.010e-7
-0.301, -1.771e-6, -9.705e-7, 8.010e-7
-0.302, -1.778e-6, -9.790e-7, 7.992e-7
-0.303, -1.770e-6, -9.692e-7, 8.007e-7
-0.304, -1.773e-6, -9.723e-7, 8.007e-7
-0.305, -1.769e-6, -9.708e-7, 7.982e-7
-0.306, -1.765e-6, -9.668e-7, 7.982e-7
-0.307, -1.769e-6, -9.711e-7, 7.976e-7
-0.308, -1.770e-6, -9.726e-7, 7.976e-7
-0.309, -1.768e-6, -9.695e-7, 7.982e-7
-0.310, -1.768e-6, -9.726e-7, 7.958e-7
-0.311, -1.767e-6, -9.692e-7, 7.979e-7
-0.312, -1.766e-6, -9.671e-7, 7.985e-7
-0.313, -1.761e-6, -9.668e-7, 7.943e-7
-0.314, -1.765e-6, -9.683e-7, 7.964e-7
-0.315, -1.765e-6, -9.677e-7, 7.976e-7
-0.316, -1.766e-6, -9.702e-7, 7.958e-7
-0.317, -1.764e-6, -9.671e-7, 7.973e-7
-0.318, -1.761e-6, -9.647e-7, 7.961e-7
-0.319, -1.761e-6, -9.662e-7, 7.952e-7
-0.320, -1.761e-6, -9.653e-7, 7.958e-7
-0.321, -1.758e-6, -9.641e-7, 7.943e-7
-0.322, -1.763e-6, -9.680e-7, 7.952e-7
-0.323, -1.761e-6, -9.647e-7, 7.967e-7
-0.324, -1.762e-6, -9.668e-7, 7.952e-7
-0.325, -1.762e-6, -9.692e-7, 7.930e-7
-0.326, -1.762e-6, -9.665e-7, 7.952e-7
-0.327, -1.757e-6, -9.659e-7, 7.915e-7
-0.328, -1.758e-6, -9.668e-7, 7.912e-7
-0.329, -1.757e-6, -9.644e-7, 7.924e-7
-0.330, -1.758e-6, -9.647e-7, 7.930e-7
-0.331, -1.759e-6, -9.674e-7, 7.918e-7
-0.332, -1.756e-6, -9.631e-7, 7.930e-7
-0.333, -1.753e-6, -9.607e-7, 7.918e-7
-0.334, -1.752e-6, -9.631e-7, 7.891e-7
-0.335, -1.757e-6, -9.650e-7, 7.918e-7
-0.336, -1.756e-6, -9.647e-7, 7.918e-7
-0.337, -1.753e-6, -9.619e-7, 7.915e-7
-0.338, -1.757e-6, -9.647e-7, 7.924e-7
-0.339, -1.753e-6, -9.628e-7, 7.897e-7
-0.340, -1.753e-6, -9.622e-7, 7.906e-7
-0.341, -1.756e-6, -9.668e-7, 7.891e-7
-0.342, -1.758e-6, -9.674e-7, 7.909e-7
-0.343, -1.754e-6, -9.628e-7, 7.915e-7
-0.344, -1.752e-6, -9.634e-7, 7.882e-7
-0.345, -1.756e-6, -9.671e-7, 7.894e-7
-0.346, -1.758e-6, -9.677e-7, 7.906e-7
-0.347, -1.752e-6, -9.637e-7, 7.885e-7
-0.348, -1.757e-6, -9.686e-7, 7.882e-7
-0.349, -1.753e-6, -9.659e-7, 7.876e-7
-0.350, -1.753e-6, -9.665e-7, 7.863e-7
-0.351, -1.755e-6, -9.677e-7, 7.876e-7
-0.352, -1.751e-6, -9.637e-7, 7.876e-7
-0.353, -1.749e-6, -9.625e-7, 7.869e-7
-0.354, -1.751e-6, -9.641e-7, 7.872e-7
-0.355, -1.749e-6, -9.650e-7, 7.845e-7
-0.356, -1.750e-6, -9.656e-7, 7.848e-7
-0.357, -1.756e-6, -9.692e-7, 7.869e-7
-0.358, -1.749e-6, -9.644e-7, 7.851e-7
-0.359, -1.757e-6, -9.714e-7, 7.854e-7
-0.360, -1.751e-6, -9.665e-7, 7.848e-7
-0.361, -1.749e-6, -9.662e-7, 7.830e-7
-0.362, -1.749e-6, -9.668e-7, 7.821e-7
-0.363, -1.753e-6, -9.692e-7, 7.836e-7
-0.364, -1.746e-6, -9.637e-7, 7.824e-7
-0.365, -1.752e-6, -9.692e-7, 7.830e-7
-0.366, -1.752e-6, -9.680e-7, 7.839e-7
-0.367, -1.748e-6, -9.671e-7, 7.811e-7
-0.368, -1.748e-6, -9.671e-7, 7.808e-7
-0.369, -1.751e-6, -9.680e-7, 7.827e-7
-0.370, -1.750e-6, -9.695e-7, 7.808e-7
-0.371, -1.747e-6, -9.677e-7, 7.793e-7
-0.372, -1.746e-6, -9.656e-7, 7.805e-7
-0.373, -1.752e-6, -9.732e-7, 7.787e-7
-0.374, -1.747e-6, -9.699e-7, 7.772e-7
-0.375, -1.747e-6, -9.674e-7, 7.793e-7
-0.376, -1.747e-6, -9.695e-7, 7.775e-7
-0.377, -1.752e-6, -9.744e-7, 7.772e-7
-0.378, -1.745e-6, -9.671e-7, 7.778e-7
-0.379, -1.746e-6, -9.695e-7, 7.769e-7
-0.380, -1.749e-6, -9.711e-7, 7.781e-7
-0.381, -1.751e-6, -9.741e-7, 7.769e-7
-0.382, -1.747e-6, -9.708e-7, 7.760e-7
-0.383, -1.752e-6, -9.756e-7, 7.766e-7
-0.384, -1.746e-6, -9.699e-7, 7.757e-7
-0.385, -1.749e-6, -9.744e-7, 7.741e-7
-0.386, -1.750e-6, -9.756e-7, 7.747e-7
-0.387, -1.747e-6, -9.741e-7, 7.729e-7
-0.388, -1.746e-6, -9.723e-7, 7.741e-7
-0.389, -1.746e-6, -9.726e-7, 7.732e-7
-0.390, -1.747e-6, -9.741e-7, 7.729e-7
-0.391, -1.750e-6, -9.787e-7, 7.717e-7
-0.392, -1.749e-6, -9.756e-7, 7.729e-7
-0.393, -1.747e-6, -9.750e-7, 7.717e-7
-0.394, -1.752e-6, -9.787e-7, 7.729e-7
-0.395, -1.746e-6, -9.753e-7, 7.711e-7
-0.396, -1.750e-6, -9.793e-7, 7.705e-7
-0.397, -1.745e-6, -9.732e-7, 7.714e-7
-0.398, -1.753e-6, -9.833e-7, 7.699e-7
-0.399, -1.748e-6, -9.802e-7, 7.677e-7
-0.400, -1.753e-6, -9.827e-7, 7.702e-7
