Mar. 20, 2018   15:10:33
Square Wave Voltammetry
File: c:\users\electrochemist\desktop\2018\20032018_unbufarray_unpap\42_g1_ph7,46_4.txt
Data Source:  Experiment
Instrument Model:  CHI1040A
Header: 
Note: 

Init E (V) = 0.7
Final E (V) = -0.4
Incr E (V) = 0.001
Amplitude (V) = 0.1
Frequency (Hz) = 152
Quiet Time (sec) = 2
Sensitivity (A/V) = 1e-6

Difference:

Forward:

Reverse:

Potential/V, Diff(i/A), For(i/A), Rev(i/A)

0.699, -8.496e-7, -2.304e-7, 6.191e-7
0.698, -1.081e-6, -5.258e-7, 5.556e-7
0.697, -1.088e-6, -5.448e-7, 5.428e-7
0.696, -1.085e-6, -5.493e-7, 5.358e-7
0.695, -1.079e-6, -5.481e-7, 5.306e-7
0.694, -1.079e-6, -5.539e-7, 5.254e-7
0.693, -1.078e-6, -5.521e-7, 5.257e-7
0.692, -1.070e-6, -5.502e-7, 5.202e-7
0.691, -1.070e-6, -5.536e-7, 5.163e-7
0.690, -1.073e-6, -5.536e-7, 5.190e-7
0.689, -1.067e-6, -5.512e-7, 5.157e-7
0.688, -1.068e-6, -5.551e-7, 5.129e-7
0.687, -1.065e-6, -5.527e-7, 5.126e-7
0.686, -1.062e-6, -5.524e-7, 5.093e-7
0.685, -1.063e-6, -5.570e-7, 5.059e-7
0.684, -1.065e-6, -5.548e-7, 5.102e-7
0.683, -1.059e-6, -5.542e-7, 5.050e-7
0.682, -1.062e-6, -5.576e-7, 5.047e-7
0.681, -1.060e-6, -5.542e-7, 5.059e-7
0.680, -1.059e-6, -5.545e-7, 5.041e-7
0.679, -1.059e-6, -5.576e-7, 5.010e-7
0.678, -1.056e-6, -5.551e-7, 5.013e-7
0.677, -1.055e-6, -5.579e-7, 4.967e-7
0.676, -1.057e-6, -5.573e-7, 4.995e-7
0.675, -1.053e-6, -5.557e-7, 4.977e-7
0.674, -1.054e-6, -5.570e-7, 4.967e-7
0.673, -1.055e-6, -5.579e-7, 4.974e-7
0.672, -1.049e-6, -5.576e-7, 4.919e-7
0.671, -1.053e-6, -5.594e-7, 4.937e-7
0.670, -1.051e-6, -5.585e-7, 4.928e-7
0.669, -1.050e-6, -5.603e-7, 4.897e-7
0.668, -1.056e-6, -5.612e-7, 4.943e-7
0.667, -1.052e-6, -5.585e-7, 4.931e-7
0.666, -1.049e-6, -5.588e-7, 4.897e-7
0.665, -1.046e-6, -5.585e-7, 4.879e-7
0.664, -1.046e-6, -5.582e-7, 4.876e-7
0.663, -1.048e-6, -5.609e-7, 4.873e-7
0.662, -1.048e-6, -5.606e-7, 4.873e-7
0.661, -1.050e-6, -5.612e-7, 4.885e-7
0.660, -1.049e-6, -5.618e-7, 4.870e-7
0.659, -1.049e-6, -5.637e-7, 4.852e-7
0.658, -1.048e-6, -5.615e-7, 4.864e-7
0.657, -1.045e-6, -5.612e-7, 4.836e-7
0.656, -1.042e-6, -5.606e-7, 4.818e-7
0.655, -1.045e-6, -5.603e-7, 4.842e-7
0.654, -1.043e-6, -5.625e-7, 4.803e-7
0.653, -1.046e-6, -5.615e-7, 4.848e-7
0.652, -1.045e-6, -5.625e-7, 4.824e-7
0.651, -1.045e-6, -5.649e-7, 4.803e-7
0.650, -1.045e-6, -5.625e-7, 4.824e-7
0.649, -1.042e-6, -5.640e-7, 4.778e-7
0.648, -1.044e-6, -5.652e-7, 4.790e-7
0.647, -1.043e-6, -5.625e-7, 4.803e-7
0.646, -1.039e-6, -5.637e-7, 4.754e-7
0.645, -1.045e-6, -5.676e-7, 4.775e-7
0.644, -1.042e-6, -5.637e-7, 4.784e-7
0.643, -1.041e-6, -5.667e-7, 4.745e-7
0.642, -1.046e-6, -5.676e-7, 4.781e-7
0.641, -1.042e-6, -5.649e-7, 4.772e-7
0.640, -1.039e-6, -5.658e-7, 4.733e-7
0.639, -1.042e-6, -5.676e-7, 4.748e-7
0.638, -1.038e-6, -5.634e-7, 4.751e-7
0.637, -1.039e-6, -5.658e-7, 4.733e-7
0.636, -1.040e-6, -5.698e-7, 4.705e-7
0.635, -1.038e-6, -5.649e-7, 4.726e-7
0.634, -1.038e-6, -5.670e-7, 4.705e-7
0.633, -1.045e-6, -5.716e-7, 4.736e-7
0.632, -1.040e-6, -5.676e-7, 4.723e-7
0.631, -1.039e-6, -5.686e-7, 4.702e-7
0.630, -1.042e-6, -5.701e-7, 4.717e-7
0.629, -1.038e-6, -5.673e-7, 4.708e-7
0.628, -1.040e-6, -5.692e-7, 4.708e-7
0.627, -1.033e-6, -5.679e-7, 4.650e-7
0.626, -1.040e-6, -5.698e-7, 4.702e-7
0.625, -1.038e-6, -5.710e-7, 4.675e-7
0.624, -1.038e-6, -5.695e-7, 4.681e-7
0.623, -1.037e-6, -5.698e-7, 4.668e-7
0.622, -1.038e-6, -5.716e-7, 4.662e-7
0.621, -1.037e-6, -5.695e-7, 4.671e-7
0.620, -1.037e-6, -5.701e-7, 4.668e-7
0.619, -1.040e-6, -5.722e-7, 4.675e-7
0.618, -1.034e-6, -5.670e-7, 4.671e-7
0.617, -1.040e-6, -5.744e-7, 4.653e-7
0.616, -1.039e-6, -5.713e-7, 4.678e-7
0.615, -1.039e-6, -5.719e-7, 4.675e-7
0.614, -1.040e-6, -5.744e-7, 4.659e-7
0.613, -1.039e-6, -5.734e-7, 4.653e-7
0.612, -1.039e-6, -5.734e-7, 4.656e-7
0.611, -1.039e-6, -5.753e-7, 4.635e-7
0.610, -1.043e-6, -5.747e-7, 4.684e-7
0.609, -1.039e-6, -5.744e-7, 4.644e-7
0.608, -1.040e-6, -5.753e-7, 4.650e-7
0.607, -1.042e-6, -5.765e-7, 4.653e-7
0.606, -1.036e-6, -5.747e-7, 4.614e-7
0.605, -1.040e-6, -5.756e-7, 4.644e-7
0.604, -1.039e-6, -5.747e-7, 4.647e-7
0.603, -1.037e-6, -5.753e-7, 4.617e-7
0.602, -1.042e-6, -5.777e-7, 4.638e-7
0.601, -1.042e-6, -5.774e-7, 4.644e-7
0.600, -1.039e-6, -5.783e-7, 4.610e-7
0.599, -1.042e-6, -5.795e-7, 4.629e-7
0.598, -1.041e-6, -5.777e-7, 4.629e-7
0.597, -1.040e-6, -5.789e-7, 4.614e-7
0.596, -1.045e-6, -5.808e-7, 4.644e-7
0.595, -1.038e-6, -5.771e-7, 4.614e-7
0.594, -1.045e-6, -5.820e-7, 4.632e-7
0.593, -1.045e-6, -5.832e-7, 4.620e-7
0.592, -1.042e-6, -5.789e-7, 4.635e-7
0.591, -1.046e-6, -5.844e-7, 4.617e-7
0.590, -1.044e-6, -5.826e-7, 4.617e-7
0.589, -1.044e-6, -5.802e-7, 4.635e-7
0.588, -1.043e-6, -5.838e-7, 4.595e-7
0.587, -1.049e-6, -5.841e-7, 4.647e-7
0.586, -1.046e-6, -5.835e-7, 4.629e-7
0.585, -1.048e-6, -5.853e-7, 4.623e-7
0.584, -1.050e-6, -5.853e-7, 4.644e-7
0.583, -1.046e-6, -5.844e-7, 4.614e-7
0.582, -1.050e-6, -5.884e-7, 4.613e-7
0.581, -1.049e-6, -5.856e-7, 4.638e-7
0.580, -1.044e-6, -5.841e-7, 4.601e-7
0.579, -1.050e-6, -5.896e-7, 4.607e-7
0.578, -1.051e-6, -5.872e-7, 4.638e-7
0.577, -1.048e-6, -5.878e-7, 4.604e-7
0.576, -1.052e-6, -5.899e-7, 4.620e-7
0.575, -1.053e-6, -5.893e-7, 4.638e-7
0.574, -1.055e-6, -5.911e-7, 4.641e-7
0.573, -1.056e-6, -5.914e-7, 4.641e-7
0.572, -1.055e-6, -5.914e-7, 4.635e-7
0.571, -1.056e-6, -5.936e-7, 4.626e-7
0.570, -1.057e-6, -5.918e-7, 4.656e-7
0.569, -1.058e-6, -5.957e-7, 4.623e-7
0.568, -1.058e-6, -5.954e-7, 4.623e-7
0.567, -1.058e-6, -5.945e-7, 4.635e-7
0.566, -1.062e-6, -5.951e-7, 4.665e-7
0.565, -1.060e-6, -5.972e-7, 4.623e-7
0.564, -1.060e-6, -5.960e-7, 4.641e-7
0.563, -1.059e-6, -5.963e-7, 4.629e-7
0.562, -1.060e-6, -5.969e-7, 4.629e-7
0.561, -1.061e-6, -5.969e-7, 4.644e-7
0.560, -1.063e-6, -5.991e-7, 4.641e-7
0.559, -1.064e-6, -5.997e-7, 4.644e-7
0.558, -1.063e-6, -5.994e-7, 4.638e-7
0.557, -1.065e-6, -6.012e-7, 4.635e-7
0.556, -1.067e-6, -6.018e-7, 4.653e-7
0.555, -1.067e-6, -6.012e-7, 4.662e-7
0.554, -1.068e-6, -6.033e-7, 4.644e-7
0.553, -1.069e-6, -6.040e-7, 4.650e-7
0.552, -1.068e-6, -6.018e-7, 4.665e-7
0.551, -1.066e-6, -6.037e-7, 4.626e-7
0.550, -1.072e-6, -6.049e-7, 4.671e-7
0.549, -1.071e-6, -6.055e-7, 4.653e-7
0.548, -1.071e-6, -6.067e-7, 4.647e-7
0.547, -1.072e-6, -6.043e-7, 4.681e-7
0.546, -1.073e-6, -6.064e-7, 4.662e-7
0.545, -1.075e-6, -6.091e-7, 4.662e-7
0.544, -1.074e-6, -6.067e-7, 4.671e-7
0.543, -1.072e-6, -6.076e-7, 4.644e-7
0.542, -1.074e-6, -6.091e-7, 4.647e-7
0.541, -1.080e-6, -6.101e-7, 4.699e-7
0.540, -1.074e-6, -6.104e-7, 4.635e-7
0.539, -1.078e-6, -6.125e-7, 4.659e-7
0.538, -1.076e-6, -6.091e-7, 4.665e-7
0.537, -1.076e-6, -6.110e-7, 4.647e-7
0.536, -1.080e-6, -6.128e-7, 4.675e-7
0.535, -1.082e-6, -6.122e-7, 4.702e-7
0.534, -1.080e-6, -6.137e-7, 4.662e-7
0.533, -1.082e-6, -6.143e-7, 4.681e-7
0.532, -1.083e-6, -6.119e-7, 4.711e-7
0.531, -1.080e-6, -6.156e-7, 4.644e-7
0.530, -1.084e-6, -6.180e-7, 4.659e-7
0.529, -1.085e-6, -6.152e-7, 4.693e-7
0.528, -1.083e-6, -6.168e-7, 4.665e-7
0.527, -1.088e-6, -6.186e-7, 4.690e-7
0.526, -1.085e-6, -6.159e-7, 4.693e-7
0.525, -1.089e-6, -6.214e-7, 4.675e-7
0.524, -1.090e-6, -6.204e-7, 4.699e-7
0.523, -1.089e-6, -6.195e-7, 4.696e-7
0.522, -1.088e-6, -6.195e-7, 4.684e-7
0.521, -1.090e-6, -6.210e-7, 4.690e-7
0.520, -1.088e-6, -6.207e-7, 4.675e-7
0.519, -1.091e-6, -6.217e-7, 4.693e-7
0.518, -1.090e-6, -6.229e-7, 4.668e-7
0.517, -1.091e-6, -6.235e-7, 4.675e-7
0.516, -1.090e-6, -6.223e-7, 4.678e-7
0.515, -1.093e-6, -6.238e-7, 4.693e-7
0.514, -1.092e-6, -6.256e-7, 4.659e-7
0.513, -1.093e-6, -6.244e-7, 4.684e-7
0.512, -1.097e-6, -6.271e-7, 4.696e-7
0.511, -1.098e-6, -6.287e-7, 4.693e-7
0.510, -1.099e-6, -6.278e-7, 4.717e-7
0.509, -1.095e-6, -6.265e-7, 4.684e-7
0.508, -1.097e-6, -6.278e-7, 4.693e-7
0.507, -1.101e-6, -6.284e-7, 4.726e-7
0.506, -1.098e-6, -6.284e-7, 4.696e-7
0.505, -1.099e-6, -6.299e-7, 4.690e-7
0.504, -1.105e-6, -6.329e-7, 4.717e-7
0.503, -1.105e-6, -6.339e-7, 4.708e-7
0.502, -1.103e-6, -6.329e-7, 4.696e-7
0.501, -1.107e-6, -6.336e-7, 4.736e-7
0.500, -1.104e-6, -6.329e-7, 4.714e-7
0.499, -1.105e-6, -6.351e-7, 4.696e-7
0.498, -1.103e-6, -6.326e-7, 4.708e-7
0.497, -1.106e-6, -6.348e-7, 4.708e-7
0.496, -1.109e-6, -6.366e-7, 4.723e-7
0.495, -1.108e-6, -6.354e-7, 4.726e-7
0.494, -1.110e-6, -6.363e-7, 4.736e-7
0.493, -1.115e-6, -6.406e-7, 4.745e-7
0.492, -1.111e-6, -6.381e-7, 4.729e-7
0.491, -1.113e-6, -6.409e-7, 4.720e-7
0.490, -1.116e-6, -6.418e-7, 4.745e-7
0.489, -1.112e-6, -6.387e-7, 4.736e-7
0.488, -1.115e-6, -6.430e-7, 4.717e-7
0.487, -1.115e-6, -6.409e-7, 4.742e-7
0.486, -1.119e-6, -6.442e-7, 4.748e-7
0.485, -1.117e-6, -6.461e-7, 4.711e-7
0.484, -1.119e-6, -6.442e-7, 4.745e-7
0.483, -1.120e-6, -6.427e-7, 4.769e-7
0.482, -1.124e-6, -6.488e-7, 4.754e-7
0.481, -1.126e-6, -6.479e-7, 4.781e-7
0.480, -1.124e-6, -6.470e-7, 4.766e-7
0.479, -1.127e-6, -6.519e-7, 4.748e-7
0.478, -1.127e-6, -6.497e-7, 4.775e-7
0.477, -1.127e-6, -6.494e-7, 4.775e-7
0.476, -1.132e-6, -6.546e-7, 4.775e-7
0.475, -1.131e-6, -6.522e-7, 4.790e-7
0.474, -1.131e-6, -6.519e-7, 4.787e-7
0.473, -1.134e-6, -6.549e-7, 4.794e-7
0.472, -1.134e-6, -6.549e-7, 4.794e-7
0.471, -1.137e-6, -6.564e-7, 4.809e-7
0.470, -1.140e-6, -6.583e-7, 4.815e-7
0.469, -1.136e-6, -6.568e-7, 4.794e-7
0.468, -1.139e-6, -6.589e-7, 4.797e-7
0.467, -1.141e-6, -6.586e-7, 4.821e-7
0.466, -1.141e-6, -6.586e-7, 4.821e-7
0.465, -1.144e-6, -6.619e-7, 4.818e-7
0.464, -1.144e-6, -6.607e-7, 4.833e-7
0.463, -1.146e-6, -6.622e-7, 4.833e-7
0.462, -1.146e-6, -6.632e-7, 4.830e-7
0.461, -1.148e-6, -6.629e-7, 4.848e-7
0.460, -1.149e-6, -6.641e-7, 4.845e-7
0.459, -1.152e-6, -6.665e-7, 4.852e-7
0.458, -1.151e-6, -6.647e-7, 4.864e-7
0.457, -1.154e-6, -6.674e-7, 4.867e-7
0.456, -1.158e-6, -6.723e-7, 4.858e-7
0.455, -1.156e-6, -6.674e-7, 4.885e-7
0.454, -1.155e-6, -6.693e-7, 4.858e-7
0.453, -1.161e-6, -6.729e-7, 4.879e-7
0.452, -1.157e-6, -6.705e-7, 4.870e-7
0.451, -1.161e-6, -6.729e-7, 4.876e-7
0.450, -1.164e-6, -6.757e-7, 4.882e-7
0.449, -1.162e-6, -6.741e-7, 4.876e-7
0.448, -1.166e-6, -6.763e-7, 4.894e-7
0.447, -1.168e-6, -6.784e-7, 4.894e-7
0.446, -1.168e-6, -6.763e-7, 4.916e-7
0.445, -1.165e-6, -6.796e-7, 4.858e-7
0.444, -1.170e-6, -6.790e-7, 4.906e-7
0.443, -1.167e-6, -6.778e-7, 4.894e-7
0.442, -1.172e-6, -6.818e-7, 4.900e-7
0.441, -1.174e-6, -6.818e-7, 4.925e-7
0.440, -1.171e-6, -6.799e-7, 4.906e-7
0.439, -1.173e-6, -6.821e-7, 4.906e-7
0.438, -1.175e-6, -6.806e-7, 4.946e-7
0.437, -1.174e-6, -6.833e-7, 4.909e-7
0.436, -1.179e-6, -6.860e-7, 4.925e-7
0.435, -1.178e-6, -6.848e-7, 4.928e-7
0.434, -1.180e-6, -6.879e-7, 4.925e-7
0.433, -1.182e-6, -6.885e-7, 4.931e-7
0.432, -1.181e-6, -6.854e-7, 4.958e-7
0.431, -1.182e-6, -6.888e-7, 4.937e-7
0.430, -1.186e-6, -6.906e-7, 4.955e-7
0.429, -1.187e-6, -6.900e-7, 4.971e-7
0.428, -1.187e-6, -6.915e-7, 4.958e-7
0.427, -1.192e-6, -6.940e-7, 4.980e-7
0.426, -1.192e-6, -6.937e-7, 4.980e-7
0.425, -1.188e-6, -6.940e-7, 4.943e-7
0.424, -1.197e-6, -6.992e-7, 4.983e-7
0.423, -1.193e-6, -6.952e-7, 4.977e-7
0.422, -1.196e-6, -6.973e-7, 4.986e-7
0.421, -1.197e-6, -6.998e-7, 4.977e-7
0.420, -1.197e-6, -6.970e-7, 5.004e-7
0.419, -1.197e-6, -7.004e-7, 4.971e-7
0.418, -1.199e-6, -6.989e-7, 5.004e-7
0.417, -1.199e-6, -7.007e-7, 4.983e-7
0.416, -1.204e-6, -7.025e-7, 5.016e-7
0.415, -1.201e-6, -7.001e-7, 5.010e-7
0.414, -1.203e-6, -7.019e-7, 5.010e-7
0.413, -1.208e-6, -7.053e-7, 5.022e-7
0.412, -1.204e-6, -7.034e-7, 5.010e-7
0.411, -1.208e-6, -7.053e-7, 5.025e-7
0.410, -1.211e-6, -7.074e-7, 5.038e-7
0.409, -1.208e-6, -7.059e-7, 5.025e-7
0.408, -1.210e-6, -7.095e-7, 5.004e-7
0.407, -1.214e-6, -7.098e-7, 5.038e-7
0.406, -1.214e-6, -7.089e-7, 5.047e-7
0.405, -1.213e-6, -7.111e-7, 5.016e-7
0.404, -1.217e-6, -7.123e-7, 5.050e-7
0.403, -1.216e-6, -7.108e-7, 5.050e-7
0.402, -1.218e-6, -7.144e-7, 5.038e-7
0.401, -1.220e-6, -7.138e-7, 5.065e-7
0.400, -1.219e-6, -7.144e-7, 5.047e-7
0.399, -1.221e-6, -7.163e-7, 5.050e-7
0.398, -1.222e-6, -7.141e-7, 5.080e-7
0.397, -1.223e-6, -7.160e-7, 5.071e-7
0.396, -1.230e-6, -7.199e-7, 5.099e-7
0.395, -1.231e-6, -7.211e-7, 5.099e-7
0.394, -1.227e-6, -7.193e-7, 5.077e-7
0.393, -1.233e-6, -7.230e-7, 5.105e-7
0.392, -1.233e-6, -7.202e-7, 5.132e-7
0.391, -1.233e-6, -7.230e-7, 5.105e-7
0.390, -1.235e-6, -7.242e-7, 5.105e-7
0.389, -1.238e-6, -7.248e-7, 5.129e-7
0.388, -1.237e-6, -7.279e-7, 5.090e-7
0.387, -1.245e-6, -7.297e-7, 5.151e-7
0.386, -1.240e-6, -7.272e-7, 5.123e-7
0.385, -1.241e-6, -7.294e-7, 5.117e-7
0.384, -1.246e-6, -7.294e-7, 5.169e-7
0.383, -1.243e-6, -7.285e-7, 5.144e-7
0.382, -1.244e-6, -7.312e-7, 5.132e-7
0.381, -1.252e-6, -7.340e-7, 5.178e-7
0.380, -1.253e-6, -7.346e-7, 5.187e-7
0.379, -1.252e-6, -7.358e-7, 5.160e-7
0.378, -1.256e-6, -7.361e-7, 5.196e-7
0.377, -1.254e-6, -7.361e-7, 5.181e-7
0.376, -1.261e-6, -7.425e-7, 5.184e-7
0.375, -1.258e-6, -7.373e-7, 5.202e-7
0.374, -1.257e-6, -7.376e-7, 5.193e-7
0.373, -1.262e-6, -7.437e-7, 5.178e-7
0.372, -1.266e-6, -7.434e-7, 5.230e-7
0.371, -1.264e-6, -7.431e-7, 5.205e-7
0.370, -1.264e-6, -7.452e-7, 5.190e-7
0.369, -1.268e-6, -7.437e-7, 5.239e-7
0.368, -1.271e-6, -7.477e-7, 5.236e-7
0.367, -1.270e-6, -7.486e-7, 5.218e-7
0.366, -1.270e-6, -7.462e-7, 5.239e-7
0.365, -1.275e-6, -7.498e-7, 5.248e-7
0.364, -1.278e-6, -7.517e-7, 5.263e-7
0.363, -1.277e-6, -7.501e-7, 5.267e-7
0.362, -1.282e-6, -7.556e-7, 5.260e-7
0.361, -1.282e-6, -7.544e-7, 5.273e-7
0.360, -1.283e-6, -7.547e-7, 5.282e-7
0.359, -1.285e-6, -7.562e-7, 5.291e-7
0.358, -1.288e-6, -7.571e-7, 5.309e-7
0.357, -1.287e-6, -7.587e-7, 5.288e-7
0.356, -1.290e-6, -7.596e-7, 5.303e-7
0.355, -1.294e-6, -7.605e-7, 5.331e-7
0.354, -1.292e-6, -7.617e-7, 5.306e-7
0.353, -1.295e-6, -7.620e-7, 5.334e-7
0.352, -1.297e-6, -7.629e-7, 5.340e-7
0.351, -1.300e-6, -7.648e-7, 5.352e-7
0.350, -1.302e-6, -7.669e-7, 5.352e-7
0.349, -1.304e-6, -7.657e-7, 5.382e-7
0.348, -1.304e-6, -7.678e-7, 5.358e-7
0.347, -1.309e-6, -7.706e-7, 5.382e-7
0.346, -1.309e-6, -7.697e-7, 5.395e-7
0.345, -1.309e-6, -7.706e-7, 5.389e-7
0.344, -1.312e-6, -7.736e-7, 5.382e-7
0.343, -1.314e-6, -7.727e-7, 5.410e-7
0.342, -1.316e-6, -7.767e-7, 5.392e-7
0.341, -1.315e-6, -7.755e-7, 5.392e-7
0.340, -1.318e-6, -7.761e-7, 5.416e-7
0.339, -1.319e-6, -7.779e-7, 5.413e-7
0.338, -1.324e-6, -7.794e-7, 5.450e-7
0.337, -1.324e-6, -7.800e-7, 5.437e-7
0.336, -1.325e-6, -7.822e-7, 5.425e-7
0.335, -1.327e-6, -7.813e-7, 5.456e-7
0.334, -1.329e-6, -7.846e-7, 5.447e-7
0.333, -1.331e-6, -7.852e-7, 5.459e-7
0.332, -1.334e-6, -7.864e-7, 5.474e-7
0.331, -1.333e-6, -7.877e-7, 5.450e-7
0.330, -1.334e-6, -7.871e-7, 5.468e-7
0.329, -1.337e-6, -7.889e-7, 5.483e-7
0.328, -1.339e-6, -7.913e-7, 5.474e-7
0.327, -1.343e-6, -7.938e-7, 5.489e-7
0.326, -1.344e-6, -7.919e-7, 5.520e-7
0.325, -1.342e-6, -7.938e-7, 5.480e-7
0.324, -1.347e-6, -7.968e-7, 5.498e-7
0.323, -1.347e-6, -7.959e-7, 5.511e-7
0.322, -1.347e-6, -7.956e-7, 5.514e-7
0.321, -1.353e-6, -7.999e-7, 5.532e-7
0.320, -1.350e-6, -7.962e-7, 5.538e-7
0.319, -1.353e-6, -8.017e-7, 5.511e-7
0.318, -1.356e-6, -8.020e-7, 5.538e-7
0.317, -1.357e-6, -8.014e-7, 5.559e-7
0.316, -1.359e-6, -8.032e-7, 5.556e-7
0.315, -1.361e-6, -8.044e-7, 5.566e-7
0.314, -1.360e-6, -8.038e-7, 5.566e-7
0.313, -1.366e-6, -8.075e-7, 5.584e-7
0.312, -1.366e-6, -8.087e-7, 5.572e-7
0.311, -1.367e-6, -8.087e-7, 5.581e-7
0.310, -1.368e-6, -8.096e-7, 5.584e-7
0.309, -1.373e-6, -8.118e-7, 5.611e-7
0.308, -1.372e-6, -8.121e-7, 5.599e-7
0.307, -1.375e-6, -8.148e-7, 5.602e-7
0.306, -1.378e-6, -8.154e-7, 5.624e-7
0.305, -1.379e-6, -8.179e-7, 5.614e-7
0.304, -1.384e-6, -8.182e-7, 5.654e-7
0.303, -1.381e-6, -8.163e-7, 5.651e-7
0.302, -1.385e-6, -8.218e-7, 5.627e-7
0.301, -1.389e-6, -8.218e-7, 5.669e-7
0.300, -1.389e-6, -8.231e-7, 5.660e-7
0.299, -1.391e-6, -8.258e-7, 5.651e-7
0.298, -1.391e-6, -8.237e-7, 5.675e-7
0.297, -1.395e-6, -8.267e-7, 5.678e-7
0.296, -1.395e-6, -8.279e-7, 5.672e-7
0.295, -1.395e-6, -8.270e-7, 5.682e-7
0.294, -1.397e-6, -8.286e-7, 5.688e-7
0.293, -1.399e-6, -8.316e-7, 5.678e-7
0.292, -1.401e-6, -8.301e-7, 5.709e-7
0.291, -1.402e-6, -8.304e-7, 5.712e-7
0.290, -1.408e-6, -8.350e-7, 5.727e-7
0.289, -1.409e-6, -8.365e-7, 5.721e-7
0.288, -1.410e-6, -8.365e-7, 5.736e-7
0.287, -1.417e-6, -8.405e-7, 5.761e-7
0.286, -1.417e-6, -8.408e-7, 5.758e-7
0.285, -1.416e-6, -8.423e-7, 5.736e-7
0.284, -1.421e-6, -8.447e-7, 5.764e-7
0.283, -1.421e-6, -8.420e-7, 5.794e-7
0.282, -1.425e-6, -8.481e-7, 5.767e-7
0.281, -1.429e-6, -8.466e-7, 5.822e-7
0.280, -1.428e-6, -8.472e-7, 5.810e-7
0.279, -1.430e-6, -8.493e-7, 5.807e-7
0.278, -1.435e-6, -8.511e-7, 5.834e-7
0.277, -1.435e-6, -8.517e-7, 5.834e-7
0.276, -1.441e-6, -8.579e-7, 5.831e-7
0.275, -1.441e-6, -8.542e-7, 5.865e-7
0.274, -1.441e-6, -8.557e-7, 5.852e-7
0.273, -1.445e-6, -8.606e-7, 5.846e-7
0.272, -1.452e-6, -8.636e-7, 5.880e-7
0.271, -1.449e-6, -8.591e-7, 5.901e-7
0.270, -1.450e-6, -8.636e-7, 5.868e-7
0.269, -1.457e-6, -8.649e-7, 5.920e-7
0.268, -1.453e-6, -8.630e-7, 5.901e-7
0.267, -1.460e-6, -8.691e-7, 5.907e-7
0.266, -1.462e-6, -8.676e-7, 5.944e-7
0.265, -1.463e-6, -8.691e-7, 5.941e-7
0.264, -1.465e-6, -8.725e-7, 5.929e-7
0.263, -1.469e-6, -8.734e-7, 5.959e-7
0.262, -1.472e-6, -8.759e-7, 5.959e-7
0.261, -1.473e-6, -8.762e-7, 5.965e-7
0.260, -1.477e-6, -8.792e-7, 5.974e-7
0.259, -1.477e-6, -8.807e-7, 5.965e-7
0.258, -1.483e-6, -8.820e-7, 6.014e-7
0.257, -1.485e-6, -8.823e-7, 6.023e-7
0.256, -1.487e-6, -8.850e-7, 6.020e-7
0.255, -1.489e-6, -8.853e-7, 6.039e-7
0.254, -1.493e-6, -8.893e-7, 6.032e-7
0.253, -1.496e-6, -8.905e-7, 6.051e-7
0.252, -1.499e-6, -8.908e-7, 6.081e-7
0.251, -1.502e-6, -8.939e-7, 6.078e-7
0.250, -1.504e-6, -8.957e-7, 6.084e-7
0.249, -1.507e-6, -8.954e-7, 6.112e-7
0.248, -1.509e-6, -8.984e-7, 6.103e-7
0.247, -1.511e-6, -8.990e-7, 6.115e-7
0.246, -1.511e-6, -9.003e-7, 6.106e-7
0.245, -1.515e-6, -9.021e-7, 6.127e-7
0.244, -1.520e-6, -9.045e-7, 6.158e-7
0.243, -1.521e-6, -9.048e-7, 6.158e-7
0.242, -1.523e-6, -9.070e-7, 6.161e-7
0.241, -1.529e-6, -9.113e-7, 6.179e-7
0.240, -1.529e-6, -9.106e-7, 6.179e-7
0.239, -1.532e-6, -9.131e-7, 6.188e-7
0.238, -1.536e-6, -9.146e-7, 6.219e-7
0.237, -1.536e-6, -9.146e-7, 6.209e-7
0.236, -1.541e-6, -9.186e-7, 6.222e-7
0.235, -1.545e-6, -9.213e-7, 6.240e-7
0.234, -1.544e-6, -9.201e-7, 6.243e-7
0.233, -1.552e-6, -9.268e-7, 6.255e-7
0.232, -1.553e-6, -9.250e-7, 6.277e-7
0.231, -1.553e-6, -9.271e-7, 6.258e-7
0.230, -1.560e-6, -9.308e-7, 6.292e-7
0.229, -1.560e-6, -9.290e-7, 6.307e-7
0.228, -1.561e-6, -9.314e-7, 6.298e-7
0.227, -1.566e-6, -9.348e-7, 6.313e-7
0.226, -1.570e-6, -9.344e-7, 6.353e-7
0.225, -1.570e-6, -9.384e-7, 6.319e-7
0.224, -1.573e-6, -9.387e-7, 6.347e-7
0.223, -1.577e-6, -9.393e-7, 6.377e-7
0.222, -1.576e-6, -9.412e-7, 6.350e-7
0.221, -1.581e-6, -9.430e-7, 6.377e-7
0.220, -1.586e-6, -9.442e-7, 6.414e-7
0.219, -1.586e-6, -9.473e-7, 6.386e-7
0.218, -1.591e-6, -9.512e-7, 6.399e-7
0.217, -1.593e-6, -9.485e-7, 6.441e-7
0.216, -1.598e-6, -9.549e-7, 6.432e-7
0.215, -1.599e-6, -9.543e-7, 6.447e-7
0.214, -1.603e-6, -9.552e-7, 6.475e-7
0.213, -1.606e-6, -9.595e-7, 6.463e-7
0.212, -1.608e-6, -9.604e-7, 6.472e-7
0.211, -1.608e-6, -9.598e-7, 6.484e-7
0.210, -1.614e-6, -9.634e-7, 6.505e-7
0.209, -1.617e-6, -9.656e-7, 6.512e-7
0.208, -1.617e-6, -9.668e-7, 6.505e-7
0.207, -1.622e-6, -9.689e-7, 6.533e-7
0.206, -1.623e-6, -9.689e-7, 6.545e-7
0.205, -1.626e-6, -9.711e-7, 6.554e-7
0.204, -1.631e-6, -9.744e-7, 6.563e-7
0.203, -1.633e-6, -9.753e-7, 6.573e-7
0.202, -1.636e-6, -9.787e-7, 6.576e-7
0.201, -1.638e-6, -9.787e-7, 6.591e-7
0.200, -1.641e-6, -9.790e-7, 6.618e-7
0.199, -1.648e-6, -9.851e-7, 6.624e-7
0.198, -1.648e-6, -9.842e-7, 6.634e-7
0.197, -1.650e-6, -9.854e-7, 6.646e-7
0.196, -1.655e-6, -9.894e-7, 6.655e-7
0.195, -1.659e-6, -9.900e-7, 6.685e-7
0.194, -1.662e-6, -9.924e-7, 6.698e-7
0.193, -1.664e-6, -9.961e-7, 6.679e-7
0.192, -1.669e-6, -9.958e-7, 6.731e-7
0.191, -1.670e-6, -9.994e-7, 6.710e-7
0.190, -1.672e-6, -1.000e-6, 6.722e-7
0.189, -1.677e-6, -9.994e-7, 6.774e-7
0.188, -1.679e-6, -1.003e-6, 6.753e-7
0.187, -1.684e-6, -1.007e-6, 6.768e-7
0.186, -1.688e-6, -1.009e-6, 6.789e-7
0.185, -1.687e-6, -1.008e-6, 6.786e-7
0.184, -1.697e-6, -1.014e-6, 6.829e-7
0.183, -1.695e-6, -1.011e-6, 6.835e-7
0.182, -1.699e-6, -1.016e-6, 6.832e-7
0.181, -1.705e-6, -1.018e-6, 6.862e-7
0.180, -1.707e-6, -1.020e-6, 6.872e-7
0.179, -1.710e-6, -1.022e-6, 6.878e-7
0.178, -1.715e-6, -1.023e-6, 6.920e-7
0.177, -1.718e-6, -1.026e-6, 6.927e-7
0.176, -1.721e-6, -1.030e-6, 6.914e-7
0.175, -1.723e-6, -1.029e-6, 6.942e-7
0.174, -1.728e-6, -1.031e-6, 6.969e-7
0.173, -1.732e-6, -1.035e-6, 6.975e-7
0.172, -1.736e-6, -1.036e-6, 7.000e-7
0.171, -1.733e-6, -1.034e-6, 6.991e-7
0.170, -1.741e-6, -1.041e-6, 6.994e-7
0.169, -1.745e-6, -1.041e-6, 7.046e-7
0.168, -1.745e-6, -1.042e-6, 7.033e-7
0.167, -1.750e-6, -1.047e-6, 7.036e-7
0.166, -1.756e-6, -1.047e-6, 7.085e-7
0.165, -1.759e-6, -1.048e-6, 7.107e-7
0.164, -1.763e-6, -1.052e-6, 7.104e-7
0.163, -1.767e-6, -1.053e-6, 7.140e-7
0.162, -1.769e-6, -1.055e-6, 7.140e-7
0.161, -1.774e-6, -1.060e-6, 7.149e-7
0.160, -1.777e-6, -1.059e-6, 7.180e-7
0.159, -1.777e-6, -1.061e-6, 7.158e-7
0.158, -1.785e-6, -1.067e-6, 7.189e-7
0.157, -1.788e-6, -1.065e-6, 7.226e-7
0.156, -1.791e-6, -1.067e-6, 7.241e-7
0.155, -1.797e-6, -1.073e-6, 7.244e-7
0.154, -1.798e-6, -1.071e-6, 7.277e-7
0.153, -1.803e-6, -1.075e-6, 7.284e-7
0.152, -1.805e-6, -1.074e-6, 7.308e-7
0.151, -1.810e-6, -1.078e-6, 7.320e-7
0.150, -1.816e-6, -1.081e-6, 7.351e-7
0.149, -1.817e-6, -1.081e-6, 7.360e-7
0.148, -1.818e-6, -1.082e-6, 7.360e-7
0.147, -1.824e-6, -1.087e-6, 7.369e-7
0.146, -1.830e-6, -1.088e-6, 7.421e-7
0.145, -1.829e-6, -1.088e-6, 7.412e-7
0.144, -1.835e-6, -1.091e-6, 7.436e-7
0.143, -1.838e-6, -1.094e-6, 7.442e-7
0.142, -1.838e-6, -1.094e-6, 7.439e-7
0.141, -1.846e-6, -1.098e-6, 7.473e-7
0.140, -1.850e-6, -1.099e-6, 7.509e-7
0.139, -1.850e-6, -1.101e-6, 7.488e-7
0.138, -1.856e-6, -1.103e-6, 7.531e-7
0.137, -1.856e-6, -1.101e-6, 7.546e-7
0.136, -1.859e-6, -1.105e-6, 7.534e-7
0.135, -1.867e-6, -1.109e-6, 7.577e-7
0.134, -1.867e-6, -1.107e-6, 7.595e-7
0.133, -1.872e-6, -1.112e-6, 7.598e-7
0.132, -1.875e-6, -1.113e-6, 7.628e-7
0.131, -1.877e-6, -1.114e-6, 7.631e-7
0.130, -1.884e-6, -1.118e-6, 7.665e-7
0.129, -1.885e-6, -1.118e-6, 7.665e-7
0.128, -1.885e-6, -1.118e-6, 7.668e-7
0.127, -1.890e-6, -1.122e-6, 7.680e-7
0.126, -1.894e-6, -1.122e-6, 7.717e-7
0.125, -1.894e-6, -1.124e-6, 7.699e-7
0.124, -1.898e-6, -1.126e-6, 7.723e-7
0.123, -1.903e-6, -1.127e-6, 7.760e-7
0.122, -1.904e-6, -1.130e-6, 7.732e-7
0.121, -1.912e-6, -1.132e-6, 7.796e-7
0.120, -1.911e-6, -1.132e-6, 7.787e-7
0.119, -1.915e-6, -1.135e-6, 7.799e-7
0.118, -1.918e-6, -1.136e-6, 7.821e-7
0.117, -1.921e-6, -1.137e-6, 7.842e-7
0.116, -1.923e-6, -1.140e-6, 7.833e-7
0.115, -1.932e-6, -1.143e-6, 7.888e-7
0.114, -1.933e-6, -1.142e-6, 7.912e-7
0.113, -1.934e-6, -1.145e-6, 7.888e-7
0.112, -1.937e-6, -1.146e-6, 7.912e-7
0.111, -1.937e-6, -1.145e-6, 7.921e-7
0.110, -1.943e-6, -1.150e-6, 7.934e-7
0.109, -1.947e-6, -1.150e-6, 7.961e-7
0.108, -1.949e-6, -1.152e-6, 7.967e-7
0.107, -1.950e-6, -1.152e-6, 7.982e-7
0.106, -1.959e-6, -1.158e-6, 8.007e-7
0.105, -1.958e-6, -1.158e-6, 8.004e-7
0.104, -1.960e-6, -1.157e-6, 8.028e-7
0.103, -1.965e-6, -1.159e-6, 8.056e-7
0.102, -1.966e-6, -1.161e-6, 8.050e-7
0.101, -1.970e-6, -1.163e-6, 8.071e-7
0.100, -1.969e-6, -1.162e-6, 8.071e-7
0.099, -1.972e-6, -1.166e-6, 8.062e-7
0.098, -1.976e-6, -1.165e-6, 8.104e-7
0.097, -1.979e-6, -1.166e-6, 8.129e-7
0.096, -1.982e-6, -1.169e-6, 8.123e-7
0.095, -1.984e-6, -1.169e-6, 8.144e-7
0.094, -1.986e-6, -1.169e-6, 8.169e-7
0.093, -1.990e-6, -1.173e-6, 8.169e-7
0.092, -1.992e-6, -1.173e-6, 8.184e-7
0.091, -1.994e-6, -1.174e-6, 8.202e-7
0.090, -1.997e-6, -1.177e-6, 8.205e-7
0.089, -1.998e-6, -1.175e-6, 8.236e-7
0.088, -2.003e-6, -1.178e-6, 8.254e-7
0.087, -2.004e-6, -1.179e-6, 8.254e-7
0.086, -2.009e-6, -1.180e-6, 8.288e-7
0.085, -2.008e-6, -1.181e-6, 8.266e-7
0.084, -2.009e-6, -1.182e-6, 8.266e-7
0.083, -2.015e-6, -1.184e-6, 8.315e-7
0.082, -2.018e-6, -1.185e-6, 8.324e-7
0.081, -2.022e-6, -1.188e-6, 8.342e-7
0.080, -2.021e-6, -1.185e-6, 8.361e-7
0.079, -2.021e-6, -1.187e-6, 8.336e-7
0.078, -2.026e-6, -1.189e-6, 8.367e-7
0.077, -2.029e-6, -1.190e-6, 8.388e-7
0.076, -2.030e-6, -1.191e-6, 8.385e-7
0.075, -2.035e-6, -1.194e-6, 8.413e-7
0.074, -2.036e-6, -1.191e-6, 8.449e-7
0.073, -2.039e-6, -1.195e-6, 8.437e-7
0.072, -2.042e-6, -1.196e-6, 8.461e-7
0.071, -2.040e-6, -1.195e-6, 8.452e-7
0.070, -2.043e-6, -1.197e-6, 8.465e-7
0.069, -2.049e-6, -1.197e-6, 8.510e-7
0.068, -2.050e-6, -1.199e-6, 8.513e-7
0.067, -2.050e-6, -1.202e-6, 8.486e-7
0.066, -2.057e-6, -1.202e-6, 8.553e-7
0.065, -2.057e-6, -1.201e-6, 8.553e-7
0.064, -2.060e-6, -1.205e-6, 8.550e-7
0.063, -2.064e-6, -1.206e-6, 8.580e-7
0.062, -2.061e-6, -1.203e-6, 8.580e-7
0.061, -2.060e-6, -1.203e-6, 8.577e-7
0.060, -2.070e-6, -1.206e-6, 8.635e-7
0.059, -2.065e-6, -1.204e-6, 8.611e-7
0.058, -2.070e-6, -1.208e-6, 8.629e-7
0.057, -2.069e-6, -1.205e-6, 8.635e-7
0.056, -2.072e-6, -1.208e-6, 8.645e-7
0.055, -2.076e-6, -1.211e-6, 8.648e-7
0.054, -2.075e-6, -1.209e-6, 8.657e-7
0.053, -2.076e-6, -1.209e-6, 8.666e-7
0.052, -2.080e-6, -1.211e-6, 8.693e-7
0.051, -2.081e-6, -1.209e-6, 8.715e-7
0.050, -2.083e-6, -1.212e-6, 8.709e-7
0.049, -2.083e-6, -1.212e-6, 8.718e-7
0.048, -2.088e-6, -1.212e-6, 8.764e-7
0.047, -2.088e-6, -1.213e-6, 8.742e-7
0.046, -2.093e-6, -1.215e-6, 8.779e-7
0.045, -2.090e-6, -1.214e-6, 8.761e-7
0.044, -2.092e-6, -1.214e-6, 8.785e-7
0.043, -2.095e-6, -1.216e-6, 8.791e-7
0.042, -2.095e-6, -1.215e-6, 8.794e-7
0.041, -2.098e-6, -1.217e-6, 8.806e-7
0.040, -2.098e-6, -1.215e-6, 8.822e-7
0.039, -2.101e-6, -1.216e-6, 8.849e-7
0.038, -2.104e-6, -1.217e-6, 8.870e-7
0.037, -2.103e-6, -1.216e-6, 8.867e-7
0.036, -2.103e-6, -1.217e-6, 8.858e-7
0.035, -2.104e-6, -1.217e-6, 8.873e-7
0.034, -2.107e-6, -1.215e-6, 8.913e-7
0.033, -2.105e-6, -1.216e-6, 8.883e-7
0.032, -2.107e-6, -1.217e-6, 8.898e-7
0.031, -2.108e-6, -1.216e-6, 8.916e-7
0.030, -2.109e-6, -1.218e-6, 8.910e-7
0.029, -2.110e-6, -1.217e-6, 8.928e-7
0.028, -2.110e-6, -1.217e-6, 8.928e-7
0.027, -2.110e-6, -1.218e-6, 8.922e-7
0.026, -2.111e-6, -1.218e-6, 8.928e-7
0.025, -2.112e-6, -1.215e-6, 8.968e-7
0.024, -2.113e-6, -1.218e-6, 8.953e-7
0.023, -2.115e-6, -1.217e-6, 8.977e-7
0.022, -2.112e-6, -1.218e-6, 8.947e-7
0.021, -2.114e-6, -1.216e-6, 8.974e-7
0.020, -2.113e-6, -1.214e-6, 8.989e-7
0.019, -2.110e-6, -1.214e-6, 8.968e-7
0.018, -2.116e-6, -1.216e-6, 8.999e-7
0.017, -2.114e-6, -1.215e-6, 8.989e-7
0.016, -2.113e-6, -1.214e-6, 8.989e-7
0.015, -2.116e-6, -1.216e-6, 8.999e-7
0.014, -2.115e-6, -1.211e-6, 9.035e-7
0.013, -2.115e-6, -1.213e-6, 9.014e-7
0.012, -2.117e-6, -1.213e-6, 9.035e-7
0.011, -2.115e-6, -1.212e-6, 9.035e-7
0.010, -2.116e-6, -1.214e-6, 9.017e-7
0.009, -2.117e-6, -1.213e-6, 9.044e-7
0.008, -2.116e-6, -1.210e-6, 9.060e-7
0.007, -2.115e-6, -1.209e-6, 9.053e-7
0.006, -2.116e-6, -1.211e-6, 9.047e-7
0.005, -2.117e-6, -1.210e-6, 9.078e-7
0.004, -2.115e-6, -1.211e-6, 9.041e-7
0.003, -2.114e-6, -1.207e-6, 9.072e-7
0.002, -2.115e-6, -1.207e-6, 9.081e-7
0.001, -2.112e-6, -1.205e-6, 9.069e-7
0.000, -2.113e-6, -1.206e-6, 9.066e-7
-0.001, -2.111e-6, -1.204e-6, 9.069e-7
-0.002, -2.112e-6, -1.205e-6, 9.072e-7
-0.003, -2.112e-6, -1.204e-6, 9.081e-7
-0.004, -2.111e-6, -1.202e-6, 9.096e-7
-0.005, -2.110e-6, -1.202e-6, 9.081e-7
-0.006, -2.109e-6, -1.201e-6, 9.084e-7
-0.007, -2.110e-6, -1.201e-6, 9.093e-7
-0.008, -2.109e-6, -1.199e-6, 9.099e-7
-0.009, -2.107e-6, -1.196e-6, 9.105e-7
-0.010, -2.106e-6, -1.197e-6, 9.084e-7
-0.011, -2.106e-6, -1.196e-6, 9.096e-7
-0.012, -2.103e-6, -1.194e-6, 9.096e-7
-0.013, -2.104e-6, -1.195e-6, 9.090e-7
-0.014, -2.104e-6, -1.193e-6, 9.111e-7
-0.015, -2.102e-6, -1.192e-6, 9.099e-7
-0.016, -2.102e-6, -1.193e-6, 9.090e-7
-0.017, -2.101e-6, -1.190e-6, 9.111e-7
-0.018, -2.101e-6, -1.190e-6, 9.111e-7
-0.019, -2.100e-6, -1.192e-6, 9.081e-7
-0.020, -2.100e-6, -1.188e-6, 9.124e-7
-0.021, -2.096e-6, -1.185e-6, 9.102e-7
-0.022, -2.095e-6, -1.185e-6, 9.096e-7
-0.023, -2.095e-6, -1.184e-6, 9.111e-7
-0.024, -2.092e-6, -1.183e-6, 9.090e-7
-0.025, -2.092e-6, -1.184e-6, 9.084e-7
-0.026, -2.089e-6, -1.179e-6, 9.099e-7
-0.027, -2.085e-6, -1.178e-6, 9.072e-7
-0.028, -2.090e-6, -1.180e-6, 9.099e-7
-0.029, -2.085e-6, -1.177e-6, 9.084e-7
-0.030, -2.085e-6, -1.176e-6, 9.087e-7
-0.031, -2.087e-6, -1.176e-6, 9.118e-7
-0.032, -2.081e-6, -1.170e-6, 9.111e-7
-0.033, -2.083e-6, -1.175e-6, 9.081e-7
-0.034, -2.082e-6, -1.172e-6, 9.105e-7
-0.035, -2.080e-6, -1.170e-6, 9.099e-7
-0.036, -2.079e-6, -1.172e-6, 9.078e-7
-0.037, -2.081e-6, -1.171e-6, 9.102e-7
-0.038, -2.071e-6, -1.164e-6, 9.075e-7
-0.039, -2.076e-6, -1.167e-6, 9.090e-7
-0.040, -2.075e-6, -1.165e-6, 9.105e-7
-0.041, -2.074e-6, -1.163e-6, 9.102e-7
-0.042, -2.070e-6, -1.162e-6, 9.075e-7
-0.043, -2.073e-6, -1.163e-6, 9.099e-7
-0.044, -2.066e-6, -1.158e-6, 9.075e-7
-0.045, -2.066e-6, -1.160e-6, 9.063e-7
-0.046, -2.068e-6, -1.160e-6, 9.081e-7
-0.047, -2.062e-6, -1.155e-6, 9.072e-7
-0.048, -2.059e-6, -1.155e-6, 9.035e-7
-0.049, -2.061e-6, -1.153e-6, 9.081e-7
-0.050, -2.059e-6, -1.152e-6, 9.066e-7
-0.051, -2.055e-6, -1.151e-6, 9.032e-7
-0.052, -2.058e-6, -1.152e-6, 9.060e-7
-0.053, -2.055e-6, -1.149e-6, 9.060e-7
-0.054, -2.057e-6, -1.151e-6, 9.066e-7
-0.055, -2.050e-6, -1.146e-6, 9.047e-7
-0.056, -2.052e-6, -1.144e-6, 9.075e-7
-0.057, -2.049e-6, -1.143e-6, 9.060e-7
-0.058, -2.049e-6, -1.144e-6, 9.050e-7
-0.059, -2.047e-6, -1.140e-6, 9.063e-7
-0.060, -2.044e-6, -1.139e-6, 9.053e-7
-0.061, -2.041e-6, -1.139e-6, 9.020e-7
-0.062, -2.041e-6, -1.138e-6, 9.029e-7
-0.063, -2.041e-6, -1.136e-6, 9.047e-7
-0.064, -2.038e-6, -1.135e-6, 9.023e-7
-0.065, -2.036e-6, -1.134e-6, 9.026e-7
-0.066, -2.035e-6, -1.132e-6, 9.038e-7
-0.067, -2.030e-6, -1.130e-6, 9.005e-7
-0.068, -2.033e-6, -1.131e-6, 9.023e-7
-0.069, -2.029e-6, -1.129e-6, 8.999e-7
-0.070, -2.027e-6, -1.126e-6, 9.002e-7
-0.071, -2.025e-6, -1.127e-6, 8.983e-7
-0.072, -2.021e-6, -1.123e-6, 8.974e-7
-0.073, -2.020e-6, -1.124e-6, 8.959e-7
-0.074, -2.020e-6, -1.122e-6, 8.977e-7
-0.075, -2.016e-6, -1.119e-6, 8.974e-7
-0.076, -2.016e-6, -1.119e-6, 8.968e-7
-0.077, -2.014e-6, -1.117e-6, 8.974e-7
-0.078, -2.012e-6, -1.116e-6, 8.965e-7
-0.079, -2.009e-6, -1.116e-6, 8.931e-7
-0.080, -2.010e-6, -1.115e-6, 8.953e-7
-0.081, -2.005e-6, -1.111e-6, 8.947e-7
-0.082, -2.004e-6, -1.112e-6, 8.916e-7
-0.083, -2.002e-6, -1.109e-6, 8.928e-7
-0.084, -2.000e-6, -1.109e-6, 8.907e-7
-0.085, -2.002e-6, -1.111e-6, 8.907e-7
-0.086, -1.998e-6, -1.104e-6, 8.934e-7
-0.087, -1.992e-6, -1.104e-6, 8.876e-7
-0.088, -1.995e-6, -1.103e-6, 8.913e-7
-0.089, -1.991e-6, -1.102e-6, 8.895e-7
-0.090, -1.986e-6, -1.100e-6, 8.861e-7
-0.091, -1.989e-6, -1.100e-6, 8.886e-7
-0.092, -1.987e-6, -1.096e-6, 8.901e-7
-0.093, -1.981e-6, -1.096e-6, 8.855e-7
-0.094, -1.981e-6, -1.097e-6, 8.843e-7
-0.095, -1.978e-6, -1.092e-6, 8.858e-7
-0.096, -1.978e-6, -1.095e-6, 8.831e-7
-0.097, -1.977e-6, -1.093e-6, 8.846e-7
-0.098, -1.972e-6, -1.088e-6, 8.843e-7
-0.099, -1.971e-6, -1.089e-6, 8.822e-7
-0.100, -1.969e-6, -1.089e-6, 8.809e-7
-0.101, -1.969e-6, -1.086e-6, 8.834e-7
-0.102, -1.968e-6, -1.088e-6, 8.800e-7
-0.103, -1.965e-6, -1.085e-6, 8.803e-7
-0.104, -1.960e-6, -1.082e-6, 8.785e-7
-0.105, -1.960e-6, -1.081e-6, 8.794e-7
-0.106, -1.956e-6, -1.078e-6, 8.776e-7
-0.107, -1.955e-6, -1.079e-6, 8.757e-7
-0.108, -1.954e-6, -1.078e-6, 8.757e-7
-0.109, -1.950e-6, -1.075e-6, 8.751e-7
-0.110, -1.949e-6, -1.074e-6, 8.748e-7
-0.111, -1.951e-6, -1.076e-6, 8.754e-7
-0.112, -1.943e-6, -1.070e-6, 8.733e-7
-0.113, -1.942e-6, -1.071e-6, 8.718e-7
-0.114, -1.944e-6, -1.072e-6, 8.718e-7
-0.115, -1.941e-6, -1.069e-6, 8.715e-7
-0.116, -1.936e-6, -1.067e-6, 8.693e-7
-0.117, -1.937e-6, -1.067e-6, 8.699e-7
-0.118, -1.936e-6, -1.066e-6, 8.703e-7
-0.119, -1.932e-6, -1.064e-6, 8.678e-7
-0.120, -1.930e-6, -1.064e-6, 8.669e-7
-0.121, -1.929e-6, -1.061e-6, 8.672e-7
-0.122, -1.928e-6, -1.061e-6, 8.663e-7
-0.123, -1.927e-6, -1.060e-6, 8.672e-7
-0.124, -1.922e-6, -1.058e-6, 8.638e-7
-0.125, -1.922e-6, -1.059e-6, 8.635e-7
-0.126, -1.923e-6, -1.057e-6, 8.660e-7
-0.127, -1.919e-6, -1.057e-6, 8.626e-7
-0.128, -1.916e-6, -1.057e-6, 8.596e-7
-0.129, -1.917e-6, -1.055e-6, 8.614e-7
-0.130, -1.912e-6, -1.052e-6, 8.608e-7
-0.131, -1.914e-6, -1.054e-6, 8.593e-7
-0.132, -1.909e-6, -1.051e-6, 8.584e-7
-0.133, -1.910e-6, -1.052e-6, 8.574e-7
-0.134, -1.911e-6, -1.053e-6, 8.587e-7
-0.135, -1.904e-6, -1.048e-6, 8.562e-7
-0.136, -1.905e-6, -1.050e-6, 8.550e-7
-0.137, -1.908e-6, -1.051e-6, 8.571e-7
-0.138, -1.903e-6, -1.045e-6, 8.574e-7
-0.139, -1.903e-6, -1.048e-6, 8.553e-7
-0.140, -1.901e-6, -1.046e-6, 8.550e-7
-0.141, -1.897e-6, -1.043e-6, 8.538e-7
-0.142, -1.897e-6, -1.044e-6, 8.532e-7
-0.143, -1.895e-6, -1.041e-6, 8.538e-7
-0.144, -1.895e-6, -1.041e-6, 8.541e-7
-0.145, -1.893e-6, -1.041e-6, 8.516e-7
-0.146, -1.890e-6, -1.039e-6, 8.519e-7
-0.147, -1.888e-6, -1.037e-6, 8.510e-7
-0.148, -1.891e-6, -1.041e-6, 8.501e-7
-0.149, -1.892e-6, -1.039e-6, 8.522e-7
-0.150, -1.884e-6, -1.037e-6, 8.471e-7
-0.151, -1.887e-6, -1.038e-6, 8.486e-7
-0.152, -1.886e-6, -1.036e-6, 8.498e-7
-0.153, -1.881e-6, -1.034e-6, 8.471e-7
-0.154, -1.883e-6, -1.037e-6, 8.465e-7
-0.155, -1.881e-6, -1.034e-6, 8.468e-7
-0.156, -1.877e-6, -1.032e-6, 8.449e-7
-0.157, -1.880e-6, -1.035e-6, 8.452e-7
-0.158, -1.876e-6, -1.031e-6, 8.449e-7
-0.159, -1.876e-6, -1.032e-6, 8.437e-7
-0.160, -1.877e-6, -1.033e-6, 8.437e-7
-0.161, -1.874e-6, -1.031e-6, 8.437e-7
-0.162, -1.876e-6, -1.032e-6, 8.434e-7
-0.163, -1.871e-6, -1.029e-6, 8.419e-7
-0.164, -1.872e-6, -1.031e-6, 8.407e-7
-0.165, -1.871e-6, -1.029e-6, 8.419e-7
-0.166, -1.871e-6, -1.030e-6, 8.410e-7
-0.167, -1.869e-6, -1.029e-6, 8.400e-7
-0.168, -1.868e-6, -1.028e-6, 8.397e-7
-0.169, -1.867e-6, -1.026e-6, 8.413e-7
-0.170, -1.868e-6, -1.027e-6, 8.410e-7
-0.171, -1.865e-6, -1.026e-6, 8.382e-7
-0.172, -1.864e-6, -1.024e-6, 8.394e-7
-0.173, -1.860e-6, -1.023e-6, 8.367e-7
-0.174, -1.861e-6, -1.024e-6, 8.370e-7
-0.175, -1.861e-6, -1.023e-6, 8.382e-7
-0.176, -1.857e-6, -1.022e-6, 8.352e-7
-0.177, -1.859e-6, -1.023e-6, 8.361e-7
-0.178, -1.860e-6, -1.022e-6, 8.379e-7
-0.179, -1.855e-6, -1.018e-6, 8.364e-7
-0.180, -1.855e-6, -1.019e-6, 8.358e-7
-0.181, -1.853e-6, -1.018e-6, 8.349e-7
-0.182, -1.848e-6, -1.019e-6, 8.294e-7
-0.183, -1.852e-6, -1.017e-6, 8.349e-7
-0.184, -1.854e-6, -1.020e-6, 8.339e-7
-0.185, -1.852e-6, -1.021e-6, 8.309e-7
-0.186, -1.850e-6, -1.018e-6, 8.327e-7
-0.187, -1.847e-6, -1.015e-6, 8.315e-7
-0.188, -1.849e-6, -1.019e-6, 8.303e-7
-0.189, -1.847e-6, -1.013e-6, 8.330e-7
-0.190, -1.849e-6, -1.018e-6, 8.309e-7
-0.191, -1.850e-6, -1.018e-6, 8.321e-7
-0.192, -1.845e-6, -1.013e-6, 8.315e-7
-0.193, -1.845e-6, -1.015e-6, 8.306e-7
-0.194, -1.843e-6, -1.014e-6, 8.288e-7
-0.195, -1.844e-6, -1.015e-6, 8.291e-7
-0.196, -1.837e-6, -1.010e-6, 8.272e-7
-0.197, -1.843e-6, -1.014e-6, 8.288e-7
-0.198, -1.841e-6, -1.011e-6, 8.297e-7
-0.199, -1.837e-6, -1.011e-6, 8.257e-7
-0.200, -1.838e-6, -1.012e-6, 8.260e-7
-0.201, -1.836e-6, -1.007e-6, 8.291e-7
-0.202, -1.833e-6, -1.009e-6, 8.248e-7
-0.203, -1.840e-6, -1.014e-6, 8.260e-7
-0.204, -1.838e-6, -1.011e-6, 8.266e-7
-0.205, -1.831e-6, -1.008e-6, 8.233e-7
-0.206, -1.835e-6, -1.010e-6, 8.254e-7
-0.207, -1.831e-6, -1.007e-6, 8.242e-7
-0.208, -1.828e-6, -1.005e-6, 8.230e-7
-0.209, -1.831e-6, -1.006e-6, 8.251e-7
-0.210, -1.829e-6, -1.005e-6, 8.233e-7
-0.211, -1.829e-6, -1.005e-6, 8.236e-7
-0.212, -1.832e-6, -1.009e-6, 8.223e-7
-0.213, -1.826e-6, -1.004e-6, 8.214e-7
-0.214, -1.830e-6, -1.009e-6, 8.208e-7
-0.215, -1.825e-6, -1.001e-6, 8.233e-7
-0.216, -1.822e-6, -1.002e-6, 8.202e-7
-0.217, -1.820e-6, -1.000e-6, 8.202e-7
-0.218, -1.820e-6, -1.000e-6, 8.196e-7
-0.219, -1.821e-6, -1.002e-6, 8.187e-7
-0.220, -1.821e-6, -1.001e-6, 8.208e-7
-0.221, -1.818e-6, -9.988e-7, 8.193e-7
-0.222, -1.819e-6, -1.001e-6, 8.184e-7
-0.223, -1.821e-6, -1.001e-6, 8.199e-7
-0.224, -1.818e-6, -9.982e-7, 8.193e-7
-0.225, -1.817e-6, -9.994e-7, 8.175e-7
-0.226, -1.817e-6, -9.979e-7, 8.187e-7
-0.227, -1.814e-6, -9.955e-7, 8.187e-7
-0.228, -1.817e-6, -1.002e-6, 8.153e-7
-0.229, -1.815e-6, -9.976e-7, 8.178e-7
-0.230, -1.814e-6, -9.967e-7, 8.178e-7
-0.231, -1.813e-6, -9.967e-7, 8.165e-7
-0.232, -1.813e-6, -9.967e-7, 8.162e-7
-0.233, -1.811e-6, -9.949e-7, 8.159e-7
-0.234, -1.813e-6, -9.973e-7, 8.156e-7
-0.235, -1.811e-6, -9.943e-7, 8.165e-7
-0.236, -1.809e-6, -9.940e-7, 8.147e-7
-0.237, -1.812e-6, -9.955e-7, 8.169e-7
-0.238, -1.810e-6, -9.937e-7, 8.162e-7
-0.239, -1.809e-6, -9.961e-7, 8.132e-7
-0.240, -1.806e-6, -9.927e-7, 8.135e-7
-0.241, -1.811e-6, -9.937e-7, 8.175e-7
-0.242, -1.806e-6, -9.943e-7, 8.120e-7
-0.243, -1.805e-6, -9.906e-7, 8.147e-7
-0.244, -1.806e-6, -9.909e-7, 8.150e-7
-0.245, -1.803e-6, -9.918e-7, 8.117e-7
-0.246, -1.804e-6, -9.888e-7, 8.156e-7
-0.247, -1.802e-6, -9.891e-7, 8.132e-7
-0.248, -1.805e-6, -9.921e-7, 8.129e-7
-0.249, -1.805e-6, -9.903e-7, 8.144e-7
-0.250, -1.801e-6, -9.882e-7, 8.129e-7
-0.251, -1.802e-6, -9.912e-7, 8.107e-7
-0.252, -1.803e-6, -9.900e-7, 8.135e-7
-0.253, -1.800e-6, -9.882e-7, 8.120e-7
-0.254, -1.799e-6, -9.872e-7, 8.120e-7
-0.255, -1.801e-6, -9.888e-7, 8.126e-7
-0.256, -1.798e-6, -9.869e-7, 8.107e-7
-0.257, -1.798e-6, -9.866e-7, 8.111e-7
-0.258, -1.797e-6, -9.848e-7, 8.120e-7
-0.259, -1.800e-6, -9.882e-7, 8.117e-7
-0.260, -1.797e-6, -9.857e-7, 8.114e-7
-0.261, -1.796e-6, -9.839e-7, 8.123e-7
-0.262, -1.795e-6, -9.833e-7, 8.117e-7
-0.263, -1.799e-6, -9.879e-7, 8.111e-7
-0.264, -1.793e-6, -9.830e-7, 8.098e-7
-0.265, -1.798e-6, -9.879e-7, 8.104e-7
-0.266, -1.798e-6, -9.869e-7, 8.114e-7
-0.267, -1.794e-6, -9.845e-7, 8.098e-7
-0.268, -1.794e-6, -9.842e-7, 8.101e-7
-0.269, -1.795e-6, -9.827e-7, 8.123e-7
-0.270, -1.791e-6, -9.796e-7, 8.117e-7
-0.271, -1.796e-6, -9.857e-7, 8.107e-7
-0.272, -1.792e-6, -9.811e-7, 8.107e-7
-0.273, -1.790e-6, -9.811e-7, 8.089e-7
-0.274, -1.791e-6, -9.818e-7, 8.092e-7
-0.275, -1.795e-6, -9.851e-7, 8.095e-7
-0.276, -1.791e-6, -9.814e-7, 8.095e-7
-0.277, -1.791e-6, -9.802e-7, 8.104e-7
-0.278, -1.791e-6, -9.808e-7, 8.098e-7
-0.279, -1.787e-6, -9.796e-7, 8.071e-7
-0.280, -1.785e-6, -9.772e-7, 8.080e-7
-0.281, -1.785e-6, -9.763e-7, 8.086e-7
-0.282, -1.788e-6, -9.796e-7, 8.083e-7
-0.283, -1.786e-6, -9.760e-7, 8.098e-7
-0.284, -1.787e-6, -9.793e-7, 8.077e-7
-0.285, -1.782e-6, -9.760e-7, 8.059e-7
-0.286, -1.784e-6, -9.775e-7, 8.068e-7
-0.287, -1.784e-6, -9.760e-7, 8.083e-7
-0.288, -1.779e-6, -9.732e-7, 8.059e-7
-0.289, -1.786e-6, -9.766e-7, 8.092e-7
-0.290, -1.781e-6, -9.750e-7, 8.062e-7
-0.291, -1.784e-6, -9.775e-7, 8.062e-7
-0.292, -1.782e-6, -9.747e-7, 8.068e-7
-0.293, -1.781e-6, -9.760e-7, 8.053e-7
-0.294, -1.783e-6, -9.778e-7, 8.053e-7
-0.295, -1.777e-6, -9.702e-7, 8.071e-7
-0.296, -1.775e-6, -9.714e-7, 8.040e-7
-0.297, -1.777e-6, -9.723e-7, 8.043e-7
-0.298, -1.774e-6, -9.705e-7, 8.040e-7
-0.299, -1.773e-6, -9.705e-7, 8.028e-7
-0.300, -1.779e-6, -9.750e-7, 8.037e-7
-0.301, -1.776e-6, -9.726e-7, 8.034e-7
-0.302, -1.772e-6, -9.708e-7, 8.016e-7
-0.303, -1.772e-6, -9.692e-7, 8.031e-7
-0.304, -1.772e-6, -9.677e-7, 8.046e-7
-0.305, -1.771e-6, -9.677e-7, 8.028e-7
-0.306, -1.771e-6, -9.698e-7, 8.016e-7
-0.307, -1.768e-6, -9.674e-7, 8.010e-7
-0.308, -1.771e-6, -9.689e-7, 8.025e-7
-0.309, -1.771e-6, -9.708e-7, 8.007e-7
-0.310, -1.768e-6, -9.647e-7, 8.034e-7
-0.311, -1.767e-6, -9.671e-7, 7.995e-7
-0.312, -1.771e-6, -9.711e-7, 7.995e-7
-0.313, -1.768e-6, -9.677e-7, 8.001e-7
-0.314, -1.766e-6, -9.674e-7, 7.985e-7
-0.315, -1.764e-6, -9.662e-7, 7.976e-7
-0.316, -1.764e-6, -9.631e-7, 8.007e-7
-0.317, -1.760e-6, -9.616e-7, 7.982e-7
-0.318, -1.765e-6, -9.674e-7, 7.976e-7
-0.319, -1.761e-6, -9.637e-7, 7.976e-7
-0.320, -1.760e-6, -9.622e-7, 7.973e-7
-0.321, -1.764e-6, -9.644e-7, 7.992e-7
-0.322, -1.760e-6, -9.622e-7, 7.973e-7
-0.323, -1.758e-6, -9.619e-7, 7.961e-7
-0.324, -1.757e-6, -9.613e-7, 7.955e-7
-0.325, -1.762e-6, -9.659e-7, 7.961e-7
-0.326, -1.760e-6, -9.653e-7, 7.946e-7
-0.327, -1.758e-6, -9.637e-7, 7.943e-7
-0.328, -1.752e-6, -9.592e-7, 7.927e-7
-0.329, -1.755e-6, -9.604e-7, 7.949e-7
-0.330, -1.753e-6, -9.610e-7, 7.918e-7
-0.331, -1.756e-6, -9.625e-7, 7.930e-7
-0.332, -1.752e-6, -9.592e-7, 7.927e-7
-0.333, -1.755e-6, -9.610e-7, 7.937e-7
-0.334, -1.753e-6, -9.625e-7, 7.906e-7
-0.335, -1.749e-6, -9.576e-7, 7.909e-7
-0.336, -1.747e-6, -9.558e-7, 7.909e-7
-0.337, -1.749e-6, -9.576e-7, 7.912e-7
-0.338, -1.750e-6, -9.592e-7, 7.912e-7
-0.339, -1.747e-6, -9.561e-7, 7.909e-7
-0.340, -1.751e-6, -9.622e-7, 7.885e-7
-0.341, -1.752e-6, -9.637e-7, 7.885e-7
-0.342, -1.746e-6, -9.561e-7, 7.894e-7
-0.343, -1.754e-6, -9.647e-7, 7.894e-7
-0.344, -1.746e-6, -9.576e-7, 7.885e-7
-0.345, -1.743e-6, -9.567e-7, 7.863e-7
-0.346, -1.749e-6, -9.616e-7, 7.876e-7
-0.347, -1.745e-6, -9.573e-7, 7.876e-7
-0.348, -1.749e-6, -9.619e-7, 7.869e-7
-0.349, -1.747e-6, -9.610e-7, 7.857e-7
-0.350, -1.745e-6, -9.573e-7, 7.879e-7
-0.351, -1.745e-6, -9.592e-7, 7.854e-7
-0.352, -1.748e-6, -9.607e-7, 7.876e-7
-0.353, -1.742e-6, -9.558e-7, 7.866e-7
-0.354, -1.742e-6, -9.579e-7, 7.845e-7
-0.355, -1.746e-6, -9.598e-7, 7.860e-7
-0.356, -1.743e-6, -9.583e-7, 7.845e-7
-0.357, -1.741e-6, -9.583e-7, 7.830e-7
-0.358, -1.745e-6, -9.619e-7, 7.827e-7
-0.359, -1.738e-6, -9.561e-7, 7.824e-7
-0.360, -1.744e-6, -9.616e-7, 7.821e-7
-0.361, -1.741e-6, -9.589e-7, 7.824e-7
-0.362, -1.745e-6, -9.631e-7, 7.818e-7
-0.363, -1.740e-6, -9.589e-7, 7.811e-7
-0.364, -1.743e-6, -9.607e-7, 7.824e-7
-0.365, -1.742e-6, -9.604e-7, 7.818e-7
-0.366, -1.743e-6, -9.622e-7, 7.811e-7
-0.367, -1.739e-6, -9.579e-7, 7.808e-7
-0.368, -1.740e-6, -9.601e-7, 7.799e-7
-0.369, -1.743e-6, -9.607e-7, 7.821e-7
-0.370, -1.741e-6, -9.601e-7, 7.808e-7
-0.371, -1.740e-6, -9.616e-7, 7.781e-7
-0.372, -1.747e-6, -9.668e-7, 7.799e-7
-0.373, -1.741e-6, -9.601e-7, 7.808e-7
-0.374, -1.742e-6, -9.616e-7, 7.799e-7
-0.375, -1.742e-6, -9.622e-7, 7.796e-7
-0.376, -1.737e-6, -9.589e-7, 7.781e-7
-0.377, -1.738e-6, -9.601e-7, 7.775e-7
-0.378, -1.744e-6, -9.647e-7, 7.793e-7
-0.379, -1.743e-6, -9.656e-7, 7.772e-7
-0.380, -1.742e-6, -9.656e-7, 7.760e-7
-0.381, -1.740e-6, -9.634e-7, 7.769e-7
-0.382, -1.744e-6, -9.671e-7, 7.769e-7
-0.383, -1.743e-6, -9.671e-7, 7.760e-7
-0.384, -1.742e-6, -9.647e-7, 7.775e-7
-0.385, -1.742e-6, -9.680e-7, 7.738e-7
-0.386, -1.738e-6, -9.634e-7, 7.744e-7
-0.387, -1.741e-6, -9.653e-7, 7.760e-7
-0.388, -1.739e-6, -9.659e-7, 7.735e-7
-0.389, -1.742e-6, -9.689e-7, 7.729e-7
-0.390, -1.741e-6, -9.662e-7, 7.750e-7
-0.391, -1.745e-6, -9.717e-7, 7.729e-7
-0.392, -1.745e-6, -9.711e-7, 7.735e-7
-0.393, -1.744e-6, -9.708e-7, 7.735e-7
-0.394, -1.741e-6, -9.692e-7, 7.714e-7
-0.395, -1.743e-6, -9.692e-7, 7.741e-7
-0.396, -1.747e-6, -9.753e-7, 7.714e-7
-0.397, -1.738e-6, -9.692e-7, 7.692e-7
-0.398, -1.740e-6, -9.689e-7, 7.711e-7
-0.399, -1.746e-6, -9.769e-7, 7.692e-7
-0.400, -1.743e-6, -9.714e-7, 7.717e-7
