Mar. 20, 2018   15:10:12
Square Wave Voltammetry
File: c:\users\electrochemist\desktop\2018\20032018_unbufarray_unpap\42_g1_ph7,46_2.txt
Data Source:  Experiment
Instrument Model:  CHI1040A
Header: 
Note: 

Init E (V) = 0.7
Final E (V) = -0.4
Incr E (V) = 0.001
Amplitude (V) = 0.1
Frequency (Hz) = 152
Quiet Time (sec) = 2
Sensitivity (A/V) = 1e-6

Difference:

Forward:

Reverse:

Potential/V, Diff(i/A), For(i/A), Rev(i/A)

0.699, -8.508e-7, -2.289e-7, 6.219e-7
0.698, -1.083e-6, -5.277e-7, 5.553e-7
0.697, -1.088e-6, -5.438e-7, 5.444e-7
0.696, -1.083e-6, -5.457e-7, 5.373e-7
0.695, -1.078e-6, -5.506e-7, 5.270e-7
0.694, -1.079e-6, -5.490e-7, 5.297e-7
0.693, -1.076e-6, -5.509e-7, 5.248e-7
0.692, -1.072e-6, -5.521e-7, 5.199e-7
0.691, -1.076e-6, -5.527e-7, 5.233e-7
0.690, -1.069e-6, -5.527e-7, 5.163e-7
0.689, -1.068e-6, -5.533e-7, 5.144e-7
0.688, -1.073e-6, -5.554e-7, 5.175e-7
0.687, -1.065e-6, -5.509e-7, 5.138e-7
0.686, -1.067e-6, -5.551e-7, 5.120e-7
0.685, -1.065e-6, -5.545e-7, 5.108e-7
0.684, -1.061e-6, -5.521e-7, 5.087e-7
0.683, -1.065e-6, -5.576e-7, 5.074e-7
0.682, -1.067e-6, -5.542e-7, 5.123e-7
0.681, -1.059e-6, -5.536e-7, 5.050e-7
0.680, -1.060e-6, -5.570e-7, 5.035e-7
0.679, -1.060e-6, -5.567e-7, 5.029e-7
0.678, -1.055e-6, -5.533e-7, 5.013e-7
0.677, -1.058e-6, -5.576e-7, 5.001e-7
0.676, -1.055e-6, -5.554e-7, 4.998e-7
0.675, -1.055e-6, -5.564e-7, 4.983e-7
0.674, -1.055e-6, -5.579e-7, 4.974e-7
0.673, -1.052e-6, -5.551e-7, 4.971e-7
0.672, -1.053e-6, -5.576e-7, 4.958e-7
0.671, -1.050e-6, -5.545e-7, 4.958e-7
0.670, -1.050e-6, -5.557e-7, 4.943e-7
0.669, -1.051e-6, -5.570e-7, 4.943e-7
0.668, -1.049e-6, -5.573e-7, 4.913e-7
0.667, -1.048e-6, -5.588e-7, 4.894e-7
0.666, -1.050e-6, -5.603e-7, 4.894e-7
0.665, -1.050e-6, -5.591e-7, 4.913e-7
0.664, -1.049e-6, -5.594e-7, 4.894e-7
0.663, -1.047e-6, -5.606e-7, 4.864e-7
0.662, -1.046e-6, -5.585e-7, 4.879e-7
0.661, -1.046e-6, -5.603e-7, 4.855e-7
0.660, -1.048e-6, -5.603e-7, 4.876e-7
0.659, -1.045e-6, -5.573e-7, 4.879e-7
0.658, -1.044e-6, -5.594e-7, 4.842e-7
0.657, -1.047e-6, -5.628e-7, 4.845e-7
0.656, -1.049e-6, -5.609e-7, 4.876e-7
0.655, -1.043e-6, -5.603e-7, 4.824e-7
0.654, -1.045e-6, -5.612e-7, 4.839e-7
0.653, -1.044e-6, -5.588e-7, 4.848e-7
0.652, -1.045e-6, -5.637e-7, 4.812e-7
0.651, -1.044e-6, -5.637e-7, 4.803e-7
0.650, -1.045e-6, -5.618e-7, 4.827e-7
0.649, -1.044e-6, -5.658e-7, 4.781e-7
0.648, -1.045e-6, -5.631e-7, 4.815e-7
0.647, -1.042e-6, -5.618e-7, 4.797e-7
0.646, -1.043e-6, -5.643e-7, 4.784e-7
0.645, -1.044e-6, -5.631e-7, 4.809e-7
0.644, -1.041e-6, -5.631e-7, 4.775e-7
0.643, -1.044e-6, -5.670e-7, 4.772e-7
0.642, -1.045e-6, -5.646e-7, 4.800e-7
0.641, -1.039e-6, -5.637e-7, 4.754e-7
0.640, -1.041e-6, -5.652e-7, 4.757e-7
0.639, -1.038e-6, -5.618e-7, 4.766e-7
0.638, -1.040e-6, -5.652e-7, 4.751e-7
0.637, -1.038e-6, -5.670e-7, 4.705e-7
0.636, -1.039e-6, -5.634e-7, 4.760e-7
0.635, -1.042e-6, -5.689e-7, 4.729e-7
0.634, -1.043e-6, -5.701e-7, 4.726e-7
0.633, -1.039e-6, -5.646e-7, 4.745e-7
0.632, -1.036e-6, -5.667e-7, 4.693e-7
0.631, -1.040e-6, -5.689e-7, 4.708e-7
0.630, -1.041e-6, -5.664e-7, 4.745e-7
0.629, -1.036e-6, -5.670e-7, 4.693e-7
0.628, -1.039e-6, -5.695e-7, 4.693e-7
0.627, -1.041e-6, -5.686e-7, 4.720e-7
0.626, -1.036e-6, -5.679e-7, 4.678e-7
0.625, -1.042e-6, -5.701e-7, 4.714e-7
0.624, -1.038e-6, -5.676e-7, 4.702e-7
0.623, -1.037e-6, -5.686e-7, 4.687e-7
0.622, -1.043e-6, -5.719e-7, 4.714e-7
0.621, -1.038e-6, -5.701e-7, 4.675e-7
0.620, -1.038e-6, -5.698e-7, 4.681e-7
0.619, -1.039e-6, -5.704e-7, 4.690e-7
0.618, -1.039e-6, -5.707e-7, 4.684e-7
0.617, -1.037e-6, -5.716e-7, 4.656e-7
0.616, -1.038e-6, -5.713e-7, 4.665e-7
0.615, -1.038e-6, -5.716e-7, 4.665e-7
0.614, -1.041e-6, -5.731e-7, 4.675e-7
0.613, -1.039e-6, -5.731e-7, 4.656e-7
0.612, -1.038e-6, -5.722e-7, 4.659e-7
0.611, -1.041e-6, -5.747e-7, 4.659e-7
0.610, -1.037e-6, -5.725e-7, 4.647e-7
0.609, -1.043e-6, -5.774e-7, 4.653e-7
0.608, -1.043e-6, -5.768e-7, 4.659e-7
0.607, -1.041e-6, -5.750e-7, 4.662e-7
0.606, -1.038e-6, -5.737e-7, 4.647e-7
0.605, -1.039e-6, -5.747e-7, 4.644e-7
0.604, -1.035e-6, -5.731e-7, 4.623e-7
0.603, -1.041e-6, -5.777e-7, 4.635e-7
0.602, -1.041e-6, -5.750e-7, 4.662e-7
0.601, -1.038e-6, -5.762e-7, 4.620e-7
0.600, -1.043e-6, -5.783e-7, 4.650e-7
0.599, -1.039e-6, -5.750e-7, 4.644e-7
0.598, -1.039e-6, -5.765e-7, 4.626e-7
0.597, -1.041e-6, -5.780e-7, 4.626e-7
0.596, -1.043e-6, -5.780e-7, 4.647e-7
0.595, -1.039e-6, -5.802e-7, 4.589e-7
0.594, -1.045e-6, -5.808e-7, 4.641e-7
0.593, -1.043e-6, -5.802e-7, 4.626e-7
0.592, -1.042e-6, -5.820e-7, 4.595e-7
0.591, -1.047e-6, -5.826e-7, 4.641e-7
0.590, -1.042e-6, -5.795e-7, 4.629e-7
0.589, -1.043e-6, -5.826e-7, 4.604e-7
0.588, -1.046e-6, -5.820e-7, 4.638e-7
0.587, -1.043e-6, -5.805e-7, 4.629e-7
0.586, -1.047e-6, -5.844e-7, 4.629e-7
0.585, -1.048e-6, -5.838e-7, 4.638e-7
0.584, -1.046e-6, -5.841e-7, 4.617e-7
0.583, -1.050e-6, -5.863e-7, 4.638e-7
0.582, -1.047e-6, -5.841e-7, 4.629e-7
0.581, -1.052e-6, -5.884e-7, 4.641e-7
0.580, -1.048e-6, -5.869e-7, 4.607e-7
0.579, -1.052e-6, -5.875e-7, 4.641e-7
0.578, -1.050e-6, -5.875e-7, 4.623e-7
0.577, -1.051e-6, -5.893e-7, 4.613e-7
0.576, -1.050e-6, -5.869e-7, 4.632e-7
0.575, -1.048e-6, -5.872e-7, 4.607e-7
0.574, -1.052e-6, -5.905e-7, 4.613e-7
0.573, -1.054e-6, -5.890e-7, 4.653e-7
0.572, -1.053e-6, -5.893e-7, 4.641e-7
0.571, -1.056e-6, -5.921e-7, 4.641e-7
0.570, -1.053e-6, -5.914e-7, 4.620e-7
0.569, -1.054e-6, -5.921e-7, 4.620e-7
0.568, -1.058e-6, -5.933e-7, 4.644e-7
0.567, -1.058e-6, -5.933e-7, 4.647e-7
0.566, -1.055e-6, -5.921e-7, 4.629e-7
0.565, -1.058e-6, -5.942e-7, 4.641e-7
0.564, -1.057e-6, -5.942e-7, 4.632e-7
0.563, -1.062e-6, -5.972e-7, 4.644e-7
0.562, -1.062e-6, -5.969e-7, 4.647e-7
0.561, -1.061e-6, -5.979e-7, 4.632e-7
0.560, -1.063e-6, -5.991e-7, 4.635e-7
0.559, -1.065e-6, -5.985e-7, 4.665e-7
0.558, -1.065e-6, -5.991e-7, 4.656e-7
0.557, -1.063e-6, -6.009e-7, 4.623e-7
0.556, -1.065e-6, -5.988e-7, 4.662e-7
0.555, -1.065e-6, -6.015e-7, 4.638e-7
0.554, -1.069e-6, -6.030e-7, 4.656e-7
0.553, -1.067e-6, -6.012e-7, 4.656e-7
0.552, -1.064e-6, -6.030e-7, 4.613e-7
0.551, -1.070e-6, -6.043e-7, 4.659e-7
0.550, -1.069e-6, -6.033e-7, 4.659e-7
0.549, -1.072e-6, -6.070e-7, 4.650e-7
0.548, -1.072e-6, -6.058e-7, 4.662e-7
0.547, -1.070e-6, -6.030e-7, 4.675e-7
0.546, -1.070e-6, -6.061e-7, 4.638e-7
0.545, -1.074e-6, -6.058e-7, 4.678e-7
0.544, -1.074e-6, -6.070e-7, 4.671e-7
0.543, -1.073e-6, -6.095e-7, 4.635e-7
0.542, -1.078e-6, -6.082e-7, 4.693e-7
0.541, -1.073e-6, -6.082e-7, 4.647e-7
0.540, -1.077e-6, -6.122e-7, 4.650e-7
0.539, -1.079e-6, -6.107e-7, 4.681e-7
0.538, -1.075e-6, -6.101e-7, 4.650e-7
0.537, -1.079e-6, -6.140e-7, 4.650e-7
0.536, -1.081e-6, -6.113e-7, 4.693e-7
0.535, -1.073e-6, -6.110e-7, 4.623e-7
0.534, -1.078e-6, -6.128e-7, 4.656e-7
0.533, -1.082e-6, -6.134e-7, 4.690e-7
0.532, -1.078e-6, -6.134e-7, 4.650e-7
0.531, -1.083e-6, -6.168e-7, 4.662e-7
0.530, -1.082e-6, -6.131e-7, 4.690e-7
0.529, -1.080e-6, -6.152e-7, 4.650e-7
0.528, -1.083e-6, -6.183e-7, 4.647e-7
0.527, -1.085e-6, -6.156e-7, 4.696e-7
0.526, -1.083e-6, -6.168e-7, 4.662e-7
0.525, -1.086e-6, -6.186e-7, 4.678e-7
0.524, -1.088e-6, -6.171e-7, 4.705e-7
0.523, -1.090e-6, -6.226e-7, 4.675e-7
0.522, -1.091e-6, -6.204e-7, 4.702e-7
0.521, -1.086e-6, -6.180e-7, 4.684e-7
0.520, -1.087e-6, -6.210e-7, 4.662e-7
0.519, -1.089e-6, -6.195e-7, 4.693e-7
0.518, -1.089e-6, -6.207e-7, 4.681e-7
0.517, -1.091e-6, -6.232e-7, 4.675e-7
0.516, -1.092e-6, -6.226e-7, 4.699e-7
0.515, -1.090e-6, -6.229e-7, 4.671e-7
0.514, -1.095e-6, -6.250e-7, 4.699e-7
0.513, -1.093e-6, -6.232e-7, 4.699e-7
0.512, -1.096e-6, -6.265e-7, 4.699e-7
0.511, -1.096e-6, -6.262e-7, 4.699e-7
0.510, -1.092e-6, -6.238e-7, 4.681e-7
0.509, -1.097e-6, -6.281e-7, 4.690e-7
0.508, -1.097e-6, -6.287e-7, 4.684e-7
0.507, -1.098e-6, -6.284e-7, 4.699e-7
0.506, -1.098e-6, -6.299e-7, 4.684e-7
0.505, -1.100e-6, -6.299e-7, 4.702e-7
0.504, -1.100e-6, -6.293e-7, 4.708e-7
0.503, -1.101e-6, -6.320e-7, 4.687e-7
0.502, -1.103e-6, -6.311e-7, 4.714e-7
0.501, -1.103e-6, -6.311e-7, 4.720e-7
0.500, -1.105e-6, -6.333e-7, 4.714e-7
0.499, -1.104e-6, -6.323e-7, 4.717e-7
0.498, -1.106e-6, -6.333e-7, 4.723e-7
0.497, -1.106e-6, -6.357e-7, 4.702e-7
0.496, -1.106e-6, -6.339e-7, 4.723e-7
0.495, -1.107e-6, -6.366e-7, 4.702e-7
0.494, -1.107e-6, -6.363e-7, 4.711e-7
0.493, -1.113e-6, -6.384e-7, 4.742e-7
0.492, -1.109e-6, -6.369e-7, 4.720e-7
0.491, -1.113e-6, -6.400e-7, 4.729e-7
0.490, -1.111e-6, -6.381e-7, 4.729e-7
0.489, -1.114e-6, -6.412e-7, 4.723e-7
0.488, -1.117e-6, -6.427e-7, 4.745e-7
0.487, -1.111e-6, -6.391e-7, 4.723e-7
0.486, -1.116e-6, -6.448e-7, 4.708e-7
0.485, -1.121e-6, -6.452e-7, 4.763e-7
0.484, -1.117e-6, -6.427e-7, 4.745e-7
0.483, -1.124e-6, -6.482e-7, 4.757e-7
0.482, -1.123e-6, -6.476e-7, 4.757e-7
0.481, -1.124e-6, -6.433e-7, 4.803e-7
0.480, -1.124e-6, -6.497e-7, 4.745e-7
0.479, -1.125e-6, -6.482e-7, 4.772e-7
0.478, -1.123e-6, -6.473e-7, 4.754e-7
0.477, -1.128e-6, -6.510e-7, 4.769e-7
0.476, -1.130e-6, -6.516e-7, 4.787e-7
0.475, -1.126e-6, -6.494e-7, 4.766e-7
0.474, -1.132e-6, -6.549e-7, 4.769e-7
0.473, -1.132e-6, -6.519e-7, 4.803e-7
0.472, -1.131e-6, -6.525e-7, 4.784e-7
0.471, -1.134e-6, -6.555e-7, 4.787e-7
0.470, -1.135e-6, -6.546e-7, 4.809e-7
0.469, -1.134e-6, -6.540e-7, 4.803e-7
0.468, -1.136e-6, -6.571e-7, 4.794e-7
0.467, -1.137e-6, -6.574e-7, 4.797e-7
0.466, -1.139e-6, -6.568e-7, 4.818e-7
0.465, -1.143e-6, -6.613e-7, 4.812e-7
0.464, -1.141e-6, -6.601e-7, 4.806e-7
0.463, -1.147e-6, -6.601e-7, 4.870e-7
0.462, -1.142e-6, -6.613e-7, 4.809e-7
0.461, -1.146e-6, -6.616e-7, 4.839e-7
0.460, -1.148e-6, -6.638e-7, 4.839e-7
0.459, -1.150e-6, -6.647e-7, 4.852e-7
0.458, -1.150e-6, -6.665e-7, 4.836e-7
0.457, -1.149e-6, -6.659e-7, 4.833e-7
0.456, -1.153e-6, -6.659e-7, 4.867e-7
0.455, -1.162e-6, -6.778e-7, 4.845e-7
0.454, -1.155e-6, -6.702e-7, 4.852e-7
0.453, -1.155e-6, -6.683e-7, 4.870e-7
0.452, -1.156e-6, -6.708e-7, 4.848e-7
0.451, -1.159e-6, -6.735e-7, 4.858e-7
0.450, -1.161e-6, -6.726e-7, 4.879e-7
0.449, -1.158e-6, -6.720e-7, 4.861e-7
0.448, -1.163e-6, -6.741e-7, 4.888e-7
0.447, -1.161e-6, -6.735e-7, 4.876e-7
0.446, -1.164e-6, -6.769e-7, 4.873e-7
0.445, -1.168e-6, -6.772e-7, 4.906e-7
0.444, -1.167e-6, -6.769e-7, 4.897e-7
0.443, -1.170e-6, -6.793e-7, 4.909e-7
0.442, -1.174e-6, -6.806e-7, 4.931e-7
0.441, -1.167e-6, -6.781e-7, 4.891e-7
0.440, -1.171e-6, -6.818e-7, 4.894e-7
0.439, -1.178e-6, -6.827e-7, 4.949e-7
0.438, -1.172e-6, -6.802e-7, 4.913e-7
0.437, -1.179e-6, -6.857e-7, 4.937e-7
0.436, -1.180e-6, -6.851e-7, 4.946e-7
0.435, -1.176e-6, -6.842e-7, 4.919e-7
0.434, -1.181e-6, -6.860e-7, 4.946e-7
0.433, -1.179e-6, -6.848e-7, 4.946e-7
0.432, -1.177e-6, -6.857e-7, 4.916e-7
0.431, -1.184e-6, -6.909e-7, 4.931e-7
0.430, -1.186e-6, -6.885e-7, 4.974e-7
0.429, -1.182e-6, -6.900e-7, 4.925e-7
0.428, -1.188e-6, -6.931e-7, 4.952e-7
0.427, -1.188e-6, -6.912e-7, 4.967e-7
0.426, -1.189e-6, -6.943e-7, 4.943e-7
0.425, -1.193e-6, -6.946e-7, 4.980e-7
0.424, -1.190e-6, -6.909e-7, 4.995e-7
0.423, -1.192e-6, -6.967e-7, 4.955e-7
0.422, -1.193e-6, -6.964e-7, 4.961e-7
0.421, -1.195e-6, -6.952e-7, 4.998e-7
0.420, -1.195e-6, -6.995e-7, 4.958e-7
0.419, -1.196e-6, -6.973e-7, 4.986e-7
0.418, -1.200e-6, -7.004e-7, 5.001e-7
0.417, -1.200e-6, -7.013e-7, 4.983e-7
0.416, -1.202e-6, -7.007e-7, 5.010e-7
0.415, -1.199e-6, -6.995e-7, 4.998e-7
0.414, -1.202e-6, -7.031e-7, 4.986e-7
0.413, -1.205e-6, -7.037e-7, 5.010e-7
0.412, -1.204e-6, -7.041e-7, 4.998e-7
0.411, -1.206e-6, -7.047e-7, 5.013e-7
0.410, -1.207e-6, -7.041e-7, 5.028e-7
0.409, -1.207e-6, -7.059e-7, 5.010e-7
0.408, -1.210e-6, -7.077e-7, 5.019e-7
0.407, -1.212e-6, -7.083e-7, 5.041e-7
0.406, -1.210e-6, -7.089e-7, 5.007e-7
0.405, -1.216e-6, -7.111e-7, 5.053e-7
0.404, -1.216e-6, -7.114e-7, 5.047e-7
0.403, -1.215e-6, -7.120e-7, 5.035e-7
0.402, -1.218e-6, -7.120e-7, 5.065e-7
0.401, -1.216e-6, -7.114e-7, 5.050e-7
0.400, -1.221e-6, -7.156e-7, 5.053e-7
0.399, -1.223e-6, -7.150e-7, 5.083e-7
0.398, -1.222e-6, -7.156e-7, 5.068e-7
0.397, -1.226e-6, -7.196e-7, 5.065e-7
0.396, -1.227e-6, -7.175e-7, 5.096e-7
0.395, -1.226e-6, -7.184e-7, 5.080e-7
0.394, -1.227e-6, -7.205e-7, 5.068e-7
0.393, -1.229e-6, -7.205e-7, 5.090e-7
0.392, -1.225e-6, -7.178e-7, 5.074e-7
0.391, -1.233e-6, -7.242e-7, 5.090e-7
0.390, -1.233e-6, -7.205e-7, 5.123e-7
0.389, -1.234e-6, -7.254e-7, 5.086e-7
0.388, -1.234e-6, -7.257e-7, 5.086e-7
0.387, -1.238e-6, -7.251e-7, 5.132e-7
0.386, -1.238e-6, -7.263e-7, 5.117e-7
0.385, -1.242e-6, -7.294e-7, 5.129e-7
0.384, -1.243e-6, -7.285e-7, 5.141e-7
0.383, -1.243e-6, -7.303e-7, 5.126e-7
0.382, -1.247e-6, -7.312e-7, 5.163e-7
0.381, -1.247e-6, -7.312e-7, 5.160e-7
0.380, -1.247e-6, -7.330e-7, 5.144e-7
0.379, -1.255e-6, -7.364e-7, 5.184e-7
0.378, -1.249e-6, -7.333e-7, 5.160e-7
0.377, -1.253e-6, -7.379e-7, 5.151e-7
0.376, -1.254e-6, -7.355e-7, 5.181e-7
0.375, -1.256e-6, -7.370e-7, 5.187e-7
0.374, -1.258e-6, -7.407e-7, 5.172e-7
0.373, -1.262e-6, -7.413e-7, 5.212e-7
0.372, -1.259e-6, -7.404e-7, 5.184e-7
0.371, -1.262e-6, -7.422e-7, 5.199e-7
0.370, -1.265e-6, -7.428e-7, 5.221e-7
0.369, -1.265e-6, -7.440e-7, 5.209e-7
0.368, -1.269e-6, -7.477e-7, 5.212e-7
0.367, -1.270e-6, -7.462e-7, 5.239e-7
0.366, -1.271e-6, -7.480e-7, 5.233e-7
0.365, -1.273e-6, -7.486e-7, 5.239e-7
0.364, -1.276e-6, -7.510e-7, 5.254e-7
0.363, -1.275e-6, -7.501e-7, 5.251e-7
0.362, -1.280e-6, -7.529e-7, 5.267e-7
0.361, -1.281e-6, -7.535e-7, 5.279e-7
0.360, -1.279e-6, -7.535e-7, 5.257e-7
0.359, -1.282e-6, -7.547e-7, 5.270e-7
0.358, -1.283e-6, -7.565e-7, 5.267e-7
0.357, -1.286e-6, -7.578e-7, 5.285e-7
0.356, -1.287e-6, -7.578e-7, 5.291e-7
0.355, -1.288e-6, -7.581e-7, 5.303e-7
0.354, -1.292e-6, -7.617e-7, 5.300e-7
0.353, -1.294e-6, -7.611e-7, 5.334e-7
0.352, -1.296e-6, -7.642e-7, 5.321e-7
0.351, -1.298e-6, -7.654e-7, 5.331e-7
0.350, -1.299e-6, -7.657e-7, 5.334e-7
0.349, -1.298e-6, -7.645e-7, 5.340e-7
0.348, -1.305e-6, -7.690e-7, 5.358e-7
0.347, -1.305e-6, -7.687e-7, 5.358e-7
0.346, -1.307e-6, -7.703e-7, 5.367e-7
0.345, -1.307e-6, -7.697e-7, 5.370e-7
0.344, -1.311e-6, -7.712e-7, 5.398e-7
0.343, -1.311e-6, -7.739e-7, 5.367e-7
0.342, -1.313e-6, -7.758e-7, 5.376e-7
0.341, -1.316e-6, -7.745e-7, 5.416e-7
0.340, -1.314e-6, -7.758e-7, 5.386e-7
0.339, -1.319e-6, -7.788e-7, 5.401e-7
0.338, -1.316e-6, -7.761e-7, 5.404e-7
0.337, -1.320e-6, -7.810e-7, 5.386e-7
0.336, -1.325e-6, -7.813e-7, 5.434e-7
0.335, -1.323e-6, -7.810e-7, 5.425e-7
0.334, -1.326e-6, -7.840e-7, 5.419e-7
0.333, -1.329e-6, -7.819e-7, 5.468e-7
0.332, -1.331e-6, -7.858e-7, 5.450e-7
0.331, -1.332e-6, -7.867e-7, 5.450e-7
0.330, -1.334e-6, -7.864e-7, 5.471e-7
0.329, -1.331e-6, -7.877e-7, 5.437e-7
0.328, -1.337e-6, -7.889e-7, 5.480e-7
0.327, -1.337e-6, -7.883e-7, 5.483e-7
0.326, -1.338e-6, -7.904e-7, 5.471e-7
0.325, -1.342e-6, -7.944e-7, 5.477e-7
0.324, -1.343e-6, -7.925e-7, 5.508e-7
0.323, -1.345e-6, -7.959e-7, 5.489e-7
0.322, -1.348e-6, -7.965e-7, 5.514e-7
0.321, -1.348e-6, -7.959e-7, 5.526e-7
0.320, -1.347e-6, -7.980e-7, 5.489e-7
0.319, -1.355e-6, -8.002e-7, 5.547e-7
0.318, -1.353e-6, -7.990e-7, 5.544e-7
0.317, -1.355e-6, -8.017e-7, 5.532e-7
0.316, -1.358e-6, -8.032e-7, 5.550e-7
0.315, -1.359e-6, -8.020e-7, 5.566e-7
0.314, -1.359e-6, -8.038e-7, 5.550e-7
0.313, -1.360e-6, -8.060e-7, 5.541e-7
0.312, -1.363e-6, -8.063e-7, 5.572e-7
0.311, -1.367e-6, -8.087e-7, 5.581e-7
0.310, -1.370e-6, -8.115e-7, 5.584e-7
0.309, -1.369e-6, -8.106e-7, 5.581e-7
0.308, -1.373e-6, -8.130e-7, 5.596e-7
0.307, -1.373e-6, -8.142e-7, 5.587e-7
0.306, -1.372e-6, -8.133e-7, 5.584e-7
0.305, -1.375e-6, -8.145e-7, 5.605e-7
0.304, -1.378e-6, -8.170e-7, 5.614e-7
0.303, -1.378e-6, -8.167e-7, 5.617e-7
0.302, -1.384e-6, -8.197e-7, 5.642e-7
0.301, -1.385e-6, -8.200e-7, 5.645e-7
0.300, -1.384e-6, -8.218e-7, 5.624e-7
0.299, -1.389e-6, -8.237e-7, 5.654e-7
0.298, -1.387e-6, -8.234e-7, 5.639e-7
0.297, -1.390e-6, -8.258e-7, 5.642e-7
0.296, -1.393e-6, -8.252e-7, 5.675e-7
0.295, -1.393e-6, -8.264e-7, 5.669e-7
0.294, -1.397e-6, -8.307e-7, 5.663e-7
0.293, -1.400e-6, -8.301e-7, 5.697e-7
0.292, -1.400e-6, -8.319e-7, 5.682e-7
0.291, -1.403e-6, -8.331e-7, 5.703e-7
0.290, -1.405e-6, -8.334e-7, 5.712e-7
0.289, -1.401e-6, -8.316e-7, 5.697e-7
0.288, -1.409e-6, -8.380e-7, 5.706e-7
0.287, -1.410e-6, -8.356e-7, 5.746e-7
0.286, -1.413e-6, -8.386e-7, 5.746e-7
0.285, -1.417e-6, -8.423e-7, 5.746e-7
0.284, -1.416e-6, -8.402e-7, 5.755e-7
0.283, -1.418e-6, -8.426e-7, 5.755e-7
0.282, -1.421e-6, -8.441e-7, 5.773e-7
0.281, -1.423e-6, -8.453e-7, 5.773e-7
0.280, -1.424e-6, -8.472e-7, 5.773e-7
0.279, -1.428e-6, -8.490e-7, 5.791e-7
0.278, -1.429e-6, -8.493e-7, 5.794e-7
0.277, -1.433e-6, -8.521e-7, 5.807e-7
0.276, -1.434e-6, -8.514e-7, 5.822e-7
0.275, -1.435e-6, -8.524e-7, 5.822e-7
0.274, -1.439e-6, -8.563e-7, 5.822e-7
0.273, -1.442e-6, -8.569e-7, 5.846e-7
0.272, -1.444e-6, -8.588e-7, 5.852e-7
0.271, -1.449e-6, -8.646e-7, 5.843e-7
0.270, -1.449e-6, -8.615e-7, 5.880e-7
0.269, -1.451e-6, -8.618e-7, 5.895e-7
0.268, -1.457e-6, -8.676e-7, 5.892e-7
0.267, -1.458e-6, -8.667e-7, 5.916e-7
0.266, -1.456e-6, -8.658e-7, 5.901e-7
0.265, -1.460e-6, -8.713e-7, 5.892e-7
0.264, -1.462e-6, -8.679e-7, 5.941e-7
0.263, -1.463e-6, -8.701e-7, 5.929e-7
0.262, -1.465e-6, -8.740e-7, 5.910e-7
0.261, -1.469e-6, -8.749e-7, 5.941e-7
0.260, -1.470e-6, -8.749e-7, 5.947e-7
0.259, -1.475e-6, -8.798e-7, 5.956e-7
0.258, -1.475e-6, -8.771e-7, 5.978e-7
0.257, -1.480e-6, -8.820e-7, 5.984e-7
0.256, -1.482e-6, -8.826e-7, 5.999e-7
0.255, -1.485e-6, -8.841e-7, 6.008e-7
0.254, -1.485e-6, -8.856e-7, 5.996e-7
0.253, -1.492e-6, -8.887e-7, 6.032e-7
0.252, -1.493e-6, -8.893e-7, 6.042e-7
0.251, -1.495e-6, -8.911e-7, 6.039e-7
0.250, -1.502e-6, -8.936e-7, 6.087e-7
0.249, -1.501e-6, -8.936e-7, 6.072e-7
0.248, -1.506e-6, -8.960e-7, 6.100e-7
0.247, -1.506e-6, -8.969e-7, 6.093e-7
0.246, -1.510e-6, -8.997e-7, 6.106e-7
0.245, -1.514e-6, -9.033e-7, 6.112e-7
0.244, -1.518e-6, -9.048e-7, 6.127e-7
0.243, -1.521e-6, -9.061e-7, 6.145e-7
0.242, -1.519e-6, -9.061e-7, 6.133e-7
0.241, -1.524e-6, -9.070e-7, 6.167e-7
0.240, -1.526e-6, -9.088e-7, 6.170e-7
0.239, -1.530e-6, -9.134e-7, 6.170e-7
0.238, -1.533e-6, -9.119e-7, 6.212e-7
0.237, -1.533e-6, -9.137e-7, 6.188e-7
0.236, -1.538e-6, -9.174e-7, 6.206e-7
0.235, -1.538e-6, -9.164e-7, 6.212e-7
0.234, -1.541e-6, -9.210e-7, 6.197e-7
0.233, -1.544e-6, -9.222e-7, 6.219e-7
0.232, -1.549e-6, -9.222e-7, 6.270e-7
0.231, -1.548e-6, -9.244e-7, 6.240e-7
0.230, -1.554e-6, -9.262e-7, 6.274e-7
0.229, -1.554e-6, -9.274e-7, 6.264e-7
0.228, -1.557e-6, -9.308e-7, 6.264e-7
0.227, -1.563e-6, -9.320e-7, 6.307e-7
0.226, -1.564e-6, -9.341e-7, 6.298e-7
0.225, -1.567e-6, -9.372e-7, 6.298e-7
0.224, -1.570e-6, -9.357e-7, 6.341e-7
0.223, -1.570e-6, -9.384e-7, 6.319e-7
0.222, -1.576e-6, -9.418e-7, 6.338e-7
0.221, -1.578e-6, -9.409e-7, 6.371e-7
0.220, -1.582e-6, -9.454e-7, 6.365e-7
0.219, -1.585e-6, -9.473e-7, 6.374e-7
0.218, -1.588e-6, -9.463e-7, 6.417e-7
0.217, -1.587e-6, -9.494e-7, 6.374e-7
0.216, -1.595e-6, -9.537e-7, 6.417e-7
0.215, -1.594e-6, -9.515e-7, 6.429e-7
0.214, -1.597e-6, -9.540e-7, 6.432e-7
0.213, -1.600e-6, -9.576e-7, 6.423e-7
0.212, -1.605e-6, -9.579e-7, 6.469e-7
0.211, -1.605e-6, -9.607e-7, 6.441e-7
0.210, -1.610e-6, -9.634e-7, 6.463e-7
0.209, -1.609e-6, -9.613e-7, 6.478e-7
0.208, -1.614e-6, -9.637e-7, 6.502e-7
0.207, -1.619e-6, -9.677e-7, 6.512e-7
0.206, -1.620e-6, -9.683e-7, 6.518e-7
0.205, -1.623e-6, -9.701e-7, 6.527e-7
0.204, -1.625e-6, -9.695e-7, 6.551e-7
0.203, -1.630e-6, -9.738e-7, 6.560e-7
0.202, -1.631e-6, -9.747e-7, 6.563e-7
0.201, -1.632e-6, -9.759e-7, 6.563e-7
0.200, -1.638e-6, -9.787e-7, 6.591e-7
0.199, -1.639e-6, -9.805e-7, 6.588e-7
0.198, -1.643e-6, -9.811e-7, 6.615e-7
0.197, -1.649e-6, -9.866e-7, 6.624e-7
0.196, -1.651e-6, -9.863e-7, 6.643e-7
0.195, -1.654e-6, -9.885e-7, 6.658e-7
0.194, -1.657e-6, -9.915e-7, 6.655e-7
0.193, -1.659e-6, -9.903e-7, 6.692e-7
0.192, -1.661e-6, -9.940e-7, 6.673e-7
0.191, -1.666e-6, -9.961e-7, 6.698e-7
0.190, -1.670e-6, -9.979e-7, 6.716e-7
0.189, -1.671e-6, -9.970e-7, 6.737e-7
0.188, -1.676e-6, -1.002e-6, 6.743e-7
0.187, -1.680e-6, -1.003e-6, 6.765e-7
0.186, -1.678e-6, -1.003e-6, 6.753e-7
0.185, -1.684e-6, -1.009e-6, 6.750e-7
0.184, -1.688e-6, -1.009e-6, 6.789e-7
0.183, -1.689e-6, -1.010e-6, 6.786e-7
0.182, -1.696e-6, -1.014e-6, 6.817e-7
0.181, -1.702e-6, -1.013e-6, 6.884e-7
0.180, -1.699e-6, -1.015e-6, 6.838e-7
0.179, -1.703e-6, -1.019e-6, 6.844e-7
0.178, -1.707e-6, -1.020e-6, 6.875e-7
0.177, -1.709e-6, -1.021e-6, 6.875e-7
0.176, -1.716e-6, -1.024e-6, 6.914e-7
0.175, -1.717e-6, -1.024e-6, 6.927e-7
0.174, -1.723e-6, -1.030e-6, 6.933e-7
0.173, -1.725e-6, -1.030e-6, 6.954e-7
0.172, -1.727e-6, -1.032e-6, 6.948e-7
0.171, -1.730e-6, -1.034e-6, 6.963e-7
0.170, -1.738e-6, -1.037e-6, 7.015e-7
0.169, -1.736e-6, -1.036e-6, 7.000e-7
0.168, -1.743e-6, -1.041e-6, 7.024e-7
0.167, -1.747e-6, -1.042e-6, 7.043e-7
0.166, -1.748e-6, -1.045e-6, 7.030e-7
0.165, -1.751e-6, -1.047e-6, 7.039e-7
0.164, -1.759e-6, -1.048e-6, 7.104e-7
0.163, -1.757e-6, -1.047e-6, 7.104e-7
0.162, -1.761e-6, -1.053e-6, 7.079e-7
0.161, -1.768e-6, -1.055e-6, 7.137e-7
0.160, -1.767e-6, -1.055e-6, 7.125e-7
0.159, -1.771e-6, -1.057e-6, 7.131e-7
0.158, -1.778e-6, -1.060e-6, 7.177e-7
0.157, -1.778e-6, -1.061e-6, 7.168e-7
0.156, -1.783e-6, -1.064e-6, 7.192e-7
0.155, -1.786e-6, -1.064e-6, 7.223e-7
0.154, -1.788e-6, -1.066e-6, 7.213e-7
0.153, -1.794e-6, -1.070e-6, 7.247e-7
0.152, -1.796e-6, -1.069e-6, 7.265e-7
0.151, -1.801e-6, -1.074e-6, 7.274e-7
0.150, -1.807e-6, -1.075e-6, 7.314e-7
0.149, -1.807e-6, -1.077e-6, 7.305e-7
0.148, -1.811e-6, -1.080e-6, 7.314e-7
0.147, -1.816e-6, -1.081e-6, 7.348e-7
0.146, -1.818e-6, -1.082e-6, 7.357e-7
0.145, -1.823e-6, -1.085e-6, 7.378e-7
0.144, -1.825e-6, -1.086e-6, 7.390e-7
0.143, -1.827e-6, -1.087e-6, 7.400e-7
0.142, -1.832e-6, -1.090e-6, 7.415e-7
0.141, -1.835e-6, -1.091e-6, 7.439e-7
0.140, -1.840e-6, -1.095e-6, 7.451e-7
0.139, -1.844e-6, -1.096e-6, 7.479e-7
0.138, -1.844e-6, -1.095e-6, 7.485e-7
0.137, -1.848e-6, -1.099e-6, 7.485e-7
0.136, -1.851e-6, -1.099e-6, 7.522e-7
0.135, -1.853e-6, -1.100e-6, 7.528e-7
0.134, -1.859e-6, -1.105e-6, 7.540e-7
0.133, -1.862e-6, -1.106e-6, 7.564e-7
0.132, -1.865e-6, -1.106e-6, 7.589e-7
0.131, -1.865e-6, -1.110e-6, 7.555e-7
0.130, -1.872e-6, -1.111e-6, 7.610e-7
0.129, -1.873e-6, -1.112e-6, 7.613e-7
0.128, -1.877e-6, -1.115e-6, 7.622e-7
0.127, -1.878e-6, -1.114e-6, 7.638e-7
0.126, -1.880e-6, -1.115e-6, 7.644e-7
0.125, -1.886e-6, -1.119e-6, 7.671e-7
0.124, -1.890e-6, -1.120e-6, 7.705e-7
0.123, -1.893e-6, -1.123e-6, 7.702e-7
0.122, -1.896e-6, -1.124e-6, 7.720e-7
0.121, -1.897e-6, -1.124e-6, 7.729e-7
0.120, -1.898e-6, -1.127e-6, 7.714e-7
0.119, -1.904e-6, -1.129e-6, 7.754e-7
0.118, -1.908e-6, -1.130e-6, 7.781e-7
0.117, -1.908e-6, -1.131e-6, 7.772e-7
0.116, -1.916e-6, -1.136e-6, 7.799e-7
0.115, -1.917e-6, -1.134e-6, 7.827e-7
0.114, -1.917e-6, -1.137e-6, 7.802e-7
0.113, -1.923e-6, -1.139e-6, 7.839e-7
0.112, -1.925e-6, -1.139e-6, 7.857e-7
0.111, -1.924e-6, -1.140e-6, 7.839e-7
0.110, -1.932e-6, -1.144e-6, 7.879e-7
0.109, -1.932e-6, -1.143e-6, 7.891e-7
0.108, -1.934e-6, -1.144e-6, 7.897e-7
0.107, -1.940e-6, -1.149e-6, 7.909e-7
0.106, -1.941e-6, -1.148e-6, 7.934e-7
0.105, -1.944e-6, -1.150e-6, 7.937e-7
0.104, -1.946e-6, -1.149e-6, 7.967e-7
0.103, -1.949e-6, -1.153e-6, 7.961e-7
0.102, -1.952e-6, -1.154e-6, 7.988e-7
0.101, -1.955e-6, -1.154e-6, 8.004e-7
0.100, -1.955e-6, -1.156e-6, 7.992e-7
0.099, -1.961e-6, -1.159e-6, 8.022e-7
0.098, -1.964e-6, -1.159e-6, 8.050e-7
0.097, -1.964e-6, -1.159e-6, 8.046e-7
0.096, -1.967e-6, -1.161e-6, 8.053e-7
0.095, -1.969e-6, -1.161e-6, 8.077e-7
0.094, -1.974e-6, -1.165e-6, 8.089e-7
0.093, -1.977e-6, -1.165e-6, 8.129e-7
0.092, -1.978e-6, -1.167e-6, 8.108e-7
0.091, -1.982e-6, -1.169e-6, 8.126e-7
0.090, -1.985e-6, -1.170e-6, 8.153e-7
0.089, -1.982e-6, -1.167e-6, 8.147e-7
0.088, -1.988e-6, -1.172e-6, 8.169e-7
0.087, -1.992e-6, -1.172e-6, 8.199e-7
0.086, -1.990e-6, -1.171e-6, 8.190e-7
0.085, -1.994e-6, -1.174e-6, 8.196e-7
0.084, -1.997e-6, -1.175e-6, 8.223e-7
0.083, -1.996e-6, -1.173e-6, 8.227e-7
0.082, -2.002e-6, -1.179e-6, 8.236e-7
0.081, -2.003e-6, -1.176e-6, 8.266e-7
0.080, -2.004e-6, -1.178e-6, 8.263e-7
0.079, -2.007e-6, -1.181e-6, 8.263e-7
0.078, -2.012e-6, -1.181e-6, 8.306e-7
0.077, -2.014e-6, -1.183e-6, 8.309e-7
0.076, -2.017e-6, -1.184e-6, 8.327e-7
0.075, -2.017e-6, -1.182e-6, 8.352e-7
0.074, -2.017e-6, -1.185e-6, 8.327e-7
0.073, -2.022e-6, -1.187e-6, 8.358e-7
0.072, -2.024e-6, -1.185e-6, 8.382e-7
0.071, -2.025e-6, -1.188e-6, 8.373e-7
0.070, -2.030e-6, -1.188e-6, 8.416e-7
0.069, -2.028e-6, -1.188e-6, 8.404e-7
0.068, -2.030e-6, -1.190e-6, 8.397e-7
0.067, -2.034e-6, -1.191e-6, 8.431e-7
0.066, -2.035e-6, -1.189e-6, 8.461e-7
0.065, -2.039e-6, -1.195e-6, 8.446e-7
0.064, -2.041e-6, -1.192e-6, 8.486e-7
0.063, -2.041e-6, -1.193e-6, 8.480e-7
0.062, -2.047e-6, -1.197e-6, 8.492e-7
0.061, -2.047e-6, -1.196e-6, 8.510e-7
0.060, -2.048e-6, -1.195e-6, 8.526e-7
0.059, -2.049e-6, -1.198e-6, 8.507e-7
0.058, -2.055e-6, -1.199e-6, 8.562e-7
0.057, -2.051e-6, -1.197e-6, 8.541e-7
0.056, -2.055e-6, -1.199e-6, 8.556e-7
0.055, -2.056e-6, -1.199e-6, 8.577e-7
0.054, -2.056e-6, -1.198e-6, 8.574e-7
0.053, -2.059e-6, -1.200e-6, 8.590e-7
0.052, -2.060e-6, -1.200e-6, 8.608e-7
0.051, -2.065e-6, -1.202e-6, 8.626e-7
0.050, -2.065e-6, -1.204e-6, 8.614e-7
0.049, -2.065e-6, -1.202e-6, 8.629e-7
0.048, -2.070e-6, -1.204e-6, 8.657e-7
0.047, -2.069e-6, -1.204e-6, 8.654e-7
0.046, -2.075e-6, -1.206e-6, 8.684e-7
0.045, -2.073e-6, -1.206e-6, 8.672e-7
0.044, -2.074e-6, -1.204e-6, 8.696e-7
0.043, -2.077e-6, -1.205e-6, 8.718e-7
0.042, -2.078e-6, -1.207e-6, 8.718e-7
0.041, -2.078e-6, -1.205e-6, 8.727e-7
0.040, -2.078e-6, -1.206e-6, 8.727e-7
0.039, -2.082e-6, -1.207e-6, 8.748e-7
0.038, -2.082e-6, -1.207e-6, 8.754e-7
0.037, -2.082e-6, -1.207e-6, 8.751e-7
0.036, -2.082e-6, -1.207e-6, 8.751e-7
0.035, -2.085e-6, -1.206e-6, 8.791e-7
0.034, -2.083e-6, -1.206e-6, 8.773e-7
0.033, -2.090e-6, -1.208e-6, 8.815e-7
0.032, -2.088e-6, -1.205e-6, 8.831e-7
0.031, -2.088e-6, -1.207e-6, 8.812e-7
0.030, -2.092e-6, -1.208e-6, 8.840e-7
0.029, -2.088e-6, -1.204e-6, 8.843e-7
0.028, -2.089e-6, -1.207e-6, 8.822e-7
0.027, -2.089e-6, -1.206e-6, 8.831e-7
0.026, -2.091e-6, -1.205e-6, 8.858e-7
0.025, -2.091e-6, -1.207e-6, 8.843e-7
0.024, -2.094e-6, -1.206e-6, 8.883e-7
0.023, -2.093e-6, -1.206e-6, 8.876e-7
0.022, -2.095e-6, -1.208e-6, 8.870e-7
0.021, -2.092e-6, -1.204e-6, 8.889e-7
0.020, -2.094e-6, -1.206e-6, 8.886e-7
0.019, -2.096e-6, -1.207e-6, 8.889e-7
0.018, -2.096e-6, -1.205e-6, 8.907e-7
0.017, -2.093e-6, -1.205e-6, 8.883e-7
0.016, -2.096e-6, -1.206e-6, 8.907e-7
0.015, -2.096e-6, -1.203e-6, 8.928e-7
0.014, -2.096e-6, -1.204e-6, 8.919e-7
0.013, -2.096e-6, -1.204e-6, 8.922e-7
0.012, -2.095e-6, -1.201e-6, 8.934e-7
0.011, -2.096e-6, -1.203e-6, 8.922e-7
0.010, -2.098e-6, -1.203e-6, 8.944e-7
0.009, -2.096e-6, -1.199e-6, 8.971e-7
0.008, -2.095e-6, -1.201e-6, 8.944e-7
0.007, -2.093e-6, -1.200e-6, 8.934e-7
0.006, -2.095e-6, -1.198e-6, 8.968e-7
0.005, -2.096e-6, -1.200e-6, 8.953e-7
0.004, -2.093e-6, -1.199e-6, 8.944e-7
0.003, -2.095e-6, -1.197e-6, 8.980e-7
0.002, -2.093e-6, -1.197e-6, 8.956e-7
0.001, -2.095e-6, -1.196e-6, 8.983e-7
0.000, -2.092e-6, -1.194e-6, 8.977e-7
-0.001, -2.088e-6, -1.194e-6, 8.950e-7
-0.002, -2.090e-6, -1.193e-6, 8.974e-7
-0.003, -2.090e-6, -1.193e-6, 8.968e-7
-0.004, -2.089e-6, -1.193e-6, 8.962e-7
-0.005, -2.090e-6, -1.190e-6, 8.999e-7
-0.006, -2.088e-6, -1.191e-6, 8.977e-7
-0.007, -2.090e-6, -1.191e-6, 8.986e-7
-0.008, -2.086e-6, -1.189e-6, 8.977e-7
-0.009, -2.085e-6, -1.187e-6, 8.977e-7
-0.010, -2.086e-6, -1.187e-6, 8.992e-7
-0.011, -2.082e-6, -1.184e-6, 8.983e-7
-0.012, -2.084e-6, -1.186e-6, 8.980e-7
-0.013, -2.083e-6, -1.183e-6, 9.002e-7
-0.014, -2.082e-6, -1.183e-6, 8.989e-7
-0.015, -2.081e-6, -1.182e-6, 8.989e-7
-0.016, -2.082e-6, -1.181e-6, 9.008e-7
-0.017, -2.077e-6, -1.179e-6, 8.986e-7
-0.018, -2.076e-6, -1.179e-6, 8.968e-7
-0.019, -2.082e-6, -1.180e-6, 9.020e-7
-0.020, -2.076e-6, -1.176e-6, 8.992e-7
-0.021, -2.076e-6, -1.178e-6, 8.980e-7
-0.022, -2.076e-6, -1.174e-6, 9.014e-7
-0.023, -2.071e-6, -1.173e-6, 8.986e-7
-0.024, -2.071e-6, -1.174e-6, 8.977e-7
-0.025, -2.072e-6, -1.172e-6, 8.999e-7
-0.026, -2.066e-6, -1.169e-6, 8.971e-7
-0.027, -2.068e-6, -1.171e-6, 8.971e-7
-0.028, -2.068e-6, -1.167e-6, 9.011e-7
-0.029, -2.066e-6, -1.168e-6, 8.977e-7
-0.030, -2.066e-6, -1.168e-6, 8.983e-7
-0.031, -2.065e-6, -1.164e-6, 9.011e-7
-0.032, -2.060e-6, -1.165e-6, 8.956e-7
-0.033, -2.063e-6, -1.163e-6, 8.992e-7
-0.034, -2.058e-6, -1.160e-6, 8.980e-7
-0.035, -2.060e-6, -1.163e-6, 8.968e-7
-0.036, -2.056e-6, -1.158e-6, 8.986e-7
-0.037, -2.053e-6, -1.156e-6, 8.974e-7
-0.038, -2.052e-6, -1.155e-6, 8.971e-7
-0.039, -2.056e-6, -1.158e-6, 8.983e-7
-0.040, -2.053e-6, -1.156e-6, 8.965e-7
-0.041, -2.050e-6, -1.153e-6, 8.971e-7
-0.042, -2.052e-6, -1.154e-6, 8.980e-7
-0.043, -2.048e-6, -1.150e-6, 8.974e-7
-0.044, -2.045e-6, -1.150e-6, 8.950e-7
-0.045, -2.044e-6, -1.146e-6, 8.980e-7
-0.046, -2.044e-6, -1.147e-6, 8.968e-7
-0.047, -2.041e-6, -1.146e-6, 8.947e-7
-0.048, -2.045e-6, -1.147e-6, 8.974e-7
-0.049, -2.036e-6, -1.142e-6, 8.944e-7
-0.050, -2.036e-6, -1.143e-6, 8.928e-7
-0.051, -2.036e-6, -1.140e-6, 8.956e-7
-0.052, -2.033e-6, -1.139e-6, 8.947e-7
-0.053, -2.032e-6, -1.140e-6, 8.928e-7
-0.054, -2.034e-6, -1.137e-6, 8.962e-7
-0.055, -2.031e-6, -1.137e-6, 8.941e-7
-0.056, -2.030e-6, -1.136e-6, 8.941e-7
-0.057, -2.025e-6, -1.132e-6, 8.928e-7
-0.058, -2.026e-6, -1.133e-6, 8.925e-7
-0.059, -2.025e-6, -1.132e-6, 8.928e-7
-0.060, -2.022e-6, -1.130e-6, 8.913e-7
-0.061, -2.021e-6, -1.130e-6, 8.913e-7
-0.062, -2.021e-6, -1.128e-6, 8.928e-7
-0.063, -2.020e-6, -1.128e-6, 8.919e-7
-0.064, -2.016e-6, -1.126e-6, 8.901e-7
-0.065, -2.015e-6, -1.123e-6, 8.916e-7
-0.066, -2.012e-6, -1.123e-6, 8.886e-7
-0.067, -2.013e-6, -1.123e-6, 8.907e-7
-0.068, -2.012e-6, -1.122e-6, 8.904e-7
-0.069, -2.008e-6, -1.120e-6, 8.880e-7
-0.070, -2.005e-6, -1.118e-6, 8.870e-7
-0.071, -2.004e-6, -1.115e-6, 8.892e-7
-0.072, -2.001e-6, -1.115e-6, 8.864e-7
-0.073, -2.001e-6, -1.114e-6, 8.867e-7
-0.074, -2.000e-6, -1.112e-6, 8.873e-7
-0.075, -1.995e-6, -1.111e-6, 8.837e-7
-0.076, -1.996e-6, -1.110e-6, 8.858e-7
-0.077, -1.993e-6, -1.107e-6, 8.858e-7
-0.078, -1.989e-6, -1.107e-6, 8.815e-7
-0.079, -1.990e-6, -1.106e-6, 8.840e-7
-0.080, -1.987e-6, -1.103e-6, 8.840e-7
-0.081, -1.988e-6, -1.106e-6, 8.819e-7
-0.082, -1.985e-6, -1.102e-6, 8.834e-7
-0.083, -1.980e-6, -1.099e-6, 8.819e-7
-0.084, -1.982e-6, -1.101e-6, 8.809e-7
-0.085, -1.982e-6, -1.100e-6, 8.828e-7
-0.086, -1.974e-6, -1.097e-6, 8.773e-7
-0.087, -1.976e-6, -1.099e-6, 8.770e-7
-0.088, -1.973e-6, -1.093e-6, 8.797e-7
-0.089, -1.971e-6, -1.093e-6, 8.788e-7
-0.090, -1.972e-6, -1.095e-6, 8.776e-7
-0.091, -1.969e-6, -1.091e-6, 8.779e-7
-0.092, -1.963e-6, -1.088e-6, 8.754e-7
-0.093, -1.966e-6, -1.093e-6, 8.739e-7
-0.094, -1.961e-6, -1.086e-6, 8.748e-7
-0.095, -1.958e-6, -1.086e-6, 8.718e-7
-0.096, -1.960e-6, -1.086e-6, 8.748e-7
-0.097, -1.957e-6, -1.084e-6, 8.733e-7
-0.098, -1.958e-6, -1.086e-6, 8.712e-7
-0.099, -1.955e-6, -1.083e-6, 8.724e-7
-0.100, -1.951e-6, -1.080e-6, 8.712e-7
-0.101, -1.948e-6, -1.080e-6, 8.684e-7
-0.102, -1.949e-6, -1.079e-6, 8.703e-7
-0.103, -1.942e-6, -1.073e-6, 8.690e-7
-0.104, -1.940e-6, -1.075e-6, 8.660e-7
-0.105, -1.943e-6, -1.074e-6, 8.690e-7
-0.106, -1.937e-6, -1.071e-6, 8.663e-7
-0.107, -1.937e-6, -1.073e-6, 8.635e-7
-0.108, -1.934e-6, -1.070e-6, 8.645e-7
-0.109, -1.932e-6, -1.068e-6, 8.638e-7
-0.110, -1.933e-6, -1.068e-6, 8.648e-7
-0.111, -1.933e-6, -1.067e-6, 8.660e-7
-0.112, -1.930e-6, -1.066e-6, 8.638e-7
-0.113, -1.930e-6, -1.068e-6, 8.617e-7
-0.114, -1.926e-6, -1.065e-6, 8.605e-7
-0.115, -1.921e-6, -1.062e-6, 8.587e-7
-0.116, -1.921e-6, -1.063e-6, 8.580e-7
-0.117, -1.918e-6, -1.060e-6, 8.577e-7
-0.118, -1.919e-6, -1.061e-6, 8.580e-7
-0.119, -1.917e-6, -1.059e-6, 8.580e-7
-0.120, -1.912e-6, -1.056e-6, 8.565e-7
-0.121, -1.913e-6, -1.057e-6, 8.562e-7
-0.122, -1.911e-6, -1.055e-6, 8.559e-7
-0.123, -1.908e-6, -1.053e-6, 8.556e-7
-0.124, -1.909e-6, -1.057e-6, 8.516e-7
-0.125, -1.906e-6, -1.053e-6, 8.529e-7
-0.126, -1.904e-6, -1.051e-6, 8.529e-7
-0.127, -1.905e-6, -1.052e-6, 8.532e-7
-0.128, -1.900e-6, -1.048e-6, 8.522e-7
-0.129, -1.902e-6, -1.051e-6, 8.510e-7
-0.130, -1.898e-6, -1.048e-6, 8.495e-7
-0.131, -1.897e-6, -1.046e-6, 8.507e-7
-0.132, -1.893e-6, -1.046e-6, 8.461e-7
-0.133, -1.895e-6, -1.045e-6, 8.501e-7
-0.134, -1.894e-6, -1.044e-6, 8.495e-7
-0.135, -1.891e-6, -1.045e-6, 8.461e-7
-0.136, -1.892e-6, -1.045e-6, 8.465e-7
-0.137, -1.888e-6, -1.041e-6, 8.468e-7
-0.138, -1.884e-6, -1.042e-6, 8.422e-7
-0.139, -1.888e-6, -1.043e-6, 8.449e-7
-0.140, -1.884e-6, -1.038e-6, 8.455e-7
-0.141, -1.883e-6, -1.041e-6, 8.425e-7
-0.142, -1.886e-6, -1.040e-6, 8.458e-7
-0.143, -1.879e-6, -1.038e-6, 8.416e-7
-0.144, -1.878e-6, -1.037e-6, 8.403e-7
-0.145, -1.880e-6, -1.038e-6, 8.428e-7
-0.146, -1.876e-6, -1.035e-6, 8.413e-7
-0.147, -1.875e-6, -1.035e-6, 8.407e-7
-0.148, -1.875e-6, -1.034e-6, 8.413e-7
-0.149, -1.871e-6, -1.032e-6, 8.388e-7
-0.150, -1.873e-6, -1.035e-6, 8.376e-7
-0.151, -1.872e-6, -1.032e-6, 8.394e-7
-0.152, -1.868e-6, -1.031e-6, 8.367e-7
-0.153, -1.871e-6, -1.033e-6, 8.376e-7
-0.154, -1.869e-6, -1.031e-6, 8.385e-7
-0.155, -1.866e-6, -1.031e-6, 8.349e-7
-0.156, -1.866e-6, -1.030e-6, 8.364e-7
-0.157, -1.867e-6, -1.030e-6, 8.364e-7
-0.158, -1.864e-6, -1.028e-6, 8.364e-7
-0.159, -1.866e-6, -1.032e-6, 8.346e-7
-0.160, -1.863e-6, -1.028e-6, 8.352e-7
-0.161, -1.862e-6, -1.030e-6, 8.315e-7
-0.162, -1.862e-6, -1.028e-6, 8.336e-7
-0.163, -1.859e-6, -1.026e-6, 8.333e-7
-0.164, -1.858e-6, -1.027e-6, 8.318e-7
-0.165, -1.858e-6, -1.026e-6, 8.318e-7
-0.166, -1.857e-6, -1.025e-6, 8.321e-7
-0.167, -1.857e-6, -1.025e-6, 8.324e-7
-0.168, -1.856e-6, -1.025e-6, 8.312e-7
-0.169, -1.852e-6, -1.024e-6, 8.278e-7
-0.170, -1.853e-6, -1.024e-6, 8.297e-7
-0.171, -1.853e-6, -1.024e-6, 8.294e-7
-0.172, -1.850e-6, -1.022e-6, 8.275e-7
-0.173, -1.854e-6, -1.024e-6, 8.297e-7
-0.174, -1.851e-6, -1.022e-6, 8.294e-7
-0.175, -1.849e-6, -1.021e-6, 8.272e-7
-0.176, -1.846e-6, -1.021e-6, 8.257e-7
-0.177, -1.852e-6, -1.024e-6, 8.278e-7
-0.178, -1.848e-6, -1.020e-6, 8.275e-7
-0.179, -1.848e-6, -1.021e-6, 8.272e-7
-0.180, -1.845e-6, -1.017e-6, 8.272e-7
-0.181, -1.842e-6, -1.017e-6, 8.242e-7
-0.182, -1.843e-6, -1.017e-6, 8.257e-7
-0.183, -1.844e-6, -1.017e-6, 8.275e-7
-0.184, -1.843e-6, -1.019e-6, 8.245e-7
-0.185, -1.842e-6, -1.017e-6, 8.254e-7
-0.186, -1.841e-6, -1.017e-6, 8.245e-7
-0.187, -1.839e-6, -1.017e-6, 8.214e-7
-0.188, -1.839e-6, -1.015e-6, 8.239e-7
-0.189, -1.836e-6, -1.016e-6, 8.205e-7
-0.190, -1.842e-6, -1.018e-6, 8.239e-7
-0.191, -1.836e-6, -1.014e-6, 8.220e-7
-0.192, -1.833e-6, -1.013e-6, 8.205e-7
-0.193, -1.835e-6, -1.013e-6, 8.223e-7
-0.194, -1.832e-6, -1.011e-6, 8.208e-7
-0.195, -1.833e-6, -1.012e-6, 8.208e-7
-0.196, -1.831e-6, -1.012e-6, 8.196e-7
-0.197, -1.835e-6, -1.013e-6, 8.214e-7
-0.198, -1.833e-6, -1.014e-6, 8.190e-7
-0.199, -1.830e-6, -1.011e-6, 8.193e-7
-0.200, -1.829e-6, -1.009e-6, 8.199e-7
-0.201, -1.828e-6, -1.012e-6, 8.165e-7
-0.202, -1.830e-6, -1.012e-6, 8.175e-7
-0.203, -1.826e-6, -1.009e-6, 8.172e-7
-0.204, -1.828e-6, -1.011e-6, 8.162e-7
-0.205, -1.826e-6, -1.010e-6, 8.159e-7
-0.206, -1.824e-6, -1.007e-6, 8.162e-7
-0.207, -1.827e-6, -1.012e-6, 8.147e-7
-0.208, -1.823e-6, -1.007e-6, 8.165e-7
-0.209, -1.824e-6, -1.009e-6, 8.150e-7
-0.210, -1.822e-6, -1.008e-6, 8.138e-7
-0.211, -1.821e-6, -1.006e-6, 8.147e-7
-0.212, -1.820e-6, -1.006e-6, 8.141e-7
-0.213, -1.816e-6, -1.003e-6, 8.132e-7
-0.214, -1.819e-6, -1.005e-6, 8.144e-7
-0.215, -1.819e-6, -1.006e-6, 8.129e-7
-0.216, -1.819e-6, -1.005e-6, 8.144e-7
-0.217, -1.818e-6, -1.005e-6, 8.129e-7
-0.218, -1.818e-6, -1.007e-6, 8.114e-7
-0.219, -1.818e-6, -1.006e-6, 8.120e-7
-0.220, -1.819e-6, -1.008e-6, 8.111e-7
-0.221, -1.816e-6, -1.004e-6, 8.120e-7
-0.222, -1.815e-6, -1.003e-6, 8.117e-7
-0.223, -1.814e-6, -1.003e-6, 8.114e-7
-0.224, -1.810e-6, -1.001e-6, 8.092e-7
-0.225, -1.810e-6, -9.994e-7, 8.107e-7
-0.226, -1.811e-6, -1.001e-6, 8.101e-7
-0.227, -1.817e-6, -1.005e-6, 8.117e-7
-0.228, -1.807e-6, -9.964e-7, 8.107e-7
-0.229, -1.806e-6, -9.970e-7, 8.086e-7
-0.230, -1.810e-6, -1.001e-6, 8.092e-7
-0.231, -1.809e-6, -9.979e-7, 8.114e-7
-0.232, -1.808e-6, -9.994e-7, 8.083e-7
-0.233, -1.808e-6, -9.991e-7, 8.089e-7
-0.234, -1.804e-6, -9.958e-7, 8.086e-7
-0.235, -1.806e-6, -9.985e-7, 8.077e-7
-0.236, -1.803e-6, -9.955e-7, 8.074e-7
-0.237, -1.808e-6, -9.988e-7, 8.089e-7
-0.238, -1.803e-6, -9.958e-7, 8.071e-7
-0.239, -1.807e-6, -9.982e-7, 8.089e-7
-0.240, -1.803e-6, -9.964e-7, 8.068e-7
-0.241, -1.801e-6, -9.946e-7, 8.068e-7
-0.242, -1.810e-6, -1.001e-6, 8.095e-7
-0.243, -1.800e-6, -9.933e-7, 8.062e-7
-0.244, -1.797e-6, -9.930e-7, 8.043e-7
-0.245, -1.799e-6, -9.933e-7, 8.053e-7
-0.246, -1.797e-6, -9.903e-7, 8.068e-7
-0.247, -1.805e-6, -9.994e-7, 8.053e-7
-0.248, -1.800e-6, -9.924e-7, 8.077e-7
-0.249, -1.799e-6, -9.918e-7, 8.068e-7
-0.250, -1.794e-6, -9.891e-7, 8.053e-7
-0.251, -1.806e-6, -9.991e-7, 8.071e-7
-0.252, -1.795e-6, -9.900e-7, 8.053e-7
-0.253, -1.799e-6, -9.946e-7, 8.046e-7
-0.254, -1.799e-6, -9.924e-7, 8.065e-7
-0.255, -1.793e-6, -9.875e-7, 8.059e-7
-0.256, -1.796e-6, -9.937e-7, 8.019e-7
-0.257, -1.794e-6, -9.882e-7, 8.062e-7
-0.258, -1.792e-6, -9.882e-7, 8.040e-7
-0.259, -1.799e-6, -9.955e-7, 8.034e-7
-0.260, -1.795e-6, -9.897e-7, 8.056e-7
-0.261, -1.791e-6, -9.882e-7, 8.028e-7
-0.262, -1.795e-6, -9.903e-7, 8.043e-7
-0.263, -1.792e-6, -9.879e-7, 8.046e-7
-0.264, -1.794e-6, -9.891e-7, 8.046e-7
-0.265, -1.796e-6, -9.885e-7, 8.071e-7
-0.266, -1.793e-6, -9.872e-7, 8.059e-7
-0.267, -1.793e-6, -9.882e-7, 8.046e-7
-0.268, -1.790e-6, -9.857e-7, 8.040e-7
-0.269, -1.792e-6, -9.879e-7, 8.037e-7
-0.270, -1.794e-6, -9.900e-7, 8.043e-7
-0.271, -1.792e-6, -9.869e-7, 8.046e-7
-0.272, -1.792e-6, -9.903e-7, 8.022e-7
-0.273, -1.789e-6, -9.860e-7, 8.028e-7
-0.274, -1.792e-6, -9.860e-7, 8.059e-7
-0.275, -1.789e-6, -9.860e-7, 8.031e-7
-0.276, -1.789e-6, -9.875e-7, 8.019e-7
-0.277, -1.789e-6, -9.842e-7, 8.049e-7
-0.278, -1.785e-6, -9.821e-7, 8.031e-7
-0.279, -1.791e-6, -9.872e-7, 8.034e-7
-0.280, -1.791e-6, -9.854e-7, 8.053e-7
-0.281, -1.787e-6, -9.863e-7, 8.010e-7
-0.282, -1.785e-6, -9.836e-7, 8.016e-7
-0.283, -1.791e-6, -9.875e-7, 8.034e-7
-0.284, -1.785e-6, -9.824e-7, 8.022e-7
-0.285, -1.789e-6, -9.857e-7, 8.028e-7
-0.286, -1.786e-6, -9.827e-7, 8.034e-7
-0.287, -1.787e-6, -9.848e-7, 8.025e-7
-0.288, -1.792e-6, -9.885e-7, 8.034e-7
-0.289, -1.786e-6, -9.842e-7, 8.016e-7
-0.290, -1.785e-6, -9.836e-7, 8.013e-7
-0.291, -1.787e-6, -9.848e-7, 8.019e-7
-0.292, -1.779e-6, -9.793e-7, 8.001e-7
-0.293, -1.785e-6, -9.848e-7, 8.004e-7
-0.294, -1.780e-6, -9.778e-7, 8.025e-7
-0.295, -1.778e-6, -9.793e-7, 7.988e-7
-0.296, -1.778e-6, -9.805e-7, 7.979e-7
-0.297, -1.778e-6, -9.781e-7, 7.998e-7
-0.298, -1.778e-6, -9.811e-7, 7.964e-7
-0.299, -1.779e-6, -9.796e-7, 7.998e-7
-0.300, -1.779e-6, -9.802e-7, 7.985e-7
-0.301, -1.775e-6, -9.763e-7, 7.992e-7
-0.302, -1.781e-6, -9.845e-7, 7.967e-7
-0.303, -1.776e-6, -9.760e-7, 7.998e-7
-0.304, -1.776e-6, -9.790e-7, 7.967e-7
-0.305, -1.776e-6, -9.775e-7, 7.988e-7
-0.306, -1.774e-6, -9.741e-7, 7.995e-7
-0.307, -1.773e-6, -9.775e-7, 7.955e-7
-0.308, -1.775e-6, -9.769e-7, 7.985e-7
-0.309, -1.773e-6, -9.741e-7, 7.988e-7
-0.310, -1.773e-6, -9.766e-7, 7.961e-7
-0.311, -1.771e-6, -9.760e-7, 7.955e-7
-0.312, -1.774e-6, -9.790e-7, 7.949e-7
-0.313, -1.771e-6, -9.763e-7, 7.943e-7
-0.314, -1.773e-6, -9.772e-7, 7.961e-7
-0.315, -1.766e-6, -9.726e-7, 7.937e-7
-0.316, -1.767e-6, -9.732e-7, 7.940e-7
-0.317, -1.770e-6, -9.735e-7, 7.961e-7
-0.318, -1.766e-6, -9.726e-7, 7.937e-7
-0.319, -1.770e-6, -9.744e-7, 7.955e-7
-0.320, -1.768e-6, -9.726e-7, 7.952e-7
-0.321, -1.771e-6, -9.796e-7, 7.918e-7
-0.322, -1.767e-6, -9.735e-7, 7.940e-7
-0.323, -1.762e-6, -9.683e-7, 7.940e-7
-0.324, -1.773e-6, -9.805e-7, 7.921e-7
-0.325, -1.767e-6, -9.750e-7, 7.918e-7
-0.326, -1.763e-6, -9.726e-7, 7.903e-7
-0.327, -1.763e-6, -9.732e-7, 7.897e-7
-0.328, -1.764e-6, -9.726e-7, 7.909e-7
-0.329, -1.756e-6, -9.656e-7, 7.903e-7
-0.330, -1.767e-6, -9.766e-7, 7.906e-7
-0.331, -1.768e-6, -9.769e-7, 7.912e-7
-0.332, -1.760e-6, -9.708e-7, 7.897e-7
-0.333, -1.761e-6, -9.711e-7, 7.897e-7
-0.334, -1.760e-6, -9.705e-7, 7.891e-7
-0.335, -1.760e-6, -9.714e-7, 7.885e-7
-0.336, -1.762e-6, -9.747e-7, 7.872e-7
-0.337, -1.760e-6, -9.711e-7, 7.888e-7
-0.338, -1.761e-6, -9.735e-7, 7.872e-7
-0.339, -1.757e-6, -9.705e-7, 7.869e-7
-0.340, -1.756e-6, -9.674e-7, 7.888e-7
-0.341, -1.754e-6, -9.689e-7, 7.848e-7
-0.342, -1.758e-6, -9.714e-7, 7.863e-7
-0.343, -1.759e-6, -9.717e-7, 7.872e-7
-0.344, -1.754e-6, -9.711e-7, 7.833e-7
-0.345, -1.760e-6, -9.738e-7, 7.863e-7
-0.346, -1.758e-6, -9.720e-7, 7.857e-7
-0.347, -1.757e-6, -9.732e-7, 7.842e-7
-0.348, -1.760e-6, -9.735e-7, 7.869e-7
-0.349, -1.755e-6, -9.698e-7, 7.848e-7
-0.350, -1.760e-6, -9.756e-7, 7.848e-7
-0.351, -1.756e-6, -9.723e-7, 7.839e-7
-0.352, -1.753e-6, -9.686e-7, 7.842e-7
-0.353, -1.758e-6, -9.753e-7, 7.824e-7
-0.354, -1.754e-6, -9.708e-7, 7.833e-7
-0.355, -1.761e-6, -9.784e-7, 7.824e-7
-0.356, -1.757e-6, -9.750e-7, 7.821e-7
-0.357, -1.759e-6, -9.750e-7, 7.842e-7
-0.358, -1.754e-6, -9.723e-7, 7.821e-7
-0.359, -1.759e-6, -9.772e-7, 7.818e-7
-0.360, -1.760e-6, -9.781e-7, 7.818e-7
-0.361, -1.756e-6, -9.738e-7, 7.818e-7
-0.362, -1.756e-6, -9.760e-7, 7.802e-7
-0.363, -1.761e-6, -9.781e-7, 7.827e-7
-0.364, -1.759e-6, -9.775e-7, 7.818e-7
-0.365, -1.760e-6, -9.793e-7, 7.805e-7
-0.366, -1.758e-6, -9.772e-7, 7.808e-7
-0.367, -1.760e-6, -9.799e-7, 7.805e-7
-0.368, -1.758e-6, -9.775e-7, 7.805e-7
-0.369, -1.758e-6, -9.781e-7, 7.799e-7
-0.370, -1.757e-6, -9.778e-7, 7.790e-7
-0.371, -1.759e-6, -9.799e-7, 7.787e-7
-0.372, -1.757e-6, -9.790e-7, 7.778e-7
-0.373, -1.762e-6, -9.827e-7, 7.790e-7
-0.374, -1.759e-6, -9.811e-7, 7.775e-7
-0.375, -1.757e-6, -9.784e-7, 7.787e-7
-0.376, -1.766e-6, -9.879e-7, 7.778e-7
-0.377, -1.759e-6, -9.821e-7, 7.769e-7
-0.378, -1.758e-6, -9.827e-7, 7.757e-7
-0.379, -1.767e-6, -9.906e-7, 7.769e-7
-0.380, -1.761e-6, -9.833e-7, 7.781e-7
-0.381, -1.762e-6, -9.839e-7, 7.778e-7
-0.382, -1.761e-6, -9.824e-7, 7.787e-7
-0.383, -1.763e-6, -9.839e-7, 7.787e-7
-0.384, -1.761e-6, -9.842e-7, 7.769e-7
-0.385, -1.764e-6, -9.879e-7, 7.760e-7
-0.386, -1.763e-6, -9.866e-7, 7.763e-7
-0.387, -1.766e-6, -9.909e-7, 7.753e-7
-0.388, -1.763e-6, -9.875e-7, 7.753e-7
-0.389, -1.765e-6, -9.903e-7, 7.747e-7
-0.390, -1.765e-6, -9.897e-7, 7.757e-7
-0.391, -1.766e-6, -9.897e-7, 7.763e-7
-0.392, -1.766e-6, -9.915e-7, 7.747e-7
-0.393, -1.767e-6, -9.940e-7, 7.732e-7
-0.394, -1.769e-6, -9.927e-7, 7.760e-7
-0.395, -1.766e-6, -9.912e-7, 7.747e-7
-0.396, -1.771e-6, -9.964e-7, 7.741e-7
-0.397, -1.770e-6, -9.949e-7, 7.750e-7
-0.398, -1.776e-6, -1.003e-6, 7.723e-7
-0.399, -1.771e-6, -9.979e-7, 7.732e-7
-0.400, -1.770e-6, -9.976e-7, 7.723e-7
