Mar. 20, 2018   15:10:43
Square Wave Voltammetry
File: c:\users\electrochemist\desktop\2018\20032018_unbufarray_unpap\42_g1_ph7,46_5.txt
Data Source:  Experiment
Instrument Model:  CHI1040A
Header: 
Note: 

Init E (V) = 0.7
Final E (V) = -0.4
Incr E (V) = 0.001
Amplitude (V) = 0.1
Frequency (Hz) = 152
Quiet Time (sec) = 2
Sensitivity (A/V) = 1e-6

Difference:

Forward:

Reverse:

Potential/V, Diff(i/A), For(i/A), Rev(i/A)

0.699, -8.505e-7, -2.335e-7, 6.170e-7
0.698, -1.089e-6, -5.332e-7, 5.556e-7
0.697, -1.086e-6, -5.454e-7, 5.404e-7
0.696, -1.081e-6, -5.493e-7, 5.321e-7
0.695, -1.084e-6, -5.545e-7, 5.291e-7
0.694, -1.078e-6, -5.506e-7, 5.279e-7
0.693, -1.076e-6, -5.554e-7, 5.209e-7
0.692, -1.076e-6, -5.551e-7, 5.206e-7
0.691, -1.074e-6, -5.509e-7, 5.233e-7
0.690, -1.071e-6, -5.564e-7, 5.144e-7
0.689, -1.073e-6, -5.573e-7, 5.157e-7
0.688, -1.069e-6, -5.542e-7, 5.148e-7
0.687, -1.071e-6, -5.570e-7, 5.141e-7
0.686, -1.067e-6, -5.551e-7, 5.114e-7
0.685, -1.061e-6, -5.530e-7, 5.080e-7
0.684, -1.060e-6, -5.542e-7, 5.059e-7
0.683, -1.067e-6, -5.570e-7, 5.096e-7
0.682, -1.060e-6, -5.548e-7, 5.050e-7
0.681, -1.058e-6, -5.564e-7, 5.019e-7
0.680, -1.059e-6, -5.570e-7, 5.016e-7
0.679, -1.058e-6, -5.564e-7, 5.013e-7
0.678, -1.056e-6, -5.576e-7, 4.986e-7
0.677, -1.058e-6, -5.570e-7, 5.010e-7
0.676, -1.051e-6, -5.560e-7, 4.949e-7
0.675, -1.051e-6, -5.564e-7, 4.943e-7
0.674, -1.048e-6, -5.542e-7, 4.940e-7
0.673, -1.050e-6, -5.573e-7, 4.928e-7
0.672, -1.050e-6, -5.573e-7, 4.925e-7
0.671, -1.049e-6, -5.557e-7, 4.931e-7
0.670, -1.049e-6, -5.576e-7, 4.919e-7
0.669, -1.048e-6, -5.591e-7, 4.885e-7
0.668, -1.044e-6, -5.551e-7, 4.885e-7
0.667, -1.043e-6, -5.570e-7, 4.864e-7
0.666, -1.047e-6, -5.585e-7, 4.885e-7
0.665, -1.043e-6, -5.560e-7, 4.870e-7
0.664, -1.042e-6, -5.582e-7, 4.842e-7
0.663, -1.045e-6, -5.579e-7, 4.867e-7
0.662, -1.042e-6, -5.579e-7, 4.845e-7
0.661, -1.038e-6, -5.585e-7, 4.797e-7
0.660, -1.044e-6, -5.594e-7, 4.842e-7
0.659, -1.039e-6, -5.576e-7, 4.818e-7
0.658, -1.041e-6, -5.615e-7, 4.790e-7
0.657, -1.040e-6, -5.579e-7, 4.818e-7
0.656, -1.037e-6, -5.582e-7, 4.790e-7
0.655, -1.041e-6, -5.621e-7, 4.790e-7
0.654, -1.038e-6, -5.609e-7, 4.769e-7
0.653, -1.039e-6, -5.603e-7, 4.787e-7
0.652, -1.038e-6, -5.615e-7, 4.766e-7
0.651, -1.039e-6, -5.597e-7, 4.794e-7
0.650, -1.036e-6, -5.606e-7, 4.757e-7
0.649, -1.038e-6, -5.615e-7, 4.766e-7
0.648, -1.038e-6, -5.594e-7, 4.781e-7
0.647, -1.037e-6, -5.637e-7, 4.729e-7
0.646, -1.042e-6, -5.637e-7, 4.781e-7
0.645, -1.035e-6, -5.615e-7, 4.736e-7
0.644, -1.034e-6, -5.628e-7, 4.717e-7
0.643, -1.038e-6, -5.640e-7, 4.742e-7
0.642, -1.035e-6, -5.618e-7, 4.729e-7
0.641, -1.038e-6, -5.664e-7, 4.720e-7
0.640, -1.038e-6, -5.637e-7, 4.742e-7
0.639, -1.037e-6, -5.646e-7, 4.723e-7
0.638, -1.036e-6, -5.667e-7, 4.693e-7
0.637, -1.040e-6, -5.661e-7, 4.736e-7
0.636, -1.036e-6, -5.637e-7, 4.726e-7
0.635, -1.038e-6, -5.679e-7, 4.696e-7
0.634, -1.041e-6, -5.676e-7, 4.733e-7
0.633, -1.038e-6, -5.667e-7, 4.708e-7
0.632, -1.038e-6, -5.689e-7, 4.687e-7
0.631, -1.035e-6, -5.649e-7, 4.702e-7
0.630, -1.036e-6, -5.679e-7, 4.684e-7
0.629, -1.039e-6, -5.692e-7, 4.702e-7
0.628, -1.035e-6, -5.664e-7, 4.690e-7
0.627, -1.034e-6, -5.664e-7, 4.678e-7
0.626, -1.040e-6, -5.695e-7, 4.702e-7
0.625, -1.039e-6, -5.695e-7, 4.693e-7
0.624, -1.038e-6, -5.695e-7, 4.687e-7
0.623, -1.040e-6, -5.710e-7, 4.687e-7
0.622, -1.040e-6, -5.707e-7, 4.690e-7
0.621, -1.040e-6, -5.710e-7, 4.687e-7
0.620, -1.041e-6, -5.707e-7, 4.699e-7
0.619, -1.038e-6, -5.713e-7, 4.668e-7
0.618, -1.041e-6, -5.741e-7, 4.671e-7
0.617, -1.039e-6, -5.716e-7, 4.678e-7
0.616, -1.039e-6, -5.731e-7, 4.659e-7
0.615, -1.045e-6, -5.759e-7, 4.690e-7
0.614, -1.042e-6, -5.728e-7, 4.687e-7
0.613, -1.040e-6, -5.756e-7, 4.647e-7
0.612, -1.043e-6, -5.756e-7, 4.671e-7
0.611, -1.045e-6, -5.756e-7, 4.699e-7
0.610, -1.041e-6, -5.744e-7, 4.662e-7
0.609, -1.044e-6, -5.774e-7, 4.662e-7
0.608, -1.042e-6, -5.747e-7, 4.678e-7
0.607, -1.042e-6, -5.759e-7, 4.659e-7
0.606, -1.047e-6, -5.786e-7, 4.684e-7
0.605, -1.045e-6, -5.762e-7, 4.690e-7
0.604, -1.045e-6, -5.792e-7, 4.653e-7
0.603, -1.046e-6, -5.802e-7, 4.662e-7
0.602, -1.043e-6, -5.780e-7, 4.647e-7
0.601, -1.045e-6, -5.805e-7, 4.647e-7
0.600, -1.046e-6, -5.805e-7, 4.659e-7
0.599, -1.044e-6, -5.795e-7, 4.641e-7
0.598, -1.045e-6, -5.820e-7, 4.632e-7
0.597, -1.049e-6, -5.820e-7, 4.665e-7
0.596, -1.044e-6, -5.805e-7, 4.635e-7
0.595, -1.046e-6, -5.823e-7, 4.635e-7
0.594, -1.048e-6, -5.811e-7, 4.668e-7
0.593, -1.046e-6, -5.817e-7, 4.644e-7
0.592, -1.048e-6, -5.847e-7, 4.632e-7
0.591, -1.049e-6, -5.841e-7, 4.650e-7
0.590, -1.045e-6, -5.847e-7, 4.607e-7
0.589, -1.050e-6, -5.872e-7, 4.632e-7
0.588, -1.050e-6, -5.841e-7, 4.656e-7
0.587, -1.047e-6, -5.850e-7, 4.620e-7
0.586, -1.052e-6, -5.881e-7, 4.641e-7
0.585, -1.049e-6, -5.850e-7, 4.638e-7
0.584, -1.048e-6, -5.863e-7, 4.617e-7
0.583, -1.052e-6, -5.884e-7, 4.635e-7
0.582, -1.051e-6, -5.856e-7, 4.653e-7
0.581, -1.047e-6, -5.869e-7, 4.604e-7
0.580, -1.052e-6, -5.896e-7, 4.626e-7
0.579, -1.053e-6, -5.887e-7, 4.647e-7
0.578, -1.053e-6, -5.902e-7, 4.626e-7
0.577, -1.055e-6, -5.905e-7, 4.641e-7
0.576, -1.054e-6, -5.899e-7, 4.638e-7
0.575, -1.052e-6, -5.911e-7, 4.613e-7
0.574, -1.054e-6, -5.911e-7, 4.632e-7
0.573, -1.055e-6, -5.911e-7, 4.641e-7
0.572, -1.055e-6, -5.930e-7, 4.620e-7
0.571, -1.054e-6, -5.911e-7, 4.629e-7
0.570, -1.055e-6, -5.921e-7, 4.626e-7
0.569, -1.057e-6, -5.936e-7, 4.632e-7
0.568, -1.056e-6, -5.930e-7, 4.626e-7
0.567, -1.055e-6, -5.936e-7, 4.613e-7
0.566, -1.057e-6, -5.948e-7, 4.620e-7
0.565, -1.058e-6, -5.948e-7, 4.635e-7
0.564, -1.056e-6, -5.963e-7, 4.601e-7
0.563, -1.055e-6, -5.936e-7, 4.617e-7
0.562, -1.060e-6, -5.975e-7, 4.629e-7
0.561, -1.057e-6, -5.969e-7, 4.601e-7
0.560, -1.062e-6, -5.982e-7, 4.641e-7
0.559, -1.060e-6, -5.972e-7, 4.629e-7
0.558, -1.060e-6, -5.997e-7, 4.607e-7
0.557, -1.060e-6, -5.979e-7, 4.620e-7
0.556, -1.062e-6, -5.982e-7, 4.635e-7
0.555, -1.058e-6, -5.988e-7, 4.595e-7
0.554, -1.064e-6, -6.003e-7, 4.641e-7
0.553, -1.063e-6, -6.009e-7, 4.626e-7
0.552, -1.064e-6, -6.015e-7, 4.629e-7
0.551, -1.070e-6, -6.033e-7, 4.662e-7
0.550, -1.063e-6, -6.015e-7, 4.613e-7
0.549, -1.066e-6, -6.043e-7, 4.617e-7
0.548, -1.067e-6, -6.024e-7, 4.641e-7
0.547, -1.065e-6, -6.024e-7, 4.623e-7
0.546, -1.069e-6, -6.058e-7, 4.635e-7
0.545, -1.067e-6, -6.027e-7, 4.641e-7
0.544, -1.073e-6, -6.070e-7, 4.659e-7
0.543, -1.073e-6, -6.076e-7, 4.650e-7
0.542, -1.070e-6, -6.061e-7, 4.644e-7
0.541, -1.071e-6, -6.085e-7, 4.623e-7
0.540, -1.075e-6, -6.091e-7, 4.656e-7
0.539, -1.071e-6, -6.076e-7, 4.632e-7
0.538, -1.071e-6, -6.101e-7, 4.613e-7
0.537, -1.077e-6, -6.104e-7, 4.668e-7
0.536, -1.073e-6, -6.095e-7, 4.638e-7
0.535, -1.076e-6, -6.131e-7, 4.632e-7
0.534, -1.079e-6, -6.116e-7, 4.671e-7
0.533, -1.078e-6, -6.116e-7, 4.662e-7
0.532, -1.078e-6, -6.137e-7, 4.638e-7
0.531, -1.080e-6, -6.125e-7, 4.671e-7
0.530, -1.078e-6, -6.125e-7, 4.659e-7
0.529, -1.082e-6, -6.177e-7, 4.644e-7
0.528, -1.083e-6, -6.159e-7, 4.675e-7
0.527, -1.084e-6, -6.168e-7, 4.675e-7
0.526, -1.084e-6, -6.195e-7, 4.644e-7
0.525, -1.087e-6, -6.177e-7, 4.696e-7
0.524, -1.083e-6, -6.165e-7, 4.665e-7
0.523, -1.087e-6, -6.198e-7, 4.671e-7
0.522, -1.087e-6, -6.189e-7, 4.681e-7
0.521, -1.086e-6, -6.189e-7, 4.671e-7
0.520, -1.088e-6, -6.207e-7, 4.678e-7
0.519, -1.090e-6, -6.204e-7, 4.696e-7
0.518, -1.089e-6, -6.217e-7, 4.678e-7
0.517, -1.094e-6, -6.241e-7, 4.696e-7
0.516, -1.093e-6, -6.223e-7, 4.708e-7
0.515, -1.092e-6, -6.244e-7, 4.675e-7
0.514, -1.096e-6, -6.247e-7, 4.711e-7
0.513, -1.097e-6, -6.265e-7, 4.702e-7
0.512, -1.099e-6, -6.278e-7, 4.711e-7
0.511, -1.098e-6, -6.275e-7, 4.705e-7
0.510, -1.097e-6, -6.268e-7, 4.699e-7
0.509, -1.101e-6, -6.311e-7, 4.699e-7
0.508, -1.102e-6, -6.293e-7, 4.723e-7
0.507, -1.101e-6, -6.293e-7, 4.714e-7
0.506, -1.103e-6, -6.320e-7, 4.711e-7
0.505, -1.106e-6, -6.317e-7, 4.739e-7
0.504, -1.103e-6, -6.329e-7, 4.705e-7
0.503, -1.104e-6, -6.329e-7, 4.711e-7
0.502, -1.107e-6, -6.320e-7, 4.745e-7
0.501, -1.108e-6, -6.342e-7, 4.736e-7
0.500, -1.110e-6, -6.357e-7, 4.742e-7
0.499, -1.110e-6, -6.348e-7, 4.748e-7
0.498, -1.111e-6, -6.360e-7, 4.748e-7
0.497, -1.114e-6, -6.384e-7, 4.751e-7
0.496, -1.116e-6, -6.387e-7, 4.772e-7
0.495, -1.114e-6, -6.400e-7, 4.736e-7
0.494, -1.117e-6, -6.403e-7, 4.769e-7
0.493, -1.114e-6, -6.378e-7, 4.763e-7
0.492, -1.119e-6, -6.445e-7, 4.742e-7
0.491, -1.120e-6, -6.430e-7, 4.766e-7
0.490, -1.119e-6, -6.418e-7, 4.769e-7
0.489, -1.118e-6, -6.430e-7, 4.751e-7
0.488, -1.123e-6, -6.442e-7, 4.787e-7
0.487, -1.118e-6, -6.439e-7, 4.739e-7
0.486, -1.122e-6, -6.473e-7, 4.751e-7
0.485, -1.125e-6, -6.448e-7, 4.803e-7
0.484, -1.122e-6, -6.455e-7, 4.769e-7
0.483, -1.126e-6, -6.494e-7, 4.763e-7
0.482, -1.128e-6, -6.467e-7, 4.809e-7
0.481, -1.126e-6, -6.482e-7, 4.781e-7
0.480, -1.130e-6, -6.522e-7, 4.775e-7
0.479, -1.128e-6, -6.491e-7, 4.787e-7
0.478, -1.130e-6, -6.516e-7, 4.784e-7
0.477, -1.132e-6, -6.534e-7, 4.787e-7
0.476, -1.134e-6, -6.522e-7, 4.815e-7
0.475, -1.131e-6, -6.528e-7, 4.781e-7
0.474, -1.135e-6, -6.558e-7, 4.794e-7
0.473, -1.133e-6, -6.525e-7, 4.809e-7
0.472, -1.136e-6, -6.577e-7, 4.787e-7
0.471, -1.139e-6, -6.568e-7, 4.818e-7
0.470, -1.139e-6, -6.558e-7, 4.833e-7
0.469, -1.137e-6, -6.568e-7, 4.800e-7
0.468, -1.140e-6, -6.586e-7, 4.815e-7
0.467, -1.139e-6, -6.580e-7, 4.809e-7
0.466, -1.144e-6, -6.625e-7, 4.812e-7
0.465, -1.145e-6, -6.607e-7, 4.842e-7
0.464, -1.145e-6, -6.619e-7, 4.830e-7
0.463, -1.143e-6, -6.632e-7, 4.800e-7
0.462, -1.144e-6, -6.629e-7, 4.815e-7
0.461, -1.146e-6, -6.632e-7, 4.833e-7
0.460, -1.147e-6, -6.650e-7, 4.818e-7
0.459, -1.146e-6, -6.647e-7, 4.818e-7
0.458, -1.153e-6, -6.668e-7, 4.867e-7
0.457, -1.151e-6, -6.677e-7, 4.833e-7
0.456, -1.149e-6, -6.659e-7, 4.830e-7
0.455, -1.154e-6, -6.693e-7, 4.845e-7
0.454, -1.156e-6, -6.693e-7, 4.867e-7
0.453, -1.155e-6, -6.687e-7, 4.864e-7
0.452, -1.157e-6, -6.717e-7, 4.858e-7
0.451, -1.159e-6, -6.726e-7, 4.864e-7
0.450, -1.156e-6, -6.714e-7, 4.842e-7
0.449, -1.157e-6, -6.729e-7, 4.842e-7
0.448, -1.161e-6, -6.732e-7, 4.879e-7
0.447, -1.161e-6, -6.729e-7, 4.876e-7
0.446, -1.163e-6, -6.754e-7, 4.879e-7
0.445, -1.167e-6, -6.766e-7, 4.903e-7
0.444, -1.160e-6, -6.738e-7, 4.864e-7
0.443, -1.166e-6, -6.784e-7, 4.879e-7
0.442, -1.169e-6, -6.784e-7, 4.903e-7
0.441, -1.167e-6, -6.784e-7, 4.885e-7
0.440, -1.169e-6, -6.787e-7, 4.906e-7
0.439, -1.169e-6, -6.793e-7, 4.894e-7
0.438, -1.168e-6, -6.802e-7, 4.873e-7
0.437, -1.173e-6, -6.839e-7, 4.891e-7
0.436, -1.170e-6, -6.799e-7, 4.903e-7
0.435, -1.175e-6, -6.854e-7, 4.900e-7
0.434, -1.182e-6, -6.870e-7, 4.949e-7
0.433, -1.179e-6, -6.848e-7, 4.937e-7
0.432, -1.179e-6, -6.879e-7, 4.906e-7
0.431, -1.181e-6, -6.870e-7, 4.943e-7
0.430, -1.183e-6, -6.879e-7, 4.949e-7
0.429, -1.183e-6, -6.918e-7, 4.913e-7
0.428, -1.187e-6, -6.909e-7, 4.961e-7
0.427, -1.182e-6, -6.879e-7, 4.943e-7
0.426, -1.190e-6, -6.949e-7, 4.952e-7
0.425, -1.193e-6, -6.928e-7, 5.004e-7
0.424, -1.187e-6, -6.925e-7, 4.949e-7
0.423, -1.189e-6, -6.955e-7, 4.931e-7
0.422, -1.194e-6, -6.961e-7, 4.983e-7
0.421, -1.193e-6, -6.955e-7, 4.971e-7
0.420, -1.195e-6, -6.983e-7, 4.964e-7
0.419, -1.198e-6, -6.973e-7, 5.004e-7
0.418, -1.196e-6, -6.979e-7, 4.977e-7
0.417, -1.198e-6, -7.004e-7, 4.977e-7
0.416, -1.202e-6, -7.016e-7, 5.001e-7
0.415, -1.202e-6, -7.028e-7, 4.995e-7
0.414, -1.204e-6, -7.028e-7, 5.013e-7
0.413, -1.205e-6, -7.028e-7, 5.019e-7
0.412, -1.208e-6, -7.053e-7, 5.028e-7
0.411, -1.211e-6, -7.074e-7, 5.035e-7
0.410, -1.209e-6, -7.065e-7, 5.028e-7
0.409, -1.210e-6, -7.068e-7, 5.032e-7
0.408, -1.214e-6, -7.105e-7, 5.038e-7
0.407, -1.215e-6, -7.095e-7, 5.053e-7
0.406, -1.215e-6, -7.108e-7, 5.041e-7
0.405, -1.218e-6, -7.120e-7, 5.059e-7
0.404, -1.219e-6, -7.129e-7, 5.059e-7
0.403, -1.217e-6, -7.123e-7, 5.044e-7
0.402, -1.225e-6, -7.153e-7, 5.099e-7
0.401, -1.228e-6, -7.178e-7, 5.099e-7
0.400, -1.226e-6, -7.178e-7, 5.080e-7
0.399, -1.229e-6, -7.175e-7, 5.111e-7
0.398, -1.226e-6, -7.190e-7, 5.068e-7
0.397, -1.228e-6, -7.205e-7, 5.077e-7
0.396, -1.233e-6, -7.208e-7, 5.117e-7
0.395, -1.231e-6, -7.236e-7, 5.071e-7
0.394, -1.233e-6, -7.214e-7, 5.117e-7
0.393, -1.237e-6, -7.230e-7, 5.135e-7
0.392, -1.235e-6, -7.236e-7, 5.111e-7
0.391, -1.243e-6, -7.272e-7, 5.157e-7
0.390, -1.240e-6, -7.248e-7, 5.157e-7
0.389, -1.242e-6, -7.279e-7, 5.141e-7
0.388, -1.242e-6, -7.288e-7, 5.129e-7
0.387, -1.244e-6, -7.285e-7, 5.157e-7
0.386, -1.243e-6, -7.294e-7, 5.132e-7
0.385, -1.250e-6, -7.330e-7, 5.166e-7
0.384, -1.248e-6, -7.327e-7, 5.157e-7
0.383, -1.251e-6, -7.352e-7, 5.163e-7
0.382, -1.251e-6, -7.327e-7, 5.187e-7
0.381, -1.251e-6, -7.340e-7, 5.175e-7
0.380, -1.256e-6, -7.388e-7, 5.175e-7
0.379, -1.257e-6, -7.367e-7, 5.199e-7
0.378, -1.255e-6, -7.373e-7, 5.181e-7
0.377, -1.262e-6, -7.410e-7, 5.215e-7
0.376, -1.262e-6, -7.388e-7, 5.227e-7
0.375, -1.262e-6, -7.416e-7, 5.199e-7
0.374, -1.264e-6, -7.434e-7, 5.205e-7
0.373, -1.266e-6, -7.422e-7, 5.242e-7
0.372, -1.263e-6, -7.428e-7, 5.205e-7
0.371, -1.269e-6, -7.465e-7, 5.224e-7
0.370, -1.271e-6, -7.456e-7, 5.257e-7
0.369, -1.270e-6, -7.468e-7, 5.236e-7
0.368, -1.275e-6, -7.504e-7, 5.245e-7
0.367, -1.275e-6, -7.480e-7, 5.273e-7
0.366, -1.274e-6, -7.504e-7, 5.236e-7
0.365, -1.276e-6, -7.523e-7, 5.239e-7
0.364, -1.280e-6, -7.501e-7, 5.294e-7
0.363, -1.277e-6, -7.520e-7, 5.254e-7
0.362, -1.281e-6, -7.529e-7, 5.279e-7
0.361, -1.285e-6, -7.556e-7, 5.291e-7
0.360, -1.284e-6, -7.556e-7, 5.282e-7
0.359, -1.286e-6, -7.571e-7, 5.291e-7
0.358, -1.287e-6, -7.571e-7, 5.303e-7
0.357, -1.287e-6, -7.575e-7, 5.300e-7
0.356, -1.291e-6, -7.605e-7, 5.303e-7
0.355, -1.291e-6, -7.590e-7, 5.321e-7
0.354, -1.293e-6, -7.620e-7, 5.312e-7
0.353, -1.297e-6, -7.629e-7, 5.337e-7
0.352, -1.295e-6, -7.633e-7, 5.321e-7
0.351, -1.299e-6, -7.639e-7, 5.349e-7
0.350, -1.299e-6, -7.645e-7, 5.346e-7
0.349, -1.301e-6, -7.666e-7, 5.346e-7
0.348, -1.302e-6, -7.672e-7, 5.349e-7
0.347, -1.305e-6, -7.678e-7, 5.376e-7
0.346, -1.305e-6, -7.709e-7, 5.343e-7
0.345, -1.306e-6, -7.706e-7, 5.355e-7
0.344, -1.308e-6, -7.718e-7, 5.364e-7
0.343, -1.310e-6, -7.724e-7, 5.373e-7
0.342, -1.314e-6, -7.736e-7, 5.407e-7
0.341, -1.315e-6, -7.752e-7, 5.401e-7
0.340, -1.316e-6, -7.779e-7, 5.386e-7
0.339, -1.317e-6, -7.764e-7, 5.410e-7
0.338, -1.317e-6, -7.773e-7, 5.401e-7
0.337, -1.320e-6, -7.788e-7, 5.416e-7
0.336, -1.322e-6, -7.788e-7, 5.428e-7
0.335, -1.321e-6, -7.797e-7, 5.413e-7
0.334, -1.323e-6, -7.825e-7, 5.410e-7
0.333, -1.327e-6, -7.825e-7, 5.444e-7
0.332, -1.326e-6, -7.837e-7, 5.422e-7
0.331, -1.330e-6, -7.861e-7, 5.434e-7
0.330, -1.333e-6, -7.861e-7, 5.468e-7
0.329, -1.331e-6, -7.864e-7, 5.450e-7
0.328, -1.336e-6, -7.892e-7, 5.465e-7
0.327, -1.339e-6, -7.898e-7, 5.489e-7
0.326, -1.337e-6, -7.916e-7, 5.456e-7
0.325, -1.342e-6, -7.932e-7, 5.486e-7
0.324, -1.341e-6, -7.916e-7, 5.498e-7
0.323, -1.345e-6, -7.965e-7, 5.486e-7
0.322, -1.349e-6, -7.974e-7, 5.517e-7
0.321, -1.346e-6, -7.953e-7, 5.511e-7
0.320, -1.350e-6, -8.014e-7, 5.486e-7
0.319, -1.349e-6, -7.968e-7, 5.526e-7
0.318, -1.353e-6, -7.996e-7, 5.535e-7
0.317, -1.357e-6, -8.041e-7, 5.529e-7
0.316, -1.357e-6, -8.017e-7, 5.553e-7
0.315, -1.357e-6, -8.017e-7, 5.556e-7
0.314, -1.362e-6, -8.078e-7, 5.541e-7
0.313, -1.364e-6, -8.063e-7, 5.581e-7
0.312, -1.363e-6, -8.057e-7, 5.569e-7
0.311, -1.366e-6, -8.090e-7, 5.569e-7
0.310, -1.369e-6, -8.099e-7, 5.593e-7
0.309, -1.371e-6, -8.115e-7, 5.593e-7
0.308, -1.375e-6, -8.145e-7, 5.608e-7
0.307, -1.375e-6, -8.130e-7, 5.620e-7
0.306, -1.376e-6, -8.151e-7, 5.605e-7
0.305, -1.381e-6, -8.182e-7, 5.627e-7
0.304, -1.380e-6, -8.163e-7, 5.636e-7
0.303, -1.383e-6, -8.197e-7, 5.633e-7
0.302, -1.386e-6, -8.206e-7, 5.657e-7
0.301, -1.389e-6, -8.218e-7, 5.669e-7
0.300, -1.392e-6, -8.249e-7, 5.666e-7
0.299, -1.394e-6, -8.252e-7, 5.691e-7
0.298, -1.396e-6, -8.270e-7, 5.694e-7
0.297, -1.395e-6, -8.270e-7, 5.685e-7
0.296, -1.398e-6, -8.273e-7, 5.709e-7
0.295, -1.401e-6, -8.292e-7, 5.715e-7
0.294, -1.401e-6, -8.301e-7, 5.709e-7
0.293, -1.406e-6, -8.319e-7, 5.743e-7
0.292, -1.406e-6, -8.334e-7, 5.724e-7
0.291, -1.409e-6, -8.362e-7, 5.724e-7
0.290, -1.411e-6, -8.362e-7, 5.749e-7
0.289, -1.414e-6, -8.389e-7, 5.749e-7
0.288, -1.419e-6, -8.405e-7, 5.782e-7
0.287, -1.419e-6, -8.408e-7, 5.779e-7
0.286, -1.420e-6, -8.417e-7, 5.779e-7
0.285, -1.423e-6, -8.444e-7, 5.788e-7
0.284, -1.426e-6, -8.447e-7, 5.813e-7
0.283, -1.426e-6, -8.469e-7, 5.791e-7
0.282, -1.430e-6, -8.487e-7, 5.816e-7
0.281, -1.431e-6, -8.463e-7, 5.852e-7
0.280, -1.434e-6, -8.524e-7, 5.816e-7
0.279, -1.436e-6, -8.533e-7, 5.831e-7
0.278, -1.438e-6, -8.524e-7, 5.852e-7
0.277, -1.439e-6, -8.542e-7, 5.852e-7
0.276, -1.445e-6, -8.572e-7, 5.874e-7
0.275, -1.446e-6, -8.560e-7, 5.898e-7
0.274, -1.447e-6, -8.609e-7, 5.859e-7
0.273, -1.453e-6, -8.609e-7, 5.916e-7
0.272, -1.448e-6, -8.594e-7, 5.886e-7
0.271, -1.452e-6, -8.633e-7, 5.889e-7
0.270, -1.457e-6, -8.640e-7, 5.926e-7
0.269, -1.461e-6, -8.682e-7, 5.926e-7
0.268, -1.460e-6, -8.688e-7, 5.913e-7
0.267, -1.463e-6, -8.685e-7, 5.947e-7
0.266, -1.464e-6, -8.701e-7, 5.935e-7
0.265, -1.470e-6, -8.734e-7, 5.965e-7
0.264, -1.469e-6, -8.698e-7, 5.990e-7
0.263, -1.468e-6, -8.737e-7, 5.947e-7
0.262, -1.477e-6, -8.783e-7, 5.984e-7
0.261, -1.475e-6, -8.752e-7, 5.996e-7
0.260, -1.477e-6, -8.780e-7, 5.990e-7
0.259, -1.483e-6, -8.823e-7, 6.005e-7
0.258, -1.485e-6, -8.823e-7, 6.026e-7
0.257, -1.483e-6, -8.829e-7, 6.005e-7
0.256, -1.488e-6, -8.862e-7, 6.017e-7
0.255, -1.491e-6, -8.875e-7, 6.036e-7
0.254, -1.490e-6, -8.875e-7, 6.026e-7
0.253, -1.497e-6, -8.911e-7, 6.057e-7
0.252, -1.499e-6, -8.908e-7, 6.084e-7
0.251, -1.499e-6, -8.932e-7, 6.057e-7
0.250, -1.507e-6, -8.960e-7, 6.106e-7
0.249, -1.503e-6, -8.942e-7, 6.084e-7
0.248, -1.508e-6, -8.981e-7, 6.100e-7
0.247, -1.510e-6, -8.978e-7, 6.124e-7
0.246, -1.511e-6, -8.994e-7, 6.121e-7
0.245, -1.517e-6, -9.042e-7, 6.130e-7
0.244, -1.517e-6, -9.042e-7, 6.124e-7
0.243, -1.520e-6, -9.052e-7, 6.148e-7
0.242, -1.523e-6, -9.070e-7, 6.164e-7
0.241, -1.523e-6, -9.073e-7, 6.161e-7
0.240, -1.525e-6, -9.094e-7, 6.151e-7
0.239, -1.534e-6, -9.134e-7, 6.206e-7
0.238, -1.530e-6, -9.113e-7, 6.191e-7
0.237, -1.535e-6, -9.152e-7, 6.194e-7
0.236, -1.539e-6, -9.167e-7, 6.219e-7
0.235, -1.541e-6, -9.180e-7, 6.234e-7
0.234, -1.545e-6, -9.216e-7, 6.234e-7
0.233, -1.545e-6, -9.213e-7, 6.240e-7
0.232, -1.547e-6, -9.235e-7, 6.237e-7
0.231, -1.549e-6, -9.265e-7, 6.228e-7
0.230, -1.554e-6, -9.262e-7, 6.277e-7
0.229, -1.556e-6, -9.290e-7, 6.267e-7
0.228, -1.559e-6, -9.305e-7, 6.283e-7
0.227, -1.564e-6, -9.317e-7, 6.322e-7
0.226, -1.561e-6, -9.317e-7, 6.298e-7
0.225, -1.567e-6, -9.366e-7, 6.301e-7
0.224, -1.570e-6, -9.363e-7, 6.335e-7
0.223, -1.572e-6, -9.396e-7, 6.328e-7
0.222, -1.577e-6, -9.415e-7, 6.356e-7
0.221, -1.581e-6, -9.409e-7, 6.402e-7
0.220, -1.581e-6, -9.445e-7, 6.362e-7
0.219, -1.587e-6, -9.479e-7, 6.389e-7
0.218, -1.587e-6, -9.470e-7, 6.405e-7
0.217, -1.590e-6, -9.497e-7, 6.399e-7
0.216, -1.595e-6, -9.521e-7, 6.426e-7
0.215, -1.595e-6, -9.525e-7, 6.423e-7
0.214, -1.601e-6, -9.567e-7, 6.444e-7
0.213, -1.605e-6, -9.573e-7, 6.478e-7
0.212, -1.606e-6, -9.573e-7, 6.487e-7
0.211, -1.609e-6, -9.619e-7, 6.472e-7
0.210, -1.613e-6, -9.622e-7, 6.505e-7
0.209, -1.617e-6, -9.653e-7, 6.521e-7
0.208, -1.619e-6, -9.692e-7, 6.493e-7
0.207, -1.623e-6, -9.683e-7, 6.548e-7
0.206, -1.622e-6, -9.680e-7, 6.542e-7
0.205, -1.628e-6, -9.747e-7, 6.530e-7
0.204, -1.634e-6, -9.753e-7, 6.588e-7
0.203, -1.633e-6, -9.750e-7, 6.579e-7
0.202, -1.638e-6, -9.796e-7, 6.588e-7
0.201, -1.640e-6, -9.787e-7, 6.615e-7
0.200, -1.642e-6, -9.811e-7, 6.609e-7
0.199, -1.647e-6, -9.842e-7, 6.624e-7
0.198, -1.651e-6, -9.857e-7, 6.655e-7
0.197, -1.654e-6, -9.875e-7, 6.664e-7
0.196, -1.659e-6, -9.915e-7, 6.670e-7
0.195, -1.660e-6, -9.906e-7, 6.695e-7
0.194, -1.666e-6, -9.970e-7, 6.695e-7
0.193, -1.668e-6, -9.958e-7, 6.725e-7
0.192, -1.672e-6, -9.970e-7, 6.750e-7
0.191, -1.673e-6, -9.997e-7, 6.734e-7
0.190, -1.678e-6, -1.002e-6, 6.762e-7
0.189, -1.678e-6, -1.002e-6, 6.765e-7
0.188, -1.684e-6, -1.005e-6, 6.789e-7
0.187, -1.690e-6, -1.009e-6, 6.814e-7
0.186, -1.691e-6, -1.009e-6, 6.817e-7
0.185, -1.695e-6, -1.012e-6, 6.835e-7
0.184, -1.700e-6, -1.014e-6, 6.862e-7
0.183, -1.702e-6, -1.017e-6, 6.853e-7
0.182, -1.704e-6, -1.017e-6, 6.866e-7
0.181, -1.709e-6, -1.019e-6, 6.902e-7
0.180, -1.711e-6, -1.023e-6, 6.881e-7
0.179, -1.718e-6, -1.025e-6, 6.924e-7
0.178, -1.720e-6, -1.026e-6, 6.939e-7
0.177, -1.720e-6, -1.028e-6, 6.920e-7
0.176, -1.727e-6, -1.031e-6, 6.960e-7
0.175, -1.730e-6, -1.032e-6, 6.978e-7
0.174, -1.733e-6, -1.035e-6, 6.981e-7
0.173, -1.737e-6, -1.037e-6, 6.997e-7
0.172, -1.741e-6, -1.038e-6, 7.033e-7
0.171, -1.740e-6, -1.041e-6, 6.994e-7
0.170, -1.749e-6, -1.043e-6, 7.055e-7
0.169, -1.752e-6, -1.044e-6, 7.082e-7
0.168, -1.752e-6, -1.046e-6, 7.058e-7
0.167, -1.759e-6, -1.048e-6, 7.110e-7
0.166, -1.760e-6, -1.049e-6, 7.104e-7
0.165, -1.765e-6, -1.052e-6, 7.134e-7
0.164, -1.769e-6, -1.054e-6, 7.149e-7
0.163, -1.772e-6, -1.056e-6, 7.155e-7
0.162, -1.775e-6, -1.059e-6, 7.162e-7
0.161, -1.780e-6, -1.060e-6, 7.192e-7
0.160, -1.780e-6, -1.062e-6, 7.183e-7
0.159, -1.785e-6, -1.064e-6, 7.207e-7
0.158, -1.789e-6, -1.065e-6, 7.247e-7
0.157, -1.788e-6, -1.067e-6, 7.204e-7
0.156, -1.795e-6, -1.068e-6, 7.262e-7
0.155, -1.800e-6, -1.071e-6, 7.293e-7
0.154, -1.800e-6, -1.073e-6, 7.274e-7
0.153, -1.806e-6, -1.075e-6, 7.302e-7
0.152, -1.809e-6, -1.077e-6, 7.320e-7
0.151, -1.810e-6, -1.078e-6, 7.320e-7
0.150, -1.816e-6, -1.081e-6, 7.348e-7
0.149, -1.821e-6, -1.082e-6, 7.387e-7
0.148, -1.821e-6, -1.084e-6, 7.369e-7
0.147, -1.828e-6, -1.088e-6, 7.403e-7
0.146, -1.828e-6, -1.088e-6, 7.400e-7
0.145, -1.831e-6, -1.091e-6, 7.406e-7
0.144, -1.836e-6, -1.092e-6, 7.442e-7
0.143, -1.838e-6, -1.093e-6, 7.451e-7
0.142, -1.843e-6, -1.096e-6, 7.464e-7
0.141, -1.847e-6, -1.098e-6, 7.485e-7
0.140, -1.851e-6, -1.099e-6, 7.516e-7
0.139, -1.853e-6, -1.102e-6, 7.506e-7
0.138, -1.855e-6, -1.101e-6, 7.543e-7
0.137, -1.859e-6, -1.104e-6, 7.552e-7
0.136, -1.863e-6, -1.107e-6, 7.558e-7
0.135, -1.864e-6, -1.107e-6, 7.567e-7
0.134, -1.868e-6, -1.109e-6, 7.589e-7
0.133, -1.872e-6, -1.111e-6, 7.613e-7
0.132, -1.871e-6, -1.110e-6, 7.613e-7
0.131, -1.877e-6, -1.116e-6, 7.607e-7
0.130, -1.882e-6, -1.116e-6, 7.659e-7
0.129, -1.882e-6, -1.117e-6, 7.656e-7
0.128, -1.885e-6, -1.119e-6, 7.659e-7
0.127, -1.891e-6, -1.123e-6, 7.686e-7
0.126, -1.891e-6, -1.120e-6, 7.705e-7
0.125, -1.894e-6, -1.124e-6, 7.708e-7
0.124, -1.899e-6, -1.125e-6, 7.738e-7
0.123, -1.900e-6, -1.126e-6, 7.738e-7
0.122, -1.904e-6, -1.130e-6, 7.741e-7
0.121, -1.906e-6, -1.131e-6, 7.754e-7
0.120, -1.911e-6, -1.132e-6, 7.787e-7
0.119, -1.915e-6, -1.137e-6, 7.781e-7
0.118, -1.920e-6, -1.137e-6, 7.824e-7
0.117, -1.920e-6, -1.138e-6, 7.824e-7
0.116, -1.924e-6, -1.141e-6, 7.836e-7
0.115, -1.927e-6, -1.140e-6, 7.876e-7
0.114, -1.931e-6, -1.143e-6, 7.876e-7
0.113, -1.933e-6, -1.145e-6, 7.885e-7
0.112, -1.937e-6, -1.143e-6, 7.934e-7
0.111, -1.939e-6, -1.147e-6, 7.915e-7
0.110, -1.942e-6, -1.150e-6, 7.927e-7
0.109, -1.945e-6, -1.150e-6, 7.952e-7
0.108, -1.948e-6, -1.154e-6, 7.949e-7
0.107, -1.951e-6, -1.154e-6, 7.976e-7
0.106, -1.954e-6, -1.154e-6, 7.995e-7
0.105, -1.957e-6, -1.157e-6, 8.001e-7
0.104, -1.962e-6, -1.158e-6, 8.037e-7
0.103, -1.964e-6, -1.161e-6, 8.028e-7
0.102, -1.968e-6, -1.161e-6, 8.062e-7
0.101, -1.973e-6, -1.163e-6, 8.104e-7
0.100, -1.973e-6, -1.163e-6, 8.092e-7
0.099, -1.975e-6, -1.168e-6, 8.074e-7
0.098, -1.980e-6, -1.168e-6, 8.126e-7
0.097, -1.981e-6, -1.168e-6, 8.135e-7
0.096, -1.986e-6, -1.171e-6, 8.150e-7
0.095, -1.991e-6, -1.171e-6, 8.193e-7
0.094, -1.991e-6, -1.172e-6, 8.181e-7
0.093, -1.994e-6, -1.174e-6, 8.199e-7
0.092, -1.998e-6, -1.176e-6, 8.214e-7
0.091, -1.998e-6, -1.175e-6, 8.223e-7
0.090, -2.006e-6, -1.181e-6, 8.254e-7
0.089, -2.006e-6, -1.180e-6, 8.260e-7
0.088, -2.006e-6, -1.181e-6, 8.251e-7
0.087, -2.012e-6, -1.184e-6, 8.275e-7
0.086, -2.009e-6, -1.182e-6, 8.278e-7
0.085, -2.016e-6, -1.185e-6, 8.306e-7
0.084, -2.019e-6, -1.187e-6, 8.321e-7
0.083, -2.018e-6, -1.186e-6, 8.315e-7
0.082, -2.021e-6, -1.188e-6, 8.324e-7
0.081, -2.025e-6, -1.189e-6, 8.364e-7
0.080, -2.029e-6, -1.192e-6, 8.376e-7
0.079, -2.032e-6, -1.193e-6, 8.394e-7
0.078, -2.035e-6, -1.195e-6, 8.407e-7
0.077, -2.034e-6, -1.193e-6, 8.410e-7
0.076, -2.038e-6, -1.195e-6, 8.425e-7
0.075, -2.041e-6, -1.197e-6, 8.437e-7
0.074, -2.045e-6, -1.199e-6, 8.452e-7
0.073, -2.045e-6, -1.199e-6, 8.452e-7
0.072, -2.049e-6, -1.199e-6, 8.495e-7
0.071, -2.049e-6, -1.199e-6, 8.501e-7
0.070, -2.051e-6, -1.201e-6, 8.504e-7
0.069, -2.057e-6, -1.202e-6, 8.547e-7
0.068, -2.058e-6, -1.203e-6, 8.550e-7
0.067, -2.060e-6, -1.203e-6, 8.562e-7
0.066, -2.063e-6, -1.205e-6, 8.584e-7
0.065, -2.063e-6, -1.206e-6, 8.574e-7
0.064, -2.065e-6, -1.206e-6, 8.593e-7
0.063, -2.069e-6, -1.207e-6, 8.623e-7
0.062, -2.069e-6, -1.208e-6, 8.602e-7
0.061, -2.073e-6, -1.209e-6, 8.638e-7
0.060, -2.074e-6, -1.209e-6, 8.654e-7
0.059, -2.077e-6, -1.212e-6, 8.651e-7
0.058, -2.076e-6, -1.210e-6, 8.660e-7
0.057, -2.076e-6, -1.209e-6, 8.666e-7
0.056, -2.084e-6, -1.216e-6, 8.672e-7
0.055, -2.085e-6, -1.213e-6, 8.721e-7
0.054, -2.081e-6, -1.212e-6, 8.684e-7
0.053, -2.087e-6, -1.216e-6, 8.715e-7
0.052, -2.087e-6, -1.213e-6, 8.736e-7
0.051, -2.088e-6, -1.215e-6, 8.730e-7
0.050, -2.092e-6, -1.217e-6, 8.745e-7
0.049, -2.091e-6, -1.214e-6, 8.767e-7
0.048, -2.093e-6, -1.217e-6, 8.757e-7
0.047, -2.094e-6, -1.218e-6, 8.757e-7
0.046, -2.096e-6, -1.215e-6, 8.812e-7
0.045, -2.094e-6, -1.216e-6, 8.776e-7
0.044, -2.099e-6, -1.219e-6, 8.806e-7
0.043, -2.101e-6, -1.218e-6, 8.831e-7
0.042, -2.097e-6, -1.216e-6, 8.809e-7
0.041, -2.103e-6, -1.220e-6, 8.837e-7
0.040, -2.102e-6, -1.216e-6, 8.861e-7
0.039, -2.103e-6, -1.221e-6, 8.825e-7
0.038, -2.105e-6, -1.219e-6, 8.861e-7
0.037, -2.107e-6, -1.217e-6, 8.898e-7
0.036, -2.105e-6, -1.218e-6, 8.864e-7
0.035, -2.108e-6, -1.219e-6, 8.886e-7
0.034, -2.111e-6, -1.219e-6, 8.913e-7
0.033, -2.107e-6, -1.219e-6, 8.889e-7
0.032, -2.110e-6, -1.220e-6, 8.907e-7
0.031, -2.110e-6, -1.219e-6, 8.913e-7
0.030, -2.112e-6, -1.218e-6, 8.938e-7
0.029, -2.114e-6, -1.219e-6, 8.941e-7
0.028, -2.113e-6, -1.219e-6, 8.938e-7
0.027, -2.114e-6, -1.219e-6, 8.947e-7
0.026, -2.114e-6, -1.217e-6, 8.974e-7
0.025, -2.115e-6, -1.219e-6, 8.962e-7
0.024, -2.115e-6, -1.218e-6, 8.971e-7
0.023, -2.114e-6, -1.217e-6, 8.968e-7
0.022, -2.115e-6, -1.217e-6, 8.977e-7
0.021, -2.118e-6, -1.219e-6, 8.992e-7
0.020, -2.118e-6, -1.218e-6, 9.002e-7
0.019, -2.117e-6, -1.217e-6, 8.992e-7
0.018, -2.119e-6, -1.217e-6, 9.017e-7
0.017, -2.114e-6, -1.214e-6, 9.002e-7
0.016, -2.114e-6, -1.214e-6, 9.002e-7
0.015, -2.119e-6, -1.216e-6, 9.032e-7
0.014, -2.117e-6, -1.214e-6, 9.035e-7
0.013, -2.119e-6, -1.216e-6, 9.032e-7
0.012, -2.121e-6, -1.215e-6, 9.066e-7
0.011, -2.118e-6, -1.213e-6, 9.053e-7
0.010, -2.118e-6, -1.213e-6, 9.053e-7
0.009, -2.118e-6, -1.213e-6, 9.050e-7
0.008, -2.117e-6, -1.212e-6, 9.050e-7
0.007, -2.117e-6, -1.213e-6, 9.044e-7
0.006, -2.117e-6, -1.209e-6, 9.084e-7
0.005, -2.116e-6, -1.209e-6, 9.066e-7
0.004, -2.120e-6, -1.210e-6, 9.096e-7
0.003, -2.118e-6, -1.208e-6, 9.093e-7
0.002, -2.118e-6, -1.209e-6, 9.093e-7
0.001, -2.118e-6, -1.208e-6, 9.093e-7
0.000, -2.115e-6, -1.206e-6, 9.093e-7
-0.001, -2.116e-6, -1.208e-6, 9.078e-7
-0.002, -2.117e-6, -1.205e-6, 9.115e-7
-0.003, -2.112e-6, -1.203e-6, 9.087e-7
-0.004, -2.115e-6, -1.205e-6, 9.099e-7
-0.005, -2.114e-6, -1.204e-6, 9.099e-7
-0.006, -2.113e-6, -1.202e-6, 9.108e-7
-0.007, -2.113e-6, -1.204e-6, 9.096e-7
-0.008, -2.112e-6, -1.201e-6, 9.118e-7
-0.009, -2.109e-6, -1.198e-6, 9.102e-7
-0.010, -2.111e-6, -1.201e-6, 9.105e-7
-0.011, -2.113e-6, -1.200e-6, 9.127e-7
-0.012, -2.109e-6, -1.197e-6, 9.115e-7
-0.013, -2.110e-6, -1.199e-6, 9.105e-7
-0.014, -2.113e-6, -1.197e-6, 9.160e-7
-0.015, -2.110e-6, -1.195e-6, 9.145e-7
-0.016, -2.109e-6, -1.195e-6, 9.136e-7
-0.017, -2.106e-6, -1.193e-6, 9.133e-7
-0.018, -2.106e-6, -1.191e-6, 9.154e-7
-0.019, -2.103e-6, -1.191e-6, 9.111e-7
-0.020, -2.106e-6, -1.191e-6, 9.148e-7
-0.021, -2.103e-6, -1.188e-6, 9.151e-7
-0.022, -2.105e-6, -1.190e-6, 9.145e-7
-0.023, -2.101e-6, -1.187e-6, 9.139e-7
-0.024, -2.098e-6, -1.185e-6, 9.130e-7
-0.025, -2.098e-6, -1.186e-6, 9.121e-7
-0.026, -2.097e-6, -1.183e-6, 9.139e-7
-0.027, -2.099e-6, -1.184e-6, 9.142e-7
-0.028, -2.099e-6, -1.183e-6, 9.160e-7
-0.029, -2.096e-6, -1.181e-6, 9.142e-7
-0.030, -2.096e-6, -1.182e-6, 9.145e-7
-0.031, -2.094e-6, -1.179e-6, 9.148e-7
-0.032, -2.091e-6, -1.176e-6, 9.148e-7
-0.033, -2.091e-6, -1.177e-6, 9.136e-7
-0.034, -2.090e-6, -1.174e-6, 9.154e-7
-0.035, -2.092e-6, -1.177e-6, 9.151e-7
-0.036, -2.089e-6, -1.175e-6, 9.139e-7
-0.037, -2.090e-6, -1.174e-6, 9.160e-7
-0.038, -2.084e-6, -1.172e-6, 9.124e-7
-0.039, -2.085e-6, -1.171e-6, 9.136e-7
-0.040, -2.083e-6, -1.169e-6, 9.139e-7
-0.041, -2.081e-6, -1.168e-6, 9.133e-7
-0.042, -2.082e-6, -1.168e-6, 9.142e-7
-0.043, -2.080e-6, -1.166e-6, 9.142e-7
-0.044, -2.076e-6, -1.164e-6, 9.124e-7
-0.045, -2.073e-6, -1.162e-6, 9.111e-7
-0.046, -2.073e-6, -1.161e-6, 9.118e-7
-0.047, -2.070e-6, -1.160e-6, 9.099e-7
-0.048, -2.070e-6, -1.159e-6, 9.115e-7
-0.049, -2.066e-6, -1.156e-6, 9.102e-7
-0.050, -2.066e-6, -1.158e-6, 9.078e-7
-0.051, -2.067e-6, -1.155e-6, 9.124e-7
-0.052, -2.063e-6, -1.154e-6, 9.099e-7
-0.053, -2.060e-6, -1.151e-6, 9.084e-7
-0.054, -2.060e-6, -1.149e-6, 9.108e-7
-0.055, -2.058e-6, -1.150e-6, 9.078e-7
-0.056, -2.058e-6, -1.150e-6, 9.084e-7
-0.057, -2.056e-6, -1.146e-6, 9.099e-7
-0.058, -2.052e-6, -1.145e-6, 9.066e-7
-0.059, -2.052e-6, -1.144e-6, 9.075e-7
-0.060, -2.051e-6, -1.143e-6, 9.081e-7
-0.061, -2.047e-6, -1.141e-6, 9.057e-7
-0.062, -2.049e-6, -1.141e-6, 9.081e-7
-0.063, -2.044e-6, -1.136e-6, 9.078e-7
-0.064, -2.039e-6, -1.136e-6, 9.032e-7
-0.065, -2.042e-6, -1.137e-6, 9.041e-7
-0.066, -2.042e-6, -1.135e-6, 9.069e-7
-0.067, -2.034e-6, -1.132e-6, 9.026e-7
-0.068, -2.038e-6, -1.132e-6, 9.057e-7
-0.069, -2.034e-6, -1.129e-6, 9.047e-7
-0.070, -2.029e-6, -1.128e-6, 9.017e-7
-0.071, -2.032e-6, -1.128e-6, 9.038e-7
-0.072, -2.026e-6, -1.126e-6, 9.005e-7
-0.073, -2.024e-6, -1.124e-6, 8.992e-7
-0.074, -2.025e-6, -1.123e-6, 9.014e-7
-0.075, -2.020e-6, -1.122e-6, 8.986e-7
-0.076, -2.015e-6, -1.119e-6, 8.965e-7
-0.077, -2.019e-6, -1.120e-6, 8.989e-7
-0.078, -2.013e-6, -1.115e-6, 8.974e-7
-0.079, -2.013e-6, -1.117e-6, 8.965e-7
-0.080, -2.010e-6, -1.115e-6, 8.953e-7
-0.081, -2.009e-6, -1.113e-6, 8.965e-7
-0.082, -2.005e-6, -1.111e-6, 8.934e-7
-0.083, -2.004e-6, -1.110e-6, 8.941e-7
-0.084, -2.002e-6, -1.109e-6, 8.928e-7
-0.085, -2.001e-6, -1.108e-6, 8.931e-7
-0.086, -1.998e-6, -1.106e-6, 8.922e-7
-0.087, -1.993e-6, -1.104e-6, 8.895e-7
-0.088, -1.997e-6, -1.105e-6, 8.919e-7
-0.089, -1.993e-6, -1.101e-6, 8.916e-7
-0.090, -1.991e-6, -1.102e-6, 8.895e-7
-0.091, -1.989e-6, -1.101e-6, 8.880e-7
-0.092, -1.988e-6, -1.098e-6, 8.907e-7
-0.093, -1.984e-6, -1.097e-6, 8.870e-7
-0.094, -1.983e-6, -1.096e-6, 8.867e-7
-0.095, -1.979e-6, -1.093e-6, 8.858e-7
-0.096, -1.978e-6, -1.093e-6, 8.852e-7
-0.097, -1.978e-6, -1.091e-6, 8.870e-7
-0.098, -1.973e-6, -1.089e-6, 8.846e-7
-0.099, -1.972e-6, -1.089e-6, 8.828e-7
-0.100, -1.972e-6, -1.088e-6, 8.843e-7
-0.101, -1.968e-6, -1.087e-6, 8.809e-7
-0.102, -1.966e-6, -1.086e-6, 8.803e-7
-0.103, -1.967e-6, -1.084e-6, 8.828e-7
-0.104, -1.963e-6, -1.084e-6, 8.788e-7
-0.105, -1.962e-6, -1.082e-6, 8.803e-7
-0.106, -1.959e-6, -1.079e-6, 8.797e-7
-0.107, -1.955e-6, -1.077e-6, 8.779e-7
-0.108, -1.956e-6, -1.079e-6, 8.776e-7
-0.109, -1.954e-6, -1.076e-6, 8.782e-7
-0.110, -1.954e-6, -1.077e-6, 8.770e-7
-0.111, -1.951e-6, -1.074e-6, 8.770e-7
-0.112, -1.949e-6, -1.073e-6, 8.754e-7
-0.113, -1.947e-6, -1.074e-6, 8.730e-7
-0.114, -1.948e-6, -1.073e-6, 8.742e-7
-0.115, -1.944e-6, -1.068e-6, 8.754e-7
-0.116, -1.941e-6, -1.069e-6, 8.715e-7
-0.117, -1.944e-6, -1.069e-6, 8.751e-7
-0.118, -1.937e-6, -1.065e-6, 8.715e-7
-0.119, -1.938e-6, -1.068e-6, 8.693e-7
-0.120, -1.938e-6, -1.066e-6, 8.718e-7
-0.121, -1.932e-6, -1.062e-6, 8.696e-7
-0.122, -1.934e-6, -1.064e-6, 8.703e-7
-0.123, -1.935e-6, -1.064e-6, 8.718e-7
-0.124, -1.927e-6, -1.060e-6, 8.672e-7
-0.125, -1.927e-6, -1.061e-6, 8.663e-7
-0.126, -1.928e-6, -1.061e-6, 8.672e-7
-0.127, -1.923e-6, -1.058e-6, 8.651e-7
-0.128, -1.923e-6, -1.057e-6, 8.657e-7
-0.129, -1.922e-6, -1.057e-6, 8.654e-7
-0.130, -1.919e-6, -1.056e-6, 8.635e-7
-0.131, -1.919e-6, -1.055e-6, 8.648e-7
-0.132, -1.920e-6, -1.055e-6, 8.645e-7
-0.133, -1.915e-6, -1.053e-6, 8.614e-7
-0.134, -1.916e-6, -1.054e-6, 8.623e-7
-0.135, -1.912e-6, -1.051e-6, 8.611e-7
-0.136, -1.912e-6, -1.051e-6, 8.605e-7
-0.137, -1.910e-6, -1.049e-6, 8.608e-7
-0.138, -1.908e-6, -1.048e-6, 8.605e-7
-0.139, -1.908e-6, -1.050e-6, 8.580e-7
-0.140, -1.907e-6, -1.047e-6, 8.599e-7
-0.141, -1.906e-6, -1.048e-6, 8.580e-7
-0.142, -1.903e-6, -1.047e-6, 8.559e-7
-0.143, -1.902e-6, -1.045e-6, 8.574e-7
-0.144, -1.897e-6, -1.043e-6, 8.544e-7
-0.145, -1.899e-6, -1.044e-6, 8.547e-7
-0.146, -1.900e-6, -1.043e-6, 8.565e-7
-0.147, -1.897e-6, -1.042e-6, 8.547e-7
-0.148, -1.896e-6, -1.041e-6, 8.553e-7
-0.149, -1.894e-6, -1.040e-6, 8.538e-7
-0.150, -1.894e-6, -1.040e-6, 8.538e-7
-0.151, -1.893e-6, -1.040e-6, 8.522e-7
-0.152, -1.890e-6, -1.036e-6, 8.535e-7
-0.153, -1.887e-6, -1.035e-6, 8.516e-7
-0.154, -1.889e-6, -1.038e-6, 8.513e-7
-0.155, -1.888e-6, -1.036e-6, 8.519e-7
-0.156, -1.886e-6, -1.036e-6, 8.495e-7
-0.157, -1.886e-6, -1.037e-6, 8.492e-7
-0.158, -1.884e-6, -1.036e-6, 8.480e-7
-0.159, -1.882e-6, -1.036e-6, 8.465e-7
-0.160, -1.885e-6, -1.037e-6, 8.483e-7
-0.161, -1.880e-6, -1.032e-6, 8.477e-7
-0.162, -1.877e-6, -1.032e-6, 8.446e-7
-0.163, -1.878e-6, -1.030e-6, 8.477e-7
-0.164, -1.876e-6, -1.030e-6, 8.452e-7
-0.165, -1.875e-6, -1.031e-6, 8.446e-7
-0.166, -1.875e-6, -1.029e-6, 8.458e-7
-0.167, -1.872e-6, -1.029e-6, 8.428e-7
-0.168, -1.874e-6, -1.029e-6, 8.446e-7
-0.169, -1.872e-6, -1.026e-6, 8.458e-7
-0.170, -1.866e-6, -1.024e-6, 8.419e-7
-0.171, -1.872e-6, -1.029e-6, 8.428e-7
-0.172, -1.867e-6, -1.025e-6, 8.419e-7
-0.173, -1.865e-6, -1.025e-6, 8.397e-7
-0.174, -1.865e-6, -1.024e-6, 8.410e-7
-0.175, -1.865e-6, -1.023e-6, 8.416e-7
-0.176, -1.860e-6, -1.022e-6, 8.382e-7
-0.177, -1.862e-6, -1.023e-6, 8.391e-7
-0.178, -1.861e-6, -1.022e-6, 8.385e-7
-0.179, -1.856e-6, -1.021e-6, 8.358e-7
-0.180, -1.859e-6, -1.022e-6, 8.370e-7
-0.181, -1.855e-6, -1.019e-6, 8.361e-7
-0.182, -1.856e-6, -1.020e-6, 8.364e-7
-0.183, -1.854e-6, -1.018e-6, 8.358e-7
-0.184, -1.852e-6, -1.018e-6, 8.339e-7
-0.185, -1.851e-6, -1.018e-6, 8.324e-7
-0.186, -1.851e-6, -1.017e-6, 8.336e-7
-0.187, -1.853e-6, -1.019e-6, 8.345e-7
-0.188, -1.848e-6, -1.016e-6, 8.318e-7
-0.189, -1.851e-6, -1.016e-6, 8.349e-7
-0.190, -1.847e-6, -1.015e-6, 8.324e-7
-0.191, -1.851e-6, -1.017e-6, 8.336e-7
-0.192, -1.843e-6, -1.012e-6, 8.312e-7
-0.193, -1.846e-6, -1.017e-6, 8.288e-7
-0.194, -1.843e-6, -1.013e-6, 8.309e-7
-0.195, -1.841e-6, -1.011e-6, 8.297e-7
-0.196, -1.841e-6, -1.011e-6, 8.294e-7
-0.197, -1.842e-6, -1.011e-6, 8.309e-7
-0.198, -1.839e-6, -1.010e-6, 8.291e-7
-0.199, -1.838e-6, -1.010e-6, 8.281e-7
-0.200, -1.841e-6, -1.010e-6, 8.303e-7
-0.201, -1.839e-6, -1.013e-6, 8.266e-7
-0.202, -1.833e-6, -1.008e-6, 8.254e-7
-0.203, -1.840e-6, -1.013e-6, 8.278e-7
-0.204, -1.832e-6, -1.007e-6, 8.254e-7
-0.205, -1.836e-6, -1.011e-6, 8.248e-7
-0.206, -1.832e-6, -1.006e-6, 8.257e-7
-0.207, -1.832e-6, -1.008e-6, 8.236e-7
-0.208, -1.831e-6, -1.008e-6, 8.230e-7
-0.209, -1.827e-6, -1.002e-6, 8.251e-7
-0.210, -1.827e-6, -1.003e-6, 8.242e-7
-0.211, -1.829e-6, -1.006e-6, 8.230e-7
-0.212, -1.828e-6, -1.003e-6, 8.245e-7
-0.213, -1.827e-6, -1.006e-6, 8.211e-7
-0.214, -1.828e-6, -1.006e-6, 8.226e-7
-0.215, -1.827e-6, -1.002e-6, 8.248e-7
-0.216, -1.826e-6, -1.003e-6, 8.223e-7
-0.217, -1.827e-6, -1.005e-6, 8.226e-7
-0.218, -1.822e-6, -1.000e-6, 8.217e-7
-0.219, -1.822e-6, -1.003e-6, 8.199e-7
-0.220, -1.823e-6, -1.002e-6, 8.211e-7
-0.221, -1.817e-6, -9.976e-7, 8.190e-7
-0.222, -1.820e-6, -9.985e-7, 8.211e-7
-0.223, -1.821e-6, -1.000e-6, 8.208e-7
-0.224, -1.817e-6, -9.979e-7, 8.193e-7
-0.225, -1.816e-6, -9.973e-7, 8.190e-7
-0.226, -1.825e-6, -1.005e-6, 8.202e-7
-0.227, -1.819e-6, -9.976e-7, 8.214e-7
-0.228, -1.815e-6, -9.964e-7, 8.190e-7
-0.229, -1.816e-6, -9.967e-7, 8.190e-7
-0.230, -1.813e-6, -9.955e-7, 8.172e-7
-0.231, -1.816e-6, -9.976e-7, 8.181e-7
-0.232, -1.813e-6, -9.933e-7, 8.193e-7
-0.233, -1.817e-6, -9.958e-7, 8.208e-7
-0.234, -1.812e-6, -9.958e-7, 8.165e-7
-0.235, -1.813e-6, -9.940e-7, 8.190e-7
-0.236, -1.811e-6, -9.943e-7, 8.165e-7
-0.237, -1.808e-6, -9.921e-7, 8.159e-7
-0.238, -1.813e-6, -9.930e-7, 8.196e-7
-0.239, -1.812e-6, -9.937e-7, 8.187e-7
-0.240, -1.813e-6, -9.955e-7, 8.175e-7
-0.241, -1.811e-6, -9.921e-7, 8.190e-7
-0.242, -1.807e-6, -9.894e-7, 8.181e-7
-0.243, -1.810e-6, -9.927e-7, 8.169e-7
-0.244, -1.812e-6, -9.937e-7, 8.184e-7
-0.245, -1.809e-6, -9.930e-7, 8.159e-7
-0.246, -1.812e-6, -9.933e-7, 8.184e-7
-0.247, -1.807e-6, -9.912e-7, 8.159e-7
-0.248, -1.805e-6, -9.903e-7, 8.147e-7
-0.249, -1.810e-6, -9.927e-7, 8.169e-7
-0.250, -1.806e-6, -9.906e-7, 8.156e-7
-0.251, -1.808e-6, -9.921e-7, 8.159e-7
-0.252, -1.803e-6, -9.869e-7, 8.162e-7
-0.253, -1.805e-6, -9.888e-7, 8.159e-7
-0.254, -1.803e-6, -9.891e-7, 8.138e-7
-0.255, -1.801e-6, -9.851e-7, 8.159e-7
-0.256, -1.801e-6, -9.869e-7, 8.141e-7
-0.257, -1.803e-6, -9.875e-7, 8.150e-7
-0.258, -1.802e-6, -9.863e-7, 8.153e-7
-0.259, -1.800e-6, -9.857e-7, 8.141e-7
-0.260, -1.805e-6, -9.900e-7, 8.150e-7
-0.261, -1.805e-6, -9.894e-7, 8.156e-7
-0.262, -1.797e-6, -9.854e-7, 8.120e-7
-0.263, -1.800e-6, -9.851e-7, 8.150e-7
-0.264, -1.800e-6, -9.848e-7, 8.156e-7
-0.265, -1.798e-6, -9.854e-7, 8.126e-7
-0.266, -1.796e-6, -9.836e-7, 8.129e-7
-0.267, -1.796e-6, -9.830e-7, 8.132e-7
-0.268, -1.795e-6, -9.845e-7, 8.107e-7
-0.269, -1.798e-6, -9.851e-7, 8.132e-7
-0.270, -1.795e-6, -9.830e-7, 8.123e-7
-0.271, -1.796e-6, -9.839e-7, 8.120e-7
-0.272, -1.796e-6, -9.818e-7, 8.138e-7
-0.273, -1.791e-6, -9.824e-7, 8.089e-7
-0.274, -1.789e-6, -9.790e-7, 8.101e-7
-0.275, -1.789e-6, -9.778e-7, 8.117e-7
-0.276, -1.788e-6, -9.769e-7, 8.114e-7
-0.277, -1.792e-6, -9.796e-7, 8.126e-7
-0.278, -1.790e-6, -9.778e-7, 8.123e-7
-0.279, -1.787e-6, -9.781e-7, 8.089e-7
-0.280, -1.790e-6, -9.793e-7, 8.111e-7
-0.281, -1.789e-6, -9.756e-7, 8.129e-7
-0.282, -1.786e-6, -9.766e-7, 8.098e-7
-0.283, -1.785e-6, -9.747e-7, 8.098e-7
-0.284, -1.787e-6, -9.775e-7, 8.092e-7
-0.285, -1.782e-6, -9.756e-7, 8.059e-7
-0.286, -1.789e-6, -9.793e-7, 8.095e-7
-0.287, -1.788e-6, -9.763e-7, 8.117e-7
-0.288, -1.783e-6, -9.747e-7, 8.083e-7
-0.289, -1.783e-6, -9.750e-7, 8.083e-7
-0.290, -1.780e-6, -9.705e-7, 8.092e-7
-0.291, -1.779e-6, -9.732e-7, 8.056e-7
-0.292, -1.780e-6, -9.732e-7, 8.065e-7
-0.293, -1.775e-6, -9.695e-7, 8.059e-7
-0.294, -1.776e-6, -9.708e-7, 8.053e-7
-0.295, -1.777e-6, -9.711e-7, 8.059e-7
-0.296, -1.776e-6, -9.705e-7, 8.059e-7
-0.297, -1.778e-6, -9.717e-7, 8.068e-7
-0.298, -1.778e-6, -9.723e-7, 8.059e-7
-0.299, -1.775e-6, -9.717e-7, 8.031e-7
-0.300, -1.771e-6, -9.671e-7, 8.034e-7
-0.301, -1.769e-6, -9.668e-7, 8.025e-7
-0.302, -1.770e-6, -9.665e-7, 8.031e-7
-0.303, -1.772e-6, -9.674e-7, 8.043e-7
-0.304, -1.769e-6, -9.665e-7, 8.025e-7
-0.305, -1.767e-6, -9.665e-7, 8.010e-7
-0.306, -1.765e-6, -9.637e-7, 8.016e-7
-0.307, -1.766e-6, -9.637e-7, 8.025e-7
-0.308, -1.769e-6, -9.674e-7, 8.019e-7
-0.309, -1.767e-6, -9.641e-7, 8.025e-7
-0.310, -1.767e-6, -9.650e-7, 8.022e-7
-0.311, -1.766e-6, -9.637e-7, 8.022e-7
-0.312, -1.765e-6, -9.647e-7, 8.004e-7
-0.313, -1.762e-6, -9.619e-7, 7.998e-7
-0.314, -1.762e-6, -9.644e-7, 7.979e-7
-0.315, -1.761e-6, -9.616e-7, 7.998e-7
-0.316, -1.760e-6, -9.607e-7, 7.995e-7
-0.317, -1.759e-6, -9.625e-7, 7.964e-7
-0.318, -1.758e-6, -9.604e-7, 7.979e-7
-0.319, -1.760e-6, -9.622e-7, 7.976e-7
-0.320, -1.758e-6, -9.613e-7, 7.970e-7
-0.321, -1.759e-6, -9.601e-7, 7.985e-7
-0.322, -1.756e-6, -9.592e-7, 7.967e-7
-0.323, -1.757e-6, -9.607e-7, 7.967e-7
-0.324, -1.757e-6, -9.589e-7, 7.979e-7
-0.325, -1.755e-6, -9.604e-7, 7.946e-7
-0.326, -1.753e-6, -9.573e-7, 7.955e-7
-0.327, -1.756e-6, -9.610e-7, 7.949e-7
-0.328, -1.751e-6, -9.579e-7, 7.927e-7
-0.329, -1.755e-6, -9.595e-7, 7.955e-7
-0.330, -1.749e-6, -9.549e-7, 7.943e-7
-0.331, -1.750e-6, -9.576e-7, 7.921e-7
-0.332, -1.752e-6, -9.592e-7, 7.924e-7
-0.333, -1.748e-6, -9.540e-7, 7.943e-7
-0.334, -1.747e-6, -9.546e-7, 7.924e-7
-0.335, -1.753e-6, -9.598e-7, 7.934e-7
-0.336, -1.749e-6, -9.561e-7, 7.930e-7
-0.337, -1.748e-6, -9.586e-7, 7.897e-7
-0.338, -1.746e-6, -9.528e-7, 7.927e-7
-0.339, -1.748e-6, -9.570e-7, 7.912e-7
-0.340, -1.748e-6, -9.579e-7, 7.903e-7
-0.341, -1.749e-6, -9.561e-7, 7.924e-7
-0.342, -1.746e-6, -9.558e-7, 7.903e-7
-0.343, -1.742e-6, -9.531e-7, 7.888e-7
-0.344, -1.746e-6, -9.549e-7, 7.915e-7
-0.345, -1.744e-6, -9.549e-7, 7.888e-7
-0.346, -1.744e-6, -9.567e-7, 7.872e-7
-0.347, -1.743e-6, -9.531e-7, 7.903e-7
-0.348, -1.749e-6, -9.604e-7, 7.885e-7
-0.349, -1.742e-6, -9.555e-7, 7.869e-7
-0.350, -1.740e-6, -9.515e-7, 7.882e-7
-0.351, -1.742e-6, -9.558e-7, 7.860e-7
-0.352, -1.742e-6, -9.543e-7, 7.872e-7
-0.353, -1.746e-6, -9.570e-7, 7.885e-7
-0.354, -1.743e-6, -9.567e-7, 7.863e-7
-0.355, -1.740e-6, -9.543e-7, 7.860e-7
-0.356, -1.736e-6, -9.509e-7, 7.851e-7
-0.357, -1.740e-6, -9.546e-7, 7.857e-7
-0.358, -1.737e-6, -9.525e-7, 7.848e-7
-0.359, -1.743e-6, -9.583e-7, 7.851e-7
-0.360, -1.741e-6, -9.567e-7, 7.839e-7
-0.361, -1.739e-6, -9.561e-7, 7.830e-7
-0.362, -1.742e-6, -9.583e-7, 7.836e-7
-0.363, -1.742e-6, -9.567e-7, 7.848e-7
-0.364, -1.743e-6, -9.595e-7, 7.839e-7
-0.365, -1.736e-6, -9.537e-7, 7.821e-7
-0.366, -1.739e-6, -9.564e-7, 7.830e-7
-0.367, -1.736e-6, -9.531e-7, 7.830e-7
-0.368, -1.737e-6, -9.540e-7, 7.827e-7
-0.369, -1.738e-6, -9.561e-7, 7.821e-7
-0.370, -1.738e-6, -9.561e-7, 7.821e-7
-0.371, -1.739e-6, -9.579e-7, 7.808e-7
-0.372, -1.739e-6, -9.579e-7, 7.811e-7
-0.373, -1.735e-6, -9.543e-7, 7.802e-7
-0.374, -1.746e-6, -9.674e-7, 7.784e-7
-0.375, -1.738e-6, -9.589e-7, 7.790e-7
-0.376, -1.738e-6, -9.595e-7, 7.790e-7
-0.377, -1.736e-6, -9.586e-7, 7.775e-7
-0.378, -1.742e-6, -9.613e-7, 7.811e-7
-0.379, -1.735e-6, -9.579e-7, 7.769e-7
-0.380, -1.735e-6, -9.579e-7, 7.772e-7
-0.381, -1.738e-6, -9.598e-7, 7.778e-7
-0.382, -1.734e-6, -9.592e-7, 7.744e-7
-0.383, -1.737e-6, -9.622e-7, 7.750e-7
-0.384, -1.736e-6, -9.598e-7, 7.766e-7
-0.385, -1.733e-6, -9.604e-7, 7.726e-7
-0.386, -1.742e-6, -9.656e-7, 7.763e-7
-0.387, -1.739e-6, -9.622e-7, 7.772e-7
-0.388, -1.732e-6, -9.586e-7, 7.735e-7
-0.389, -1.736e-6, -9.616e-7, 7.747e-7
-0.390, -1.735e-6, -9.607e-7, 7.741e-7
-0.391, -1.732e-6, -9.619e-7, 7.705e-7
-0.392, -1.735e-6, -9.631e-7, 7.714e-7
-0.393, -1.735e-6, -9.607e-7, 7.738e-7
-0.394, -1.731e-6, -9.622e-7, 7.692e-7
-0.395, -1.735e-6, -9.641e-7, 7.711e-7
-0.396, -1.736e-6, -9.628e-7, 7.729e-7
-0.397, -1.733e-6, -9.637e-7, 7.689e-7
-0.398, -1.733e-6, -9.634e-7, 7.692e-7
-0.399, -1.733e-6, -9.625e-7, 7.705e-7
-0.400, -1.733e-6, -9.656e-7, 7.671e-7
