Mar. 20, 2018   15:13:55
Square Wave Voltammetry
File: c:\users\electrochemist\desktop\2018\20032018_unbufarray_unpap\43_g3_ph7,46_1.txt
Data Source:  Experiment
Instrument Model:  CHI1040A
Header: 
Note: 

Init E (V) = 0.7
Final E (V) = -0.4
Incr E (V) = 0.001
Amplitude (V) = 0.1
Frequency (Hz) = 152
Quiet Time (sec) = 2
Sensitivity (A/V) = 1e-6

Difference:

Forward:

Reverse:

Potential/V, Diff(i/A), For(i/A), Rev(i/A)

0.699, -5.789e-7, -1.624e-7, 4.165e-7
0.698, -7.257e-7, -3.458e-7, 3.799e-7
0.697, -7.248e-7, -3.553e-7, 3.695e-7
0.696, -7.238e-7, -3.586e-7, 3.652e-7
0.695, -7.248e-7, -3.611e-7, 3.637e-7
0.694, -7.220e-7, -3.598e-7, 3.622e-7
0.693, -7.208e-7, -3.617e-7, 3.591e-7
0.692, -7.190e-7, -3.626e-7, 3.564e-7
0.691, -7.156e-7, -3.598e-7, 3.558e-7
0.690, -7.153e-7, -3.611e-7, 3.542e-7
0.689, -7.135e-7, -3.614e-7, 3.521e-7
0.688, -7.110e-7, -3.617e-7, 3.494e-7
0.687, -7.095e-7, -3.623e-7, 3.472e-7
0.686, -7.089e-7, -3.607e-7, 3.481e-7
0.685, -7.061e-7, -3.601e-7, 3.460e-7
0.684, -7.074e-7, -3.620e-7, 3.454e-7
0.683, -7.046e-7, -3.604e-7, 3.442e-7
0.682, -7.013e-7, -3.611e-7, 3.402e-7
0.681, -7.074e-7, -3.635e-7, 3.439e-7
0.680, -7.028e-7, -3.607e-7, 3.420e-7
0.679, -7.006e-7, -3.617e-7, 3.390e-7
0.678, -7.022e-7, -3.617e-7, 3.405e-7
0.677, -6.967e-7, -3.592e-7, 3.375e-7
0.676, -6.979e-7, -3.620e-7, 3.359e-7
0.675, -7.003e-7, -3.629e-7, 3.375e-7
0.674, -6.955e-7, -3.595e-7, 3.359e-7
0.673, -6.936e-7, -3.620e-7, 3.317e-7
0.672, -6.979e-7, -3.623e-7, 3.356e-7
0.671, -6.952e-7, -3.607e-7, 3.344e-7
0.670, -6.906e-7, -3.607e-7, 3.298e-7
0.669, -6.933e-7, -3.620e-7, 3.314e-7
0.668, -6.924e-7, -3.617e-7, 3.307e-7
0.667, -6.918e-7, -3.623e-7, 3.295e-7
0.666, -6.906e-7, -3.614e-7, 3.292e-7
0.665, -6.890e-7, -3.611e-7, 3.280e-7
0.664, -6.890e-7, -3.617e-7, 3.274e-7
0.663, -6.881e-7, -3.601e-7, 3.280e-7
0.662, -6.863e-7, -3.614e-7, 3.249e-7
0.661, -6.872e-7, -3.629e-7, 3.243e-7
0.660, -6.866e-7, -3.611e-7, 3.256e-7
0.659, -6.836e-7, -3.620e-7, 3.216e-7
0.658, -6.845e-7, -3.632e-7, 3.213e-7
0.657, -6.839e-7, -3.623e-7, 3.216e-7
0.656, -6.851e-7, -3.632e-7, 3.219e-7
0.655, -6.845e-7, -3.620e-7, 3.225e-7
0.654, -6.808e-7, -3.598e-7, 3.210e-7
0.653, -6.823e-7, -3.623e-7, 3.201e-7
0.652, -6.787e-7, -3.595e-7, 3.191e-7
0.651, -6.829e-7, -3.626e-7, 3.204e-7
0.650, -6.814e-7, -3.626e-7, 3.188e-7
0.649, -6.814e-7, -3.617e-7, 3.198e-7
0.648, -6.790e-7, -3.617e-7, 3.173e-7
0.647, -6.793e-7, -3.623e-7, 3.170e-7
0.646, -6.796e-7, -3.614e-7, 3.182e-7
0.645, -6.778e-7, -3.611e-7, 3.167e-7
0.644, -6.793e-7, -3.632e-7, 3.161e-7
0.643, -6.781e-7, -3.617e-7, 3.164e-7
0.642, -6.768e-7, -3.629e-7, 3.140e-7
0.641, -6.781e-7, -3.635e-7, 3.146e-7
0.640, -6.775e-7, -3.626e-7, 3.149e-7
0.639, -6.775e-7, -3.644e-7, 3.130e-7
0.638, -6.765e-7, -3.629e-7, 3.137e-7
0.637, -6.762e-7, -3.629e-7, 3.133e-7
0.636, -6.762e-7, -3.653e-7, 3.109e-7
0.635, -6.762e-7, -3.626e-7, 3.137e-7
0.634, -6.762e-7, -3.635e-7, 3.127e-7
0.633, -6.753e-7, -3.644e-7, 3.109e-7
0.632, -6.778e-7, -3.638e-7, 3.140e-7
0.631, -6.753e-7, -3.638e-7, 3.115e-7
0.630, -6.781e-7, -3.672e-7, 3.109e-7
0.629, -6.771e-7, -3.641e-7, 3.130e-7
0.628, -6.732e-7, -3.644e-7, 3.088e-7
0.627, -6.753e-7, -3.656e-7, 3.097e-7
0.626, -6.784e-7, -3.668e-7, 3.115e-7
0.625, -6.741e-7, -3.644e-7, 3.097e-7
0.624, -6.753e-7, -3.665e-7, 3.088e-7
0.623, -6.756e-7, -3.665e-7, 3.091e-7
0.622, -6.747e-7, -3.659e-7, 3.088e-7
0.621, -6.756e-7, -3.662e-7, 3.094e-7
0.620, -6.747e-7, -3.650e-7, 3.097e-7
0.619, -6.762e-7, -3.687e-7, 3.076e-7
0.618, -6.771e-7, -3.687e-7, 3.085e-7
0.617, -6.750e-7, -3.672e-7, 3.079e-7
0.616, -6.768e-7, -3.681e-7, 3.088e-7
0.615, -6.753e-7, -3.675e-7, 3.079e-7
0.614, -6.747e-7, -3.665e-7, 3.082e-7
0.613, -6.775e-7, -3.699e-7, 3.076e-7
0.612, -6.784e-7, -3.699e-7, 3.085e-7
0.611, -6.765e-7, -3.693e-7, 3.072e-7
0.610, -6.787e-7, -3.705e-7, 3.082e-7
0.609, -6.799e-7, -3.702e-7, 3.097e-7
0.608, -6.775e-7, -3.720e-7, 3.054e-7
0.607, -6.784e-7, -3.723e-7, 3.060e-7
0.606, -6.759e-7, -3.693e-7, 3.066e-7
0.605, -6.768e-7, -3.702e-7, 3.066e-7
0.604, -6.775e-7, -3.720e-7, 3.054e-7
0.603, -6.765e-7, -3.693e-7, 3.072e-7
0.602, -6.771e-7, -3.714e-7, 3.057e-7
0.601, -6.787e-7, -3.730e-7, 3.057e-7
0.600, -6.808e-7, -3.726e-7, 3.082e-7
0.599, -6.781e-7, -3.736e-7, 3.045e-7
0.598, -6.799e-7, -3.730e-7, 3.069e-7
0.597, -6.762e-7, -3.717e-7, 3.045e-7
0.596, -6.775e-7, -3.736e-7, 3.039e-7
0.595, -6.790e-7, -3.723e-7, 3.066e-7
0.594, -6.781e-7, -3.733e-7, 3.048e-7
0.593, -6.781e-7, -3.742e-7, 3.039e-7
0.592, -6.784e-7, -3.723e-7, 3.060e-7
0.591, -6.765e-7, -3.736e-7, 3.030e-7
0.590, -6.790e-7, -3.751e-7, 3.039e-7
0.589, -6.781e-7, -3.736e-7, 3.045e-7
0.588, -6.778e-7, -3.745e-7, 3.033e-7
0.587, -6.799e-7, -3.766e-7, 3.033e-7
0.586, -6.787e-7, -3.730e-7, 3.057e-7
0.585, -6.778e-7, -3.760e-7, 3.018e-7
0.584, -6.823e-7, -3.788e-7, 3.036e-7
0.583, -6.808e-7, -3.763e-7, 3.045e-7
0.582, -6.771e-7, -3.748e-7, 3.024e-7
0.581, -6.802e-7, -3.772e-7, 3.030e-7
0.580, -6.793e-7, -3.757e-7, 3.036e-7
0.579, -6.790e-7, -3.769e-7, 3.021e-7
0.578, -6.802e-7, -3.772e-7, 3.030e-7
0.577, -6.802e-7, -3.772e-7, 3.030e-7
0.576, -6.842e-7, -3.803e-7, 3.039e-7
0.575, -6.796e-7, -3.769e-7, 3.027e-7
0.574, -6.793e-7, -3.778e-7, 3.014e-7
0.573, -6.799e-7, -3.791e-7, 3.008e-7
0.572, -6.817e-7, -3.784e-7, 3.033e-7
0.571, -6.802e-7, -3.791e-7, 3.011e-7
0.570, -6.820e-7, -3.784e-7, 3.036e-7
0.569, -6.802e-7, -3.791e-7, 3.011e-7
0.568, -6.787e-7, -3.800e-7, 2.987e-7
0.567, -6.814e-7, -3.800e-7, 3.014e-7
0.566, -6.805e-7, -3.794e-7, 3.011e-7
0.565, -6.808e-7, -3.815e-7, 2.993e-7
0.564, -6.820e-7, -3.815e-7, 3.005e-7
0.563, -6.820e-7, -3.800e-7, 3.021e-7
0.562, -6.845e-7, -3.830e-7, 3.014e-7
0.561, -6.820e-7, -3.803e-7, 3.018e-7
0.560, -6.842e-7, -3.812e-7, 3.030e-7
0.559, -6.839e-7, -3.833e-7, 3.005e-7
0.558, -6.839e-7, -3.818e-7, 3.021e-7
0.557, -6.820e-7, -3.821e-7, 2.999e-7
0.556, -6.836e-7, -3.839e-7, 2.996e-7
0.555, -6.848e-7, -3.827e-7, 3.021e-7
0.554, -6.820e-7, -3.818e-7, 3.002e-7
0.553, -6.851e-7, -3.836e-7, 3.014e-7
0.552, -6.842e-7, -3.830e-7, 3.011e-7
0.551, -6.845e-7, -3.845e-7, 2.999e-7
0.550, -6.869e-7, -3.858e-7, 3.011e-7
0.549, -6.845e-7, -3.830e-7, 3.014e-7
0.548, -6.857e-7, -3.855e-7, 3.002e-7
0.547, -6.884e-7, -3.855e-7, 3.030e-7
0.546, -6.857e-7, -3.842e-7, 3.014e-7
0.545, -6.869e-7, -3.876e-7, 2.993e-7
0.544, -6.890e-7, -3.876e-7, 3.014e-7
0.543, -6.869e-7, -3.855e-7, 3.014e-7
0.542, -6.875e-7, -3.882e-7, 2.993e-7
0.541, -6.924e-7, -3.897e-7, 3.027e-7
0.540, -6.884e-7, -3.873e-7, 3.011e-7
0.539, -6.894e-7, -3.894e-7, 2.999e-7
0.538, -6.894e-7, -3.885e-7, 3.008e-7
0.537, -6.878e-7, -3.885e-7, 2.993e-7
0.536, -6.912e-7, -3.910e-7, 3.002e-7
0.535, -6.939e-7, -3.900e-7, 3.039e-7
0.534, -6.930e-7, -3.907e-7, 3.024e-7
0.533, -6.936e-7, -3.928e-7, 3.008e-7
0.532, -6.945e-7, -3.916e-7, 3.030e-7
0.531, -6.952e-7, -3.919e-7, 3.033e-7
0.530, -6.970e-7, -3.940e-7, 3.030e-7
0.529, -6.945e-7, -3.925e-7, 3.021e-7
0.528, -6.964e-7, -3.934e-7, 3.030e-7
0.527, -6.970e-7, -3.934e-7, 3.036e-7
0.526, -6.942e-7, -3.937e-7, 3.005e-7
0.525, -7.006e-7, -3.968e-7, 3.039e-7
0.524, -6.979e-7, -3.940e-7, 3.039e-7
0.523, -6.988e-7, -3.965e-7, 3.024e-7
0.522, -6.982e-7, -3.961e-7, 3.021e-7
0.521, -7.009e-7, -3.968e-7, 3.042e-7
0.520, -7.003e-7, -3.971e-7, 3.033e-7
0.519, -7.025e-7, -3.986e-7, 3.039e-7
0.518, -7.025e-7, -3.971e-7, 3.054e-7
0.517, -6.997e-7, -3.986e-7, 3.011e-7
0.516, -7.028e-7, -3.986e-7, 3.042e-7
0.515, -7.043e-7, -3.989e-7, 3.054e-7
0.514, -7.037e-7, -4.001e-7, 3.036e-7
0.513, -7.055e-7, -4.010e-7, 3.045e-7
0.512, -7.061e-7, -4.007e-7, 3.054e-7
0.511, -7.043e-7, -4.010e-7, 3.033e-7
0.510, -7.083e-7, -4.038e-7, 3.045e-7
0.509, -7.052e-7, -4.013e-7, 3.039e-7
0.508, -7.061e-7, -4.026e-7, 3.036e-7
0.507, -7.098e-7, -4.026e-7, 3.072e-7
0.506, -7.071e-7, -4.026e-7, 3.045e-7
0.505, -7.086e-7, -4.038e-7, 3.048e-7
0.504, -7.083e-7, -4.035e-7, 3.048e-7
0.503, -7.077e-7, -4.047e-7, 3.030e-7
0.502, -7.098e-7, -4.053e-7, 3.045e-7
0.501, -7.101e-7, -4.044e-7, 3.057e-7
0.500, -7.095e-7, -4.056e-7, 3.039e-7
0.499, -7.116e-7, -4.068e-7, 3.048e-7
0.498, -7.098e-7, -4.050e-7, 3.048e-7
0.497, -7.116e-7, -4.077e-7, 3.039e-7
0.496, -7.144e-7, -4.084e-7, 3.060e-7
0.495, -7.128e-7, -4.059e-7, 3.069e-7
0.494, -7.138e-7, -4.090e-7, 3.048e-7
0.493, -7.135e-7, -4.080e-7, 3.054e-7
0.492, -7.128e-7, -4.062e-7, 3.066e-7
0.491, -7.138e-7, -4.087e-7, 3.051e-7
0.490, -7.177e-7, -4.117e-7, 3.060e-7
0.489, -7.162e-7, -4.093e-7, 3.069e-7
0.488, -7.162e-7, -4.111e-7, 3.051e-7
0.487, -7.171e-7, -4.108e-7, 3.063e-7
0.486, -7.180e-7, -4.114e-7, 3.066e-7
0.485, -7.186e-7, -4.123e-7, 3.063e-7
0.484, -7.180e-7, -4.111e-7, 3.069e-7
0.483, -7.202e-7, -4.129e-7, 3.072e-7
0.482, -7.186e-7, -4.129e-7, 3.057e-7
0.481, -7.190e-7, -4.117e-7, 3.072e-7
0.480, -7.199e-7, -4.145e-7, 3.054e-7
0.479, -7.211e-7, -4.135e-7, 3.075e-7
0.478, -7.211e-7, -4.141e-7, 3.069e-7
0.477, -7.223e-7, -4.160e-7, 3.063e-7
0.476, -7.208e-7, -4.151e-7, 3.057e-7
0.475, -7.199e-7, -4.160e-7, 3.039e-7
0.474, -7.217e-7, -4.163e-7, 3.054e-7
0.473, -7.229e-7, -4.163e-7, 3.066e-7
0.472, -7.238e-7, -4.169e-7, 3.069e-7
0.471, -7.226e-7, -4.163e-7, 3.063e-7
0.470, -7.244e-7, -4.163e-7, 3.082e-7
0.469, -7.254e-7, -4.175e-7, 3.079e-7
0.468, -7.281e-7, -4.212e-7, 3.069e-7
0.467, -7.269e-7, -4.193e-7, 3.075e-7
0.466, -7.260e-7, -4.187e-7, 3.072e-7
0.465, -7.296e-7, -4.218e-7, 3.079e-7
0.464, -7.296e-7, -4.209e-7, 3.088e-7
0.463, -7.278e-7, -4.215e-7, 3.063e-7
0.462, -7.296e-7, -4.224e-7, 3.072e-7
0.461, -7.321e-7, -4.230e-7, 3.091e-7
0.460, -7.324e-7, -4.242e-7, 3.082e-7
0.459, -7.333e-7, -4.227e-7, 3.106e-7
0.458, -7.309e-7, -4.224e-7, 3.085e-7
0.457, -7.327e-7, -4.248e-7, 3.079e-7
0.456, -7.367e-7, -4.251e-7, 3.115e-7
0.455, -7.330e-7, -4.242e-7, 3.088e-7
0.454, -7.360e-7, -4.273e-7, 3.088e-7
0.453, -7.373e-7, -4.267e-7, 3.106e-7
0.452, -7.379e-7, -4.273e-7, 3.106e-7
0.451, -7.391e-7, -4.288e-7, 3.103e-7
0.450, -7.388e-7, -4.279e-7, 3.109e-7
0.449, -7.388e-7, -4.279e-7, 3.109e-7
0.448, -7.412e-7, -4.309e-7, 3.103e-7
0.447, -7.418e-7, -4.294e-7, 3.124e-7
0.446, -7.415e-7, -4.300e-7, 3.115e-7
0.445, -7.412e-7, -4.309e-7, 3.103e-7
0.444, -7.446e-7, -4.322e-7, 3.124e-7
0.443, -7.446e-7, -4.334e-7, 3.112e-7
0.442, -7.452e-7, -4.331e-7, 3.121e-7
0.441, -7.464e-7, -4.337e-7, 3.127e-7
0.440, -7.476e-7, -4.346e-7, 3.130e-7
0.439, -7.482e-7, -4.346e-7, 3.137e-7
0.438, -7.501e-7, -4.358e-7, 3.143e-7
0.437, -7.495e-7, -4.361e-7, 3.133e-7
0.436, -7.513e-7, -4.367e-7, 3.146e-7
0.435, -7.504e-7, -4.364e-7, 3.140e-7
0.434, -7.547e-7, -4.392e-7, 3.155e-7
0.433, -7.522e-7, -4.373e-7, 3.149e-7
0.432, -7.540e-7, -4.392e-7, 3.149e-7
0.431, -7.565e-7, -4.398e-7, 3.167e-7
0.430, -7.562e-7, -4.404e-7, 3.158e-7
0.429, -7.571e-7, -4.422e-7, 3.149e-7
0.428, -7.595e-7, -4.428e-7, 3.167e-7
0.427, -7.583e-7, -4.410e-7, 3.173e-7
0.426, -7.586e-7, -4.434e-7, 3.152e-7
0.425, -7.605e-7, -4.441e-7, 3.164e-7
0.424, -7.611e-7, -4.428e-7, 3.182e-7
0.423, -7.617e-7, -4.444e-7, 3.173e-7
0.422, -7.638e-7, -4.462e-7, 3.176e-7
0.421, -7.623e-7, -4.441e-7, 3.182e-7
0.420, -7.644e-7, -4.477e-7, 3.167e-7
0.419, -7.666e-7, -4.474e-7, 3.191e-7
0.418, -7.653e-7, -4.456e-7, 3.198e-7
0.417, -7.656e-7, -4.486e-7, 3.170e-7
0.416, -7.675e-7, -4.483e-7, 3.191e-7
0.415, -7.659e-7, -4.480e-7, 3.179e-7
0.414, -7.717e-7, -4.511e-7, 3.207e-7
0.413, -7.702e-7, -4.505e-7, 3.198e-7
0.412, -7.684e-7, -4.511e-7, 3.173e-7
0.411, -7.739e-7, -4.529e-7, 3.210e-7
0.410, -7.717e-7, -4.514e-7, 3.204e-7
0.409, -7.727e-7, -4.532e-7, 3.195e-7
0.408, -7.760e-7, -4.544e-7, 3.216e-7
0.407, -7.760e-7, -4.544e-7, 3.216e-7
0.406, -7.730e-7, -4.538e-7, 3.191e-7
0.405, -7.782e-7, -4.572e-7, 3.210e-7
0.404, -7.782e-7, -4.550e-7, 3.231e-7
0.403, -7.760e-7, -4.560e-7, 3.201e-7
0.402, -7.782e-7, -4.575e-7, 3.207e-7
0.401, -7.797e-7, -4.566e-7, 3.231e-7
0.400, -7.785e-7, -4.563e-7, 3.222e-7
0.399, -7.803e-7, -4.581e-7, 3.222e-7
0.398, -7.812e-7, -4.587e-7, 3.225e-7
0.397, -7.824e-7, -4.593e-7, 3.231e-7
0.396, -7.861e-7, -4.611e-7, 3.249e-7
0.395, -7.827e-7, -4.596e-7, 3.231e-7
0.394, -7.846e-7, -4.608e-7, 3.237e-7
0.393, -7.861e-7, -4.608e-7, 3.252e-7
0.392, -7.861e-7, -4.633e-7, 3.228e-7
0.391, -7.864e-7, -4.630e-7, 3.234e-7
0.390, -7.870e-7, -4.621e-7, 3.249e-7
0.389, -7.897e-7, -4.660e-7, 3.237e-7
0.388, -7.894e-7, -4.645e-7, 3.249e-7
0.387, -7.901e-7, -4.651e-7, 3.249e-7
0.386, -7.916e-7, -4.660e-7, 3.256e-7
0.385, -7.937e-7, -4.666e-7, 3.271e-7
0.384, -7.913e-7, -4.660e-7, 3.252e-7
0.383, -7.937e-7, -4.694e-7, 3.243e-7
0.382, -7.934e-7, -4.682e-7, 3.252e-7
0.381, -7.943e-7, -4.685e-7, 3.259e-7
0.380, -7.965e-7, -4.700e-7, 3.265e-7
0.379, -7.968e-7, -4.694e-7, 3.274e-7
0.378, -7.962e-7, -4.712e-7, 3.249e-7
0.377, -8.004e-7, -4.727e-7, 3.277e-7
0.376, -7.992e-7, -4.718e-7, 3.274e-7
0.375, -7.998e-7, -4.730e-7, 3.268e-7
0.374, -8.026e-7, -4.743e-7, 3.283e-7
0.373, -8.020e-7, -4.724e-7, 3.295e-7
0.372, -8.038e-7, -4.749e-7, 3.289e-7
0.371, -8.059e-7, -4.758e-7, 3.301e-7
0.370, -8.056e-7, -4.749e-7, 3.307e-7
0.369, -8.074e-7, -4.779e-7, 3.295e-7
0.368, -8.105e-7, -4.785e-7, 3.320e-7
0.367, -8.096e-7, -4.782e-7, 3.314e-7
0.366, -8.084e-7, -4.788e-7, 3.295e-7
0.365, -8.136e-7, -4.807e-7, 3.329e-7
0.364, -8.102e-7, -4.782e-7, 3.320e-7
0.363, -8.142e-7, -4.825e-7, 3.317e-7
0.362, -8.154e-7, -4.816e-7, 3.338e-7
0.361, -8.136e-7, -4.813e-7, 3.323e-7
0.360, -8.154e-7, -4.843e-7, 3.310e-7
0.359, -8.197e-7, -4.840e-7, 3.356e-7
0.358, -8.178e-7, -4.849e-7, 3.329e-7
0.357, -8.218e-7, -4.871e-7, 3.347e-7
0.356, -8.221e-7, -4.868e-7, 3.353e-7
0.355, -8.224e-7, -4.868e-7, 3.356e-7
0.354, -8.255e-7, -4.895e-7, 3.359e-7
0.353, -8.255e-7, -4.883e-7, 3.371e-7
0.352, -8.264e-7, -4.889e-7, 3.375e-7
0.351, -8.264e-7, -4.895e-7, 3.368e-7
0.350, -8.270e-7, -4.892e-7, 3.378e-7
0.349, -8.294e-7, -4.926e-7, 3.368e-7
0.348, -8.328e-7, -4.935e-7, 3.393e-7
0.347, -8.313e-7, -4.929e-7, 3.384e-7
0.346, -8.346e-7, -4.950e-7, 3.396e-7
0.345, -8.361e-7, -4.953e-7, 3.408e-7
0.344, -8.343e-7, -4.950e-7, 3.393e-7
0.343, -8.386e-7, -4.975e-7, 3.411e-7
0.342, -8.380e-7, -4.965e-7, 3.414e-7
0.341, -8.401e-7, -4.990e-7, 3.411e-7
0.340, -8.392e-7, -4.981e-7, 3.411e-7
0.339, -8.425e-7, -4.993e-7, 3.433e-7
0.338, -8.432e-7, -5.014e-7, 3.417e-7
0.337, -8.444e-7, -5.017e-7, 3.426e-7
0.336, -8.468e-7, -5.023e-7, 3.445e-7
0.335, -8.453e-7, -5.030e-7, 3.423e-7
0.334, -8.474e-7, -5.042e-7, 3.433e-7
0.333, -8.490e-7, -5.039e-7, 3.451e-7
0.332, -8.499e-7, -5.060e-7, 3.439e-7
0.331, -8.523e-7, -5.054e-7, 3.469e-7
0.330, -8.523e-7, -5.060e-7, 3.463e-7
0.329, -8.551e-7, -5.091e-7, 3.460e-7
0.328, -8.541e-7, -5.081e-7, 3.460e-7
0.327, -8.532e-7, -5.081e-7, 3.451e-7
0.326, -8.575e-7, -5.109e-7, 3.466e-7
0.325, -8.596e-7, -5.103e-7, 3.494e-7
0.324, -8.587e-7, -5.121e-7, 3.466e-7
0.323, -8.605e-7, -5.136e-7, 3.469e-7
0.322, -8.630e-7, -5.127e-7, 3.503e-7
0.321, -8.593e-7, -5.130e-7, 3.463e-7
0.320, -8.639e-7, -5.167e-7, 3.472e-7
0.319, -8.639e-7, -5.145e-7, 3.494e-7
0.318, -8.639e-7, -5.149e-7, 3.490e-7
0.317, -8.703e-7, -5.188e-7, 3.515e-7
0.316, -8.700e-7, -5.170e-7, 3.530e-7
0.315, -8.694e-7, -5.188e-7, 3.506e-7
0.314, -8.731e-7, -5.216e-7, 3.515e-7
0.313, -8.731e-7, -5.194e-7, 3.536e-7
0.312, -8.737e-7, -5.219e-7, 3.518e-7
0.311, -8.761e-7, -5.222e-7, 3.539e-7
0.310, -8.758e-7, -5.222e-7, 3.536e-7
0.309, -8.789e-7, -5.252e-7, 3.536e-7
0.308, -8.782e-7, -5.240e-7, 3.542e-7
0.307, -8.813e-7, -5.271e-7, 3.542e-7
0.306, -8.834e-7, -5.277e-7, 3.558e-7
0.305, -8.843e-7, -5.274e-7, 3.570e-7
0.304, -8.837e-7, -5.286e-7, 3.552e-7
0.303, -8.837e-7, -5.274e-7, 3.564e-7
0.302, -8.853e-7, -5.277e-7, 3.576e-7
0.301, -8.868e-7, -5.304e-7, 3.564e-7
0.300, -8.889e-7, -5.326e-7, 3.564e-7
0.299, -8.880e-7, -5.301e-7, 3.579e-7
0.298, -8.905e-7, -5.322e-7, 3.582e-7
0.297, -8.938e-7, -5.332e-7, 3.606e-7
0.296, -8.929e-7, -5.347e-7, 3.582e-7
0.295, -8.923e-7, -5.344e-7, 3.579e-7
0.294, -8.981e-7, -5.362e-7, 3.619e-7
0.293, -8.947e-7, -5.353e-7, 3.594e-7
0.292, -8.978e-7, -5.380e-7, 3.597e-7
0.291, -9.008e-7, -5.393e-7, 3.616e-7
0.290, -9.008e-7, -5.393e-7, 3.616e-7
0.289, -9.048e-7, -5.420e-7, 3.628e-7
0.288, -9.048e-7, -5.414e-7, 3.634e-7
0.287, -9.027e-7, -5.414e-7, 3.613e-7
0.286, -9.088e-7, -5.451e-7, 3.637e-7
0.285, -9.091e-7, -5.435e-7, 3.655e-7
0.284, -9.097e-7, -5.454e-7, 3.643e-7
0.283, -9.124e-7, -5.460e-7, 3.664e-7
0.282, -9.127e-7, -5.466e-7, 3.661e-7
0.281, -9.136e-7, -5.490e-7, 3.646e-7
0.280, -9.167e-7, -5.496e-7, 3.671e-7
0.279, -9.179e-7, -5.493e-7, 3.686e-7
0.278, -9.191e-7, -5.521e-7, 3.671e-7
0.277, -9.219e-7, -5.524e-7, 3.695e-7
0.276, -9.228e-7, -5.530e-7, 3.698e-7
0.275, -9.234e-7, -5.551e-7, 3.683e-7
0.274, -9.255e-7, -5.542e-7, 3.713e-7
0.273, -9.255e-7, -5.554e-7, 3.701e-7
0.272, -9.326e-7, -5.591e-7, 3.735e-7
0.271, -9.316e-7, -5.582e-7, 3.735e-7
0.270, -9.323e-7, -5.600e-7, 3.722e-7
0.269, -9.332e-7, -5.612e-7, 3.719e-7
0.268, -9.359e-7, -5.615e-7, 3.744e-7
0.267, -9.374e-7, -5.634e-7, 3.741e-7
0.266, -9.411e-7, -5.649e-7, 3.762e-7
0.265, -9.393e-7, -5.634e-7, 3.759e-7
0.264, -9.399e-7, -5.649e-7, 3.750e-7
0.263, -9.466e-7, -5.676e-7, 3.790e-7
0.262, -9.454e-7, -5.680e-7, 3.774e-7
0.261, -9.475e-7, -5.701e-7, 3.774e-7
0.260, -9.490e-7, -5.698e-7, 3.793e-7
0.259, -9.493e-7, -5.707e-7, 3.786e-7
0.258, -9.533e-7, -5.728e-7, 3.805e-7
0.257, -9.548e-7, -5.731e-7, 3.817e-7
0.256, -9.561e-7, -5.741e-7, 3.820e-7
0.255, -9.588e-7, -5.768e-7, 3.820e-7
0.254, -9.612e-7, -5.774e-7, 3.838e-7
0.253, -9.628e-7, -5.789e-7, 3.838e-7
0.252, -9.643e-7, -5.805e-7, 3.838e-7
0.251, -9.677e-7, -5.817e-7, 3.860e-7
0.250, -9.701e-7, -5.826e-7, 3.875e-7
0.249, -9.695e-7, -5.838e-7, 3.857e-7
0.248, -9.731e-7, -5.850e-7, 3.881e-7
0.247, -9.744e-7, -5.857e-7, 3.887e-7
0.246, -9.780e-7, -5.884e-7, 3.896e-7
0.245, -9.765e-7, -5.866e-7, 3.899e-7
0.244, -9.765e-7, -5.881e-7, 3.884e-7
0.243, -9.838e-7, -5.908e-7, 3.930e-7
0.242, -9.832e-7, -5.908e-7, 3.924e-7
0.241, -9.851e-7, -5.936e-7, 3.915e-7
0.240, -9.863e-7, -5.936e-7, 3.927e-7
0.239, -9.869e-7, -5.951e-7, 3.918e-7
0.238, -9.890e-7, -5.969e-7, 3.921e-7
0.237, -9.912e-7, -5.957e-7, 3.954e-7
0.236, -9.908e-7, -5.985e-7, 3.924e-7
0.235, -9.942e-7, -5.994e-7, 3.948e-7
0.234, -9.957e-7, -5.994e-7, 3.963e-7
0.233, -9.979e-7, -6.009e-7, 3.970e-7
0.232, -1.002e-6, -6.037e-7, 3.982e-7
0.231, -1.002e-6, -6.027e-7, 3.988e-7
0.230, -1.002e-6, -6.043e-7, 3.979e-7
0.229, -1.008e-6, -6.070e-7, 4.009e-7
0.228, -1.009e-6, -6.070e-7, 4.015e-7
0.227, -1.009e-6, -6.091e-7, 3.994e-7
0.226, -1.013e-6, -6.110e-7, 4.021e-7
0.225, -1.015e-6, -6.107e-7, 4.043e-7
0.224, -1.017e-6, -6.143e-7, 4.031e-7
0.223, -1.019e-6, -6.143e-7, 4.043e-7
0.222, -1.021e-6, -6.156e-7, 4.052e-7
0.221, -1.020e-6, -6.165e-7, 4.034e-7
0.220, -1.023e-6, -6.171e-7, 4.055e-7
0.219, -1.025e-6, -6.180e-7, 4.070e-7
0.218, -1.026e-6, -6.195e-7, 4.064e-7
0.217, -1.028e-6, -6.192e-7, 4.089e-7
0.216, -1.031e-6, -6.220e-7, 4.086e-7
0.215, -1.031e-6, -6.214e-7, 4.098e-7
0.214, -1.035e-6, -6.250e-7, 4.098e-7
0.213, -1.035e-6, -6.259e-7, 4.092e-7
0.212, -1.040e-6, -6.272e-7, 4.125e-7
0.211, -1.039e-6, -6.265e-7, 4.122e-7
0.210, -1.043e-6, -6.296e-7, 4.131e-7
0.209, -1.044e-6, -6.305e-7, 4.131e-7
0.208, -1.044e-6, -6.299e-7, 4.144e-7
0.207, -1.049e-6, -6.333e-7, 4.153e-7
0.206, -1.047e-6, -6.333e-7, 4.140e-7
0.205, -1.053e-6, -6.354e-7, 4.177e-7
0.204, -1.052e-6, -6.369e-7, 4.156e-7
0.203, -1.056e-6, -6.375e-7, 4.186e-7
0.202, -1.056e-6, -6.378e-7, 4.186e-7
0.201, -1.059e-6, -6.394e-7, 4.192e-7
0.200, -1.060e-6, -6.397e-7, 4.198e-7
0.199, -1.065e-6, -6.433e-7, 4.214e-7
0.198, -1.064e-6, -6.439e-7, 4.198e-7
0.197, -1.067e-6, -6.439e-7, 4.226e-7
0.196, -1.070e-6, -6.464e-7, 4.238e-7
0.195, -1.075e-6, -6.500e-7, 4.250e-7
0.194, -1.075e-6, -6.485e-7, 4.269e-7
0.193, -1.077e-6, -6.510e-7, 4.256e-7
0.192, -1.081e-6, -6.516e-7, 4.290e-7
0.191, -1.081e-6, -6.528e-7, 4.287e-7
0.190, -1.082e-6, -6.543e-7, 4.278e-7
0.189, -1.085e-6, -6.549e-7, 4.305e-7
0.188, -1.088e-6, -6.571e-7, 4.308e-7
0.187, -1.090e-6, -6.598e-7, 4.302e-7
0.186, -1.093e-6, -6.583e-7, 4.345e-7
0.185, -1.091e-6, -6.583e-7, 4.327e-7
0.184, -1.097e-6, -6.629e-7, 4.339e-7
0.183, -1.101e-6, -6.641e-7, 4.369e-7
0.182, -1.099e-6, -6.632e-7, 4.357e-7
0.181, -1.103e-6, -6.662e-7, 4.372e-7
0.180, -1.105e-6, -6.662e-7, 4.391e-7
0.179, -1.107e-6, -6.677e-7, 4.397e-7
0.178, -1.110e-6, -6.705e-7, 4.400e-7
0.177, -1.112e-6, -6.693e-7, 4.424e-7
0.176, -1.114e-6, -6.726e-7, 4.418e-7
0.175, -1.116e-6, -6.738e-7, 4.424e-7
0.174, -1.117e-6, -6.729e-7, 4.440e-7
0.173, -1.121e-6, -6.763e-7, 4.452e-7
0.172, -1.123e-6, -6.772e-7, 4.455e-7
0.171, -1.125e-6, -6.790e-7, 4.458e-7
0.170, -1.128e-6, -6.796e-7, 4.479e-7
0.169, -1.129e-6, -6.796e-7, 4.497e-7
0.168, -1.130e-6, -6.809e-7, 4.488e-7
0.167, -1.134e-6, -6.830e-7, 4.507e-7
0.166, -1.136e-6, -6.845e-7, 4.516e-7
0.165, -1.138e-6, -6.867e-7, 4.513e-7
0.164, -1.140e-6, -6.876e-7, 4.528e-7
0.163, -1.144e-6, -6.882e-7, 4.555e-7
0.162, -1.144e-6, -6.894e-7, 4.549e-7
0.161, -1.148e-6, -6.912e-7, 4.568e-7
0.160, -1.148e-6, -6.918e-7, 4.565e-7
0.159, -1.152e-6, -6.946e-7, 4.574e-7
0.158, -1.153e-6, -6.949e-7, 4.580e-7
0.157, -1.155e-6, -6.943e-7, 4.610e-7
0.156, -1.156e-6, -6.970e-7, 4.589e-7
0.155, -1.159e-6, -6.976e-7, 4.617e-7
0.154, -1.161e-6, -6.989e-7, 4.620e-7
0.153, -1.162e-6, -7.001e-7, 4.623e-7
0.152, -1.167e-6, -7.016e-7, 4.650e-7
0.151, -1.169e-6, -7.025e-7, 4.662e-7
0.150, -1.169e-6, -7.041e-7, 4.650e-7
0.149, -1.171e-6, -7.041e-7, 4.671e-7
0.148, -1.173e-6, -7.050e-7, 4.678e-7
0.147, -1.175e-6, -7.071e-7, 4.674e-7
0.146, -1.178e-6, -7.068e-7, 4.714e-7
0.145, -1.179e-6, -7.083e-7, 4.702e-7
0.144, -1.181e-6, -7.105e-7, 4.708e-7
0.143, -1.184e-6, -7.108e-7, 4.732e-7
0.142, -1.185e-6, -7.114e-7, 4.739e-7
0.141, -1.187e-6, -7.126e-7, 4.742e-7
0.140, -1.190e-6, -7.129e-7, 4.772e-7
0.139, -1.190e-6, -7.144e-7, 4.751e-7
0.138, -1.195e-6, -7.172e-7, 4.778e-7
0.137, -1.194e-6, -7.156e-7, 4.781e-7
0.136, -1.196e-6, -7.187e-7, 4.775e-7
0.135, -1.197e-6, -7.178e-7, 4.797e-7
0.134, -1.199e-6, -7.187e-7, 4.806e-7
0.133, -1.201e-6, -7.208e-7, 4.806e-7
0.132, -1.204e-6, -7.221e-7, 4.815e-7
0.131, -1.205e-6, -7.221e-7, 4.830e-7
0.130, -1.207e-6, -7.230e-7, 4.836e-7
0.129, -1.210e-6, -7.242e-7, 4.855e-7
0.128, -1.209e-6, -7.248e-7, 4.845e-7
0.127, -1.212e-6, -7.257e-7, 4.864e-7
0.126, -1.212e-6, -7.251e-7, 4.873e-7
0.125, -1.217e-6, -7.285e-7, 4.885e-7
0.124, -1.217e-6, -7.285e-7, 4.888e-7
0.123, -1.221e-6, -7.300e-7, 4.906e-7
0.122, -1.220e-6, -7.303e-7, 4.897e-7
0.121, -1.225e-6, -7.324e-7, 4.925e-7
0.120, -1.224e-6, -7.315e-7, 4.925e-7
0.119, -1.226e-6, -7.330e-7, 4.925e-7
0.118, -1.229e-6, -7.343e-7, 4.943e-7
0.117, -1.229e-6, -7.349e-7, 4.940e-7
0.116, -1.231e-6, -7.367e-7, 4.940e-7
0.115, -1.235e-6, -7.367e-7, 4.983e-7
0.114, -1.234e-6, -7.364e-7, 4.980e-7
0.113, -1.236e-6, -7.379e-7, 4.977e-7
0.112, -1.239e-6, -7.382e-7, 5.007e-7
0.111, -1.239e-6, -7.385e-7, 5.004e-7
0.110, -1.243e-6, -7.416e-7, 5.010e-7
0.109, -1.243e-6, -7.404e-7, 5.022e-7
0.108, -1.242e-6, -7.407e-7, 5.016e-7
0.107, -1.247e-6, -7.425e-7, 5.041e-7
0.106, -1.248e-6, -7.434e-7, 5.047e-7
0.105, -1.249e-6, -7.449e-7, 5.041e-7
0.104, -1.254e-6, -7.462e-7, 5.080e-7
0.103, -1.253e-6, -7.456e-7, 5.074e-7
0.102, -1.254e-6, -7.477e-7, 5.059e-7
0.101, -1.257e-6, -7.471e-7, 5.099e-7
0.100, -1.256e-6, -7.471e-7, 5.086e-7
0.099, -1.258e-6, -7.486e-7, 5.093e-7
0.098, -1.262e-6, -7.495e-7, 5.123e-7
0.097, -1.262e-6, -7.489e-7, 5.132e-7
0.096, -1.263e-6, -7.498e-7, 5.129e-7
0.095, -1.266e-6, -7.507e-7, 5.154e-7
0.094, -1.266e-6, -7.498e-7, 5.160e-7
0.093, -1.267e-6, -7.529e-7, 5.144e-7
0.092, -1.270e-6, -7.532e-7, 5.172e-7
0.091, -1.269e-6, -7.532e-7, 5.160e-7
0.090, -1.272e-6, -7.550e-7, 5.169e-7
0.089, -1.275e-6, -7.550e-7, 5.199e-7
0.088, -1.274e-6, -7.556e-7, 5.187e-7
0.087, -1.278e-6, -7.565e-7, 5.215e-7
0.086, -1.278e-6, -7.553e-7, 5.224e-7
0.085, -1.280e-6, -7.568e-7, 5.227e-7
0.084, -1.280e-6, -7.565e-7, 5.239e-7
0.083, -1.281e-6, -7.572e-7, 5.236e-7
0.082, -1.282e-6, -7.575e-7, 5.245e-7
0.081, -1.286e-6, -7.593e-7, 5.266e-7
0.080, -1.286e-6, -7.587e-7, 5.273e-7
0.079, -1.287e-6, -7.599e-7, 5.276e-7
0.078, -1.290e-6, -7.602e-7, 5.297e-7
0.077, -1.288e-6, -7.590e-7, 5.288e-7
0.076, -1.292e-6, -7.617e-7, 5.306e-7
0.075, -1.291e-6, -7.596e-7, 5.312e-7
0.074, -1.292e-6, -7.608e-7, 5.315e-7
0.073, -1.295e-6, -7.626e-7, 5.324e-7
0.072, -1.295e-6, -7.611e-7, 5.343e-7
0.071, -1.297e-6, -7.629e-7, 5.337e-7
0.070, -1.296e-6, -7.617e-7, 5.346e-7
0.069, -1.297e-6, -7.620e-7, 5.352e-7
0.068, -1.298e-6, -7.626e-7, 5.358e-7
0.067, -1.299e-6, -7.623e-7, 5.364e-7
0.066, -1.299e-6, -7.617e-7, 5.376e-7
0.065, -1.302e-6, -7.648e-7, 5.370e-7
0.064, -1.303e-6, -7.642e-7, 5.392e-7
0.063, -1.301e-6, -7.626e-7, 5.389e-7
0.062, -1.301e-6, -7.639e-7, 5.373e-7
0.061, -1.305e-6, -7.623e-7, 5.425e-7
0.060, -1.303e-6, -7.633e-7, 5.401e-7
0.059, -1.306e-6, -7.645e-7, 5.416e-7
0.058, -1.305e-6, -7.620e-7, 5.434e-7
0.057, -1.307e-6, -7.645e-7, 5.428e-7
0.056, -1.309e-6, -7.648e-7, 5.447e-7
0.055, -1.306e-6, -7.617e-7, 5.443e-7
0.054, -1.304e-6, -7.617e-7, 5.422e-7
0.053, -1.309e-6, -7.639e-7, 5.456e-7
0.052, -1.309e-6, -7.639e-7, 5.453e-7
0.051, -1.308e-6, -7.633e-7, 5.443e-7
0.050, -1.310e-6, -7.642e-7, 5.462e-7
0.049, -1.308e-6, -7.608e-7, 5.471e-7
0.048, -1.309e-6, -7.617e-7, 5.471e-7
0.047, -1.310e-6, -7.623e-7, 5.477e-7
0.046, -1.311e-6, -7.614e-7, 5.498e-7
0.045, -1.309e-6, -7.617e-7, 5.471e-7
0.044, -1.312e-6, -7.614e-7, 5.501e-7
0.043, -1.310e-6, -7.599e-7, 5.501e-7
0.042, -1.310e-6, -7.611e-7, 5.492e-7
0.041, -1.310e-6, -7.590e-7, 5.508e-7
0.040, -1.312e-6, -7.599e-7, 5.526e-7
0.039, -1.312e-6, -7.608e-7, 5.514e-7
0.038, -1.310e-6, -7.596e-7, 5.501e-7
0.037, -1.310e-6, -7.584e-7, 5.520e-7
0.036, -1.309e-6, -7.578e-7, 5.514e-7
0.035, -1.310e-6, -7.568e-7, 5.532e-7
0.034, -1.309e-6, -7.578e-7, 5.517e-7
0.033, -1.311e-6, -7.572e-7, 5.535e-7
0.032, -1.306e-6, -7.547e-7, 5.517e-7
0.031, -1.309e-6, -7.559e-7, 5.526e-7
0.030, -1.309e-6, -7.541e-7, 5.553e-7
0.029, -1.307e-6, -7.535e-7, 5.532e-7
0.028, -1.308e-6, -7.547e-7, 5.535e-7
0.027, -1.307e-6, -7.526e-7, 5.541e-7
0.026, -1.308e-6, -7.520e-7, 5.556e-7
0.025, -1.308e-6, -7.532e-7, 5.544e-7
0.024, -1.306e-6, -7.510e-7, 5.553e-7
0.023, -1.305e-6, -7.507e-7, 5.541e-7
0.022, -1.305e-6, -7.498e-7, 5.547e-7
0.021, -1.306e-6, -7.501e-7, 5.562e-7
0.020, -1.304e-6, -7.489e-7, 5.553e-7
0.019, -1.304e-6, -7.483e-7, 5.559e-7
0.018, -1.301e-6, -7.456e-7, 5.556e-7
0.017, -1.301e-6, -7.462e-7, 5.553e-7
0.016, -1.304e-6, -7.465e-7, 5.572e-7
0.015, -1.301e-6, -7.434e-7, 5.575e-7
0.014, -1.303e-6, -7.459e-7, 5.572e-7
0.013, -1.301e-6, -7.446e-7, 5.569e-7
0.012, -1.300e-6, -7.419e-7, 5.578e-7
0.011, -1.297e-6, -7.416e-7, 5.553e-7
0.010, -1.300e-6, -7.422e-7, 5.581e-7
0.009, -1.298e-6, -7.404e-7, 5.575e-7
0.008, -1.298e-6, -7.407e-7, 5.572e-7
0.007, -1.297e-6, -7.382e-7, 5.590e-7
0.006, -1.294e-6, -7.367e-7, 5.572e-7
0.005, -1.295e-6, -7.395e-7, 5.559e-7
0.004, -1.294e-6, -7.355e-7, 5.581e-7
0.003, -1.291e-6, -7.337e-7, 5.575e-7
0.002, -1.292e-6, -7.349e-7, 5.572e-7
0.001, -1.289e-6, -7.321e-7, 5.569e-7
0.000, -1.293e-6, -7.346e-7, 5.584e-7
-0.001, -1.290e-6, -7.327e-7, 5.572e-7
-0.002, -1.289e-6, -7.312e-7, 5.581e-7
-0.003, -1.287e-6, -7.306e-7, 5.569e-7
-0.004, -1.286e-6, -7.285e-7, 5.575e-7
-0.005, -1.284e-6, -7.279e-7, 5.566e-7
-0.006, -1.283e-6, -7.269e-7, 5.566e-7
-0.007, -1.285e-6, -7.266e-7, 5.581e-7
-0.008, -1.281e-6, -7.242e-7, 5.572e-7
-0.009, -1.281e-6, -7.239e-7, 5.569e-7
-0.010, -1.280e-6, -7.227e-7, 5.575e-7
-0.011, -1.281e-6, -7.230e-7, 5.581e-7
-0.012, -1.280e-6, -7.233e-7, 5.562e-7
-0.013, -1.278e-6, -7.199e-7, 5.578e-7
-0.014, -1.277e-6, -7.199e-7, 5.569e-7
-0.015, -1.276e-6, -7.196e-7, 5.559e-7
-0.016, -1.273e-6, -7.169e-7, 5.559e-7
-0.017, -1.272e-6, -7.163e-7, 5.559e-7
-0.018, -1.271e-6, -7.147e-7, 5.559e-7
-0.019, -1.266e-6, -7.132e-7, 5.532e-7
-0.020, -1.269e-6, -7.138e-7, 5.550e-7
-0.021, -1.269e-6, -7.132e-7, 5.556e-7
-0.022, -1.263e-6, -7.099e-7, 5.535e-7
-0.023, -1.262e-6, -7.105e-7, 5.520e-7
-0.024, -1.262e-6, -7.080e-7, 5.544e-7
-0.025, -1.261e-6, -7.065e-7, 5.541e-7
-0.026, -1.259e-6, -7.071e-7, 5.520e-7
-0.027, -1.257e-6, -7.041e-7, 5.532e-7
-0.028, -1.257e-6, -7.037e-7, 5.532e-7
-0.029, -1.255e-6, -7.037e-7, 5.511e-7
-0.030, -1.255e-6, -7.025e-7, 5.529e-7
-0.031, -1.250e-6, -7.001e-7, 5.495e-7
-0.032, -1.251e-6, -7.007e-7, 5.508e-7
-0.033, -1.248e-6, -6.973e-7, 5.511e-7
-0.034, -1.247e-6, -6.973e-7, 5.495e-7
-0.035, -1.247e-6, -6.967e-7, 5.504e-7
-0.036, -1.244e-6, -6.937e-7, 5.508e-7
-0.037, -1.240e-6, -6.934e-7, 5.471e-7
-0.038, -1.242e-6, -6.940e-7, 5.480e-7
-0.039, -1.240e-6, -6.912e-7, 5.483e-7
-0.040, -1.236e-6, -6.909e-7, 5.453e-7
-0.041, -1.236e-6, -6.900e-7, 5.456e-7
-0.042, -1.234e-6, -6.864e-7, 5.477e-7
-0.043, -1.230e-6, -6.867e-7, 5.437e-7
-0.044, -1.232e-6, -6.857e-7, 5.459e-7
-0.045, -1.228e-6, -6.827e-7, 5.450e-7
-0.046, -1.227e-6, -6.836e-7, 5.431e-7
-0.047, -1.228e-6, -6.830e-7, 5.450e-7
-0.048, -1.223e-6, -6.796e-7, 5.437e-7
-0.049, -1.219e-6, -6.778e-7, 5.410e-7
-0.050, -1.218e-6, -6.784e-7, 5.401e-7
-0.051, -1.216e-6, -6.763e-7, 5.401e-7
-0.052, -1.215e-6, -6.748e-7, 5.401e-7
-0.053, -1.212e-6, -6.735e-7, 5.382e-7
-0.054, -1.211e-6, -6.723e-7, 5.392e-7
-0.055, -1.213e-6, -6.723e-7, 5.407e-7
-0.056, -1.208e-6, -6.696e-7, 5.382e-7
-0.057, -1.204e-6, -6.687e-7, 5.355e-7
-0.058, -1.205e-6, -6.684e-7, 5.367e-7
-0.059, -1.200e-6, -6.656e-7, 5.343e-7
-0.060, -1.200e-6, -6.656e-7, 5.346e-7
-0.061, -1.200e-6, -6.653e-7, 5.346e-7
-0.062, -1.195e-6, -6.626e-7, 5.328e-7
-0.063, -1.195e-6, -6.629e-7, 5.318e-7
-0.064, -1.195e-6, -6.622e-7, 5.324e-7
-0.065, -1.190e-6, -6.580e-7, 5.321e-7
-0.066, -1.191e-6, -6.592e-7, 5.318e-7
-0.067, -1.189e-6, -6.571e-7, 5.315e-7
-0.068, -1.184e-6, -6.558e-7, 5.285e-7
-0.069, -1.186e-6, -6.561e-7, 5.294e-7
-0.070, -1.183e-6, -6.531e-7, 5.297e-7
-0.071, -1.178e-6, -6.516e-7, 5.263e-7
-0.072, -1.181e-6, -6.528e-7, 5.279e-7
-0.073, -1.178e-6, -6.510e-7, 5.270e-7
-0.074, -1.176e-6, -6.497e-7, 5.266e-7
-0.075, -1.174e-6, -6.479e-7, 5.260e-7
-0.076, -1.173e-6, -6.473e-7, 5.254e-7
-0.077, -1.171e-6, -6.476e-7, 5.236e-7
-0.078, -1.172e-6, -6.452e-7, 5.263e-7
-0.079, -1.168e-6, -6.449e-7, 5.236e-7
-0.080, -1.167e-6, -6.445e-7, 5.227e-7
-0.081, -1.167e-6, -6.433e-7, 5.236e-7
-0.082, -1.163e-6, -6.415e-7, 5.212e-7
-0.083, -1.161e-6, -6.409e-7, 5.196e-7
-0.084, -1.161e-6, -6.394e-7, 5.215e-7
-0.085, -1.156e-6, -6.360e-7, 5.199e-7
-0.086, -1.159e-6, -6.403e-7, 5.190e-7
-0.087, -1.157e-6, -6.360e-7, 5.205e-7
-0.088, -1.152e-6, -6.342e-7, 5.178e-7
-0.089, -1.151e-6, -6.339e-7, 5.169e-7
-0.090, -1.152e-6, -6.345e-7, 5.178e-7
-0.091, -1.151e-6, -6.345e-7, 5.163e-7
-0.092, -1.149e-6, -6.326e-7, 5.160e-7
-0.093, -1.146e-6, -6.305e-7, 5.160e-7
-0.094, -1.145e-6, -6.296e-7, 5.151e-7
-0.095, -1.143e-6, -6.299e-7, 5.129e-7
-0.096, -1.142e-6, -6.302e-7, 5.120e-7
-0.097, -1.143e-6, -6.290e-7, 5.135e-7
-0.098, -1.142e-6, -6.290e-7, 5.132e-7
-0.099, -1.139e-6, -6.262e-7, 5.123e-7
-0.100, -1.138e-6, -6.259e-7, 5.117e-7
-0.101, -1.135e-6, -6.238e-7, 5.114e-7
-0.102, -1.134e-6, -6.238e-7, 5.099e-7
-0.103, -1.132e-6, -6.229e-7, 5.089e-7
-0.104, -1.131e-6, -6.220e-7, 5.093e-7
-0.105, -1.128e-6, -6.217e-7, 5.068e-7
-0.106, -1.130e-6, -6.207e-7, 5.093e-7
-0.107, -1.128e-6, -6.189e-7, 5.093e-7
-0.108, -1.125e-6, -6.207e-7, 5.041e-7
-0.109, -1.128e-6, -6.214e-7, 5.062e-7
-0.110, -1.123e-6, -6.171e-7, 5.059e-7
-0.111, -1.120e-6, -6.159e-7, 5.044e-7
-0.112, -1.121e-6, -6.168e-7, 5.038e-7
-0.113, -1.117e-6, -6.137e-7, 5.038e-7
-0.114, -1.116e-6, -6.143e-7, 5.013e-7
-0.115, -1.117e-6, -6.140e-7, 5.025e-7
-0.116, -1.114e-6, -6.119e-7, 5.025e-7
-0.117, -1.111e-6, -6.110e-7, 5.001e-7
-0.118, -1.112e-6, -6.119e-7, 4.998e-7
-0.119, -1.109e-6, -6.107e-7, 4.986e-7
-0.120, -1.109e-6, -6.119e-7, 4.974e-7
-0.121, -1.108e-6, -6.085e-7, 4.995e-7
-0.122, -1.105e-6, -6.076e-7, 4.974e-7
-0.123, -1.107e-6, -6.110e-7, 4.961e-7
-0.124, -1.104e-6, -6.067e-7, 4.977e-7
-0.125, -1.102e-6, -6.073e-7, 4.943e-7
-0.126, -1.102e-6, -6.073e-7, 4.949e-7
-0.127, -1.105e-6, -6.092e-7, 4.955e-7
-0.128, -1.098e-6, -6.043e-7, 4.937e-7
-0.129, -1.098e-6, -6.043e-7, 4.940e-7
-0.130, -1.096e-6, -6.024e-7, 4.934e-7
-0.131, -1.094e-6, -6.024e-7, 4.919e-7
-0.132, -1.097e-6, -6.040e-7, 4.928e-7
-0.133, -1.093e-6, -6.024e-7, 4.909e-7
-0.134, -1.091e-6, -6.012e-7, 4.897e-7
-0.135, -1.094e-6, -6.046e-7, 4.897e-7
-0.136, -1.088e-6, -5.991e-7, 4.891e-7
-0.137, -1.092e-6, -6.040e-7, 4.876e-7
-0.138, -1.088e-6, -5.994e-7, 4.882e-7
-0.139, -1.086e-6, -5.985e-7, 4.873e-7
-0.140, -1.085e-6, -5.982e-7, 4.873e-7
-0.141, -1.085e-6, -5.985e-7, 4.864e-7
-0.142, -1.084e-6, -5.979e-7, 4.858e-7
-0.143, -1.081e-6, -5.957e-7, 4.855e-7
-0.144, -1.077e-6, -5.924e-7, 4.848e-7
-0.145, -1.081e-6, -5.976e-7, 4.833e-7
-0.146, -1.077e-6, -5.933e-7, 4.836e-7
-0.147, -1.078e-6, -5.936e-7, 4.842e-7
-0.148, -1.074e-6, -5.924e-7, 4.821e-7
-0.149, -1.078e-6, -5.963e-7, 4.818e-7
-0.150, -1.073e-6, -5.924e-7, 4.809e-7
-0.151, -1.073e-6, -5.930e-7, 4.803e-7
-0.152, -1.072e-6, -5.899e-7, 4.821e-7
-0.153, -1.070e-6, -5.911e-7, 4.787e-7
-0.154, -1.068e-6, -5.896e-7, 4.781e-7
-0.155, -1.073e-6, -5.930e-7, 4.797e-7
-0.156, -1.071e-6, -5.921e-7, 4.787e-7
-0.157, -1.067e-6, -5.896e-7, 4.775e-7
-0.158, -1.067e-6, -5.896e-7, 4.775e-7
-0.159, -1.070e-6, -5.924e-7, 4.772e-7
-0.160, -1.068e-6, -5.908e-7, 4.772e-7
-0.161, -1.064e-6, -5.853e-7, 4.784e-7
-0.162, -1.060e-6, -5.866e-7, 4.735e-7
-0.163, -1.062e-6, -5.869e-7, 4.754e-7
-0.164, -1.061e-6, -5.853e-7, 4.757e-7
-0.165, -1.067e-6, -5.927e-7, 4.748e-7
-0.166, -1.062e-6, -5.863e-7, 4.760e-7
-0.167, -1.059e-6, -5.844e-7, 4.742e-7
-0.168, -1.061e-6, -5.872e-7, 4.739e-7
-0.169, -1.061e-6, -5.863e-7, 4.745e-7
-0.170, -1.054e-6, -5.820e-7, 4.723e-7
-0.171, -1.059e-6, -5.866e-7, 4.723e-7
-0.172, -1.056e-6, -5.829e-7, 4.735e-7
-0.173, -1.052e-6, -5.811e-7, 4.714e-7
-0.174, -1.056e-6, -5.850e-7, 4.711e-7
-0.175, -1.054e-6, -5.820e-7, 4.720e-7
-0.176, -1.052e-6, -5.826e-7, 4.690e-7
-0.177, -1.052e-6, -5.823e-7, 4.696e-7
-0.178, -1.053e-6, -5.814e-7, 4.717e-7
-0.179, -1.052e-6, -5.817e-7, 4.702e-7
-0.180, -1.049e-6, -5.789e-7, 4.696e-7
-0.181, -1.051e-6, -5.808e-7, 4.702e-7
-0.182, -1.047e-6, -5.789e-7, 4.684e-7
-0.183, -1.053e-6, -5.832e-7, 4.702e-7
-0.184, -1.047e-6, -5.780e-7, 4.693e-7
-0.185, -1.048e-6, -5.802e-7, 4.678e-7
-0.186, -1.048e-6, -5.799e-7, 4.681e-7
-0.187, -1.048e-6, -5.805e-7, 4.678e-7
-0.188, -1.049e-6, -5.826e-7, 4.665e-7
-0.189, -1.044e-6, -5.759e-7, 4.678e-7
-0.190, -1.044e-6, -5.768e-7, 4.671e-7
-0.191, -1.047e-6, -5.792e-7, 4.674e-7
-0.192, -1.045e-6, -5.771e-7, 4.678e-7
-0.193, -1.042e-6, -5.753e-7, 4.665e-7
-0.194, -1.046e-6, -5.789e-7, 4.674e-7
-0.195, -1.043e-6, -5.768e-7, 4.665e-7
-0.196, -1.041e-6, -5.753e-7, 4.656e-7
-0.197, -1.043e-6, -5.768e-7, 4.665e-7
-0.198, -1.041e-6, -5.747e-7, 4.665e-7
-0.199, -1.038e-6, -5.731e-7, 4.647e-7
-0.200, -1.049e-6, -5.820e-7, 4.668e-7
-0.201, -1.037e-6, -5.725e-7, 4.647e-7
-0.202, -1.039e-6, -5.753e-7, 4.638e-7
-0.203, -1.035e-6, -5.704e-7, 4.650e-7
-0.204, -1.037e-6, -5.728e-7, 4.638e-7
-0.205, -1.035e-6, -5.716e-7, 4.638e-7
-0.206, -1.041e-6, -5.774e-7, 4.632e-7
-0.207, -1.036e-6, -5.738e-7, 4.626e-7
-0.208, -1.034e-6, -5.707e-7, 4.635e-7
-0.209, -1.033e-6, -5.701e-7, 4.632e-7
-0.210, -1.038e-6, -5.759e-7, 4.620e-7
-0.211, -1.035e-6, -5.731e-7, 4.623e-7
-0.212, -1.035e-6, -5.719e-7, 4.629e-7
-0.213, -1.032e-6, -5.689e-7, 4.629e-7
-0.214, -1.032e-6, -5.701e-7, 4.616e-7
-0.215, -1.027e-6, -5.658e-7, 4.613e-7
-0.216, -1.032e-6, -5.707e-7, 4.610e-7
-0.217, -1.028e-6, -5.680e-7, 4.598e-7
-0.218, -1.026e-6, -5.649e-7, 4.610e-7
-0.219, -1.027e-6, -5.677e-7, 4.598e-7
-0.220, -1.026e-6, -5.649e-7, 4.607e-7
-0.221, -1.027e-6, -5.667e-7, 4.601e-7
-0.222, -1.025e-6, -5.649e-7, 4.601e-7
-0.223, -1.030e-6, -5.692e-7, 4.604e-7
-0.224, -1.025e-6, -5.649e-7, 4.598e-7
-0.225, -1.024e-6, -5.649e-7, 4.586e-7
-0.226, -1.022e-6, -5.640e-7, 4.583e-7
-0.227, -1.025e-6, -5.664e-7, 4.583e-7
-0.228, -1.020e-6, -5.625e-7, 4.577e-7
-0.229, -1.024e-6, -5.652e-7, 4.592e-7
-0.230, -1.024e-6, -5.680e-7, 4.565e-7
-0.231, -1.022e-6, -5.658e-7, 4.565e-7
-0.232, -1.019e-6, -5.615e-7, 4.574e-7
-0.233, -1.018e-6, -5.619e-7, 4.558e-7
-0.234, -1.017e-6, -5.597e-7, 4.571e-7
-0.235, -1.019e-6, -5.609e-7, 4.580e-7
-0.236, -1.014e-6, -5.585e-7, 4.558e-7
-0.237, -1.024e-6, -5.661e-7, 4.574e-7
-0.238, -1.016e-6, -5.606e-7, 4.555e-7
-0.239, -1.017e-6, -5.631e-7, 4.543e-7
-0.240, -1.020e-6, -5.640e-7, 4.562e-7
-0.241, -1.012e-6, -5.576e-7, 4.546e-7
-0.242, -1.012e-6, -5.579e-7, 4.543e-7
-0.243, -1.013e-6, -5.582e-7, 4.552e-7
-0.244, -1.011e-6, -5.570e-7, 4.537e-7
-0.245, -1.012e-6, -5.582e-7, 4.537e-7
-0.246, -1.016e-6, -5.609e-7, 4.549e-7
-0.247, -1.010e-6, -5.561e-7, 4.537e-7
-0.248, -1.011e-6, -5.576e-7, 4.534e-7
-0.249, -1.016e-6, -5.615e-7, 4.540e-7
-0.250, -1.005e-6, -5.521e-7, 4.525e-7
-0.251, -1.005e-6, -5.524e-7, 4.531e-7
-0.252, -1.010e-6, -5.567e-7, 4.537e-7
-0.253, -1.005e-6, -5.542e-7, 4.513e-7
-0.254, -1.004e-6, -5.506e-7, 4.537e-7
-0.255, -1.005e-6, -5.530e-7, 4.519e-7
-0.256, -1.003e-6, -5.521e-7, 4.507e-7
-0.257, -1.001e-6, -5.496e-7, 4.510e-7
-0.258, -1.005e-6, -5.515e-7, 4.531e-7
-0.259, -1.002e-6, -5.515e-7, 4.510e-7
-0.260, -1.008e-6, -5.558e-7, 4.522e-7
-0.261, -1.011e-6, -5.585e-7, 4.525e-7
-0.262, -1.003e-6, -5.539e-7, 4.491e-7
-0.263, -1.009e-6, -5.573e-7, 4.519e-7
-0.264, -1.002e-6, -5.506e-7, 4.510e-7
-0.265, -1.003e-6, -5.542e-7, 4.488e-7
-0.266, -9.997e-7, -5.481e-7, 4.516e-7
-0.267, -9.988e-7, -5.487e-7, 4.501e-7
-0.268, -1.004e-6, -5.548e-7, 4.494e-7
-0.269, -1.000e-6, -5.506e-7, 4.497e-7
-0.270, -9.970e-7, -5.475e-7, 4.494e-7
-0.271, -9.970e-7, -5.481e-7, 4.488e-7
-0.272, -1.001e-6, -5.521e-7, 4.488e-7
-0.273, -9.960e-7, -5.475e-7, 4.485e-7
-0.274, -9.963e-7, -5.472e-7, 4.491e-7
-0.275, -9.948e-7, -5.466e-7, 4.482e-7
-0.276, -9.985e-7, -5.503e-7, 4.482e-7
-0.277, -1.007e-6, -5.579e-7, 4.488e-7
-0.278, -9.936e-7, -5.457e-7, 4.479e-7
-0.279, -9.930e-7, -5.454e-7, 4.476e-7
-0.280, -9.945e-7, -5.475e-7, 4.470e-7
-0.281, -9.973e-7, -5.500e-7, 4.473e-7
-0.282, -9.933e-7, -5.460e-7, 4.473e-7
-0.283, -9.899e-7, -5.417e-7, 4.482e-7
-0.284, -9.924e-7, -5.454e-7, 4.470e-7
-0.285, -9.982e-7, -5.515e-7, 4.467e-7
-0.286, -9.899e-7, -5.438e-7, 4.461e-7
-0.287, -9.893e-7, -5.429e-7, 4.464e-7
-0.288, -9.893e-7, -5.432e-7, 4.461e-7
-0.289, -9.884e-7, -5.417e-7, 4.467e-7
-0.290, -9.851e-7, -5.414e-7, 4.436e-7
-0.291, -9.875e-7, -5.408e-7, 4.467e-7
-0.292, -9.866e-7, -5.420e-7, 4.446e-7
-0.293, -9.866e-7, -5.426e-7, 4.439e-7
-0.294, -9.957e-7, -5.503e-7, 4.455e-7
-0.295, -9.847e-7, -5.414e-7, 4.433e-7
-0.296, -9.838e-7, -5.405e-7, 4.433e-7
-0.297, -9.866e-7, -5.411e-7, 4.455e-7
-0.298, -9.829e-7, -5.405e-7, 4.424e-7
-0.299, -9.851e-7, -5.417e-7, 4.433e-7
-0.300, -9.817e-7, -5.377e-7, 4.439e-7
-0.301, -9.805e-7, -5.387e-7, 4.418e-7
-0.302, -9.835e-7, -5.414e-7, 4.421e-7
-0.303, -9.802e-7, -5.371e-7, 4.430e-7
-0.304, -9.765e-7, -5.356e-7, 4.409e-7
-0.305, -9.799e-7, -5.387e-7, 4.412e-7
-0.306, -9.762e-7, -5.341e-7, 4.421e-7
-0.307, -9.866e-7, -5.457e-7, 4.409e-7
-0.308, -9.771e-7, -5.377e-7, 4.394e-7
-0.309, -9.765e-7, -5.362e-7, 4.403e-7
-0.310, -9.777e-7, -5.384e-7, 4.394e-7
-0.311, -9.786e-7, -5.396e-7, 4.391e-7
-0.312, -9.747e-7, -5.344e-7, 4.403e-7
-0.313, -9.786e-7, -5.390e-7, 4.397e-7
-0.314, -9.768e-7, -5.390e-7, 4.378e-7
-0.315, -9.750e-7, -5.356e-7, 4.394e-7
-0.316, -9.777e-7, -5.399e-7, 4.378e-7
-0.317, -9.747e-7, -5.362e-7, 4.385e-7
-0.318, -9.735e-7, -5.362e-7, 4.372e-7
-0.319, -9.701e-7, -5.338e-7, 4.363e-7
-0.320, -9.731e-7, -5.359e-7, 4.372e-7
-0.321, -9.710e-7, -5.341e-7, 4.369e-7
-0.322, -9.713e-7, -5.350e-7, 4.363e-7
-0.323, -9.701e-7, -5.329e-7, 4.372e-7
-0.324, -9.686e-7, -5.335e-7, 4.351e-7
-0.325, -9.728e-7, -5.368e-7, 4.360e-7
-0.326, -9.686e-7, -5.329e-7, 4.357e-7
-0.327, -9.683e-7, -5.338e-7, 4.345e-7
-0.328, -9.667e-7, -5.329e-7, 4.339e-7
-0.329, -9.701e-7, -5.356e-7, 4.345e-7
-0.330, -9.683e-7, -5.353e-7, 4.330e-7
-0.331, -9.674e-7, -5.335e-7, 4.339e-7
-0.332, -9.619e-7, -5.304e-7, 4.314e-7
-0.333, -9.612e-7, -5.310e-7, 4.302e-7
-0.334, -9.640e-7, -5.313e-7, 4.327e-7
-0.335, -9.634e-7, -5.319e-7, 4.314e-7
-0.336, -9.640e-7, -5.326e-7, 4.314e-7
-0.337, -9.652e-7, -5.353e-7, 4.299e-7
-0.338, -9.609e-7, -5.313e-7, 4.296e-7
-0.339, -9.655e-7, -5.347e-7, 4.308e-7
-0.340, -9.677e-7, -5.365e-7, 4.311e-7
-0.341, -9.606e-7, -5.313e-7, 4.293e-7
-0.342, -9.634e-7, -5.323e-7, 4.311e-7
-0.343, -9.585e-7, -5.295e-7, 4.290e-7
-0.344, -9.619e-7, -5.338e-7, 4.281e-7
-0.345, -9.600e-7, -5.304e-7, 4.296e-7
-0.346, -9.606e-7, -5.326e-7, 4.281e-7
-0.347, -9.609e-7, -5.332e-7, 4.278e-7
-0.348, -9.594e-7, -5.313e-7, 4.281e-7
-0.349, -9.597e-7, -5.316e-7, 4.281e-7
-0.350, -9.597e-7, -5.313e-7, 4.284e-7
-0.351, -9.628e-7, -5.344e-7, 4.284e-7
-0.352, -9.606e-7, -5.338e-7, 4.269e-7
-0.353, -9.664e-7, -5.393e-7, 4.272e-7
-0.354, -9.585e-7, -5.313e-7, 4.272e-7
-0.355, -9.582e-7, -5.316e-7, 4.266e-7
-0.356, -9.591e-7, -5.332e-7, 4.259e-7
-0.357, -9.603e-7, -5.332e-7, 4.272e-7
-0.358, -9.600e-7, -5.338e-7, 4.262e-7
-0.359, -9.680e-7, -5.426e-7, 4.253e-7
-0.360, -9.594e-7, -5.326e-7, 4.269e-7
-0.361, -9.612e-7, -5.356e-7, 4.256e-7
-0.362, -9.631e-7, -5.365e-7, 4.266e-7
-0.363, -9.588e-7, -5.338e-7, 4.250e-7
-0.364, -9.558e-7, -5.310e-7, 4.247e-7
-0.365, -9.579e-7, -5.329e-7, 4.250e-7
-0.366, -9.585e-7, -5.347e-7, 4.238e-7
-0.367, -9.594e-7, -5.353e-7, 4.241e-7
-0.368, -9.579e-7, -5.329e-7, 4.250e-7
-0.369, -9.536e-7, -5.307e-7, 4.229e-7
-0.370, -9.600e-7, -5.353e-7, 4.247e-7
-0.371, -9.625e-7, -5.393e-7, 4.232e-7
-0.372, -9.576e-7, -5.347e-7, 4.229e-7
-0.373, -9.600e-7, -5.347e-7, 4.253e-7
-0.374, -9.551e-7, -5.329e-7, 4.223e-7
-0.375, -9.567e-7, -5.341e-7, 4.226e-7
-0.376, -9.640e-7, -5.420e-7, 4.220e-7
-0.377, -9.600e-7, -5.377e-7, 4.223e-7
-0.378, -9.558e-7, -5.338e-7, 4.220e-7
-0.379, -9.570e-7, -5.359e-7, 4.211e-7
-0.380, -9.594e-7, -5.371e-7, 4.223e-7
-0.381, -9.576e-7, -5.381e-7, 4.195e-7
-0.382, -9.597e-7, -5.384e-7, 4.214e-7
-0.383, -9.652e-7, -5.448e-7, 4.204e-7
-0.384, -9.628e-7, -5.435e-7, 4.192e-7
-0.385, -9.570e-7, -5.371e-7, 4.198e-7
-0.386, -9.564e-7, -5.374e-7, 4.189e-7
-0.387, -9.582e-7, -5.387e-7, 4.195e-7
-0.388, -9.606e-7, -5.396e-7, 4.211e-7
-0.389, -9.579e-7, -5.399e-7, 4.180e-7
-0.390, -9.573e-7, -5.393e-7, 4.180e-7
-0.391, -9.603e-7, -5.408e-7, 4.195e-7
-0.392, -9.603e-7, -5.432e-7, 4.171e-7
-0.393, -9.600e-7, -5.414e-7, 4.186e-7
-0.394, -9.542e-7, -5.387e-7, 4.156e-7
-0.395, -9.588e-7, -5.411e-7, 4.177e-7
-0.396, -9.579e-7, -5.411e-7, 4.168e-7
-0.397, -9.625e-7, -5.448e-7, 4.177e-7
-0.398, -9.591e-7, -5.426e-7, 4.165e-7
-0.399, -9.567e-7, -5.402e-7, 4.165e-7
-0.400, -9.576e-7, -5.405e-7, 4.171e-7
