Mar. 20, 2018   15:14:37
Square Wave Voltammetry
File: c:\users\electrochemist\desktop\2018\20032018_unbufarray_unpap\43_g3_ph7,46_5.txt
Data Source:  Experiment
Instrument Model:  CHI1040A
Header: 
Note: 

Init E (V) = 0.7
Final E (V) = -0.4
Incr E (V) = 0.001
Amplitude (V) = 0.1
Frequency (Hz) = 152
Quiet Time (sec) = 2
Sensitivity (A/V) = 1e-6

Difference:

Forward:

Reverse:

Potential/V, Diff(i/A), For(i/A), Rev(i/A)

0.699, -5.670e-7, -1.593e-7, 4.076e-7
0.698, -7.153e-7, -3.443e-7, 3.710e-7
0.697, -7.147e-7, -3.525e-7, 3.622e-7
0.696, -7.150e-7, -3.574e-7, 3.576e-7
0.695, -7.150e-7, -3.568e-7, 3.582e-7
0.694, -7.098e-7, -3.574e-7, 3.524e-7
0.693, -7.095e-7, -3.598e-7, 3.497e-7
0.692, -7.074e-7, -3.580e-7, 3.494e-7
0.691, -7.061e-7, -3.580e-7, 3.481e-7
0.690, -7.043e-7, -3.598e-7, 3.445e-7
0.689, -7.043e-7, -3.583e-7, 3.460e-7
0.688, -7.009e-7, -3.589e-7, 3.420e-7
0.687, -7.031e-7, -3.601e-7, 3.429e-7
0.686, -6.997e-7, -3.580e-7, 3.417e-7
0.685, -6.991e-7, -3.583e-7, 3.408e-7
0.684, -6.964e-7, -3.595e-7, 3.368e-7
0.683, -6.967e-7, -3.574e-7, 3.393e-7
0.682, -6.939e-7, -3.598e-7, 3.341e-7
0.681, -6.967e-7, -3.607e-7, 3.359e-7
0.680, -6.930e-7, -3.589e-7, 3.341e-7
0.679, -6.930e-7, -3.595e-7, 3.335e-7
0.678, -6.945e-7, -3.607e-7, 3.338e-7
0.677, -6.897e-7, -3.577e-7, 3.320e-7
0.676, -6.909e-7, -3.598e-7, 3.310e-7
0.675, -6.912e-7, -3.595e-7, 3.317e-7
0.674, -6.875e-7, -3.580e-7, 3.295e-7
0.673, -6.897e-7, -3.611e-7, 3.286e-7
0.672, -6.881e-7, -3.601e-7, 3.280e-7
0.671, -6.845e-7, -3.577e-7, 3.268e-7
0.670, -6.878e-7, -3.601e-7, 3.277e-7
0.669, -6.884e-7, -3.601e-7, 3.283e-7
0.668, -6.832e-7, -3.577e-7, 3.256e-7
0.667, -6.854e-7, -3.617e-7, 3.237e-7
0.666, -6.872e-7, -3.601e-7, 3.271e-7
0.665, -6.814e-7, -3.583e-7, 3.231e-7
0.664, -6.845e-7, -3.604e-7, 3.240e-7
0.663, -6.854e-7, -3.607e-7, 3.246e-7
0.662, -6.811e-7, -3.589e-7, 3.222e-7
0.661, -6.829e-7, -3.604e-7, 3.225e-7
0.660, -6.829e-7, -3.617e-7, 3.213e-7
0.659, -6.823e-7, -3.607e-7, 3.216e-7
0.658, -6.845e-7, -3.626e-7, 3.219e-7
0.657, -6.796e-7, -3.598e-7, 3.198e-7
0.656, -6.799e-7, -3.626e-7, 3.173e-7
0.655, -6.820e-7, -3.607e-7, 3.213e-7
0.654, -6.802e-7, -3.623e-7, 3.179e-7
0.653, -6.817e-7, -3.635e-7, 3.182e-7
0.652, -6.811e-7, -3.620e-7, 3.191e-7
0.651, -6.811e-7, -3.620e-7, 3.191e-7
0.650, -6.802e-7, -3.629e-7, 3.173e-7
0.649, -6.790e-7, -3.611e-7, 3.179e-7
0.648, -6.787e-7, -3.635e-7, 3.152e-7
0.647, -6.802e-7, -3.635e-7, 3.167e-7
0.646, -6.802e-7, -3.635e-7, 3.167e-7
0.645, -6.805e-7, -3.641e-7, 3.164e-7
0.644, -6.808e-7, -3.650e-7, 3.158e-7
0.643, -6.784e-7, -3.629e-7, 3.155e-7
0.642, -6.781e-7, -3.641e-7, 3.140e-7
0.641, -6.802e-7, -3.656e-7, 3.146e-7
0.640, -6.775e-7, -3.623e-7, 3.152e-7
0.639, -6.768e-7, -3.638e-7, 3.130e-7
0.638, -6.808e-7, -3.659e-7, 3.149e-7
0.637, -6.756e-7, -3.626e-7, 3.130e-7
0.636, -6.778e-7, -3.653e-7, 3.124e-7
0.635, -6.775e-7, -3.644e-7, 3.130e-7
0.634, -6.753e-7, -3.647e-7, 3.106e-7
0.633, -6.768e-7, -3.659e-7, 3.109e-7
0.632, -6.799e-7, -3.656e-7, 3.143e-7
0.631, -6.759e-7, -3.653e-7, 3.106e-7
0.630, -6.775e-7, -3.668e-7, 3.106e-7
0.629, -6.768e-7, -3.650e-7, 3.118e-7
0.628, -6.750e-7, -3.668e-7, 3.082e-7
0.627, -6.765e-7, -3.675e-7, 3.091e-7
0.626, -6.762e-7, -3.650e-7, 3.112e-7
0.625, -6.744e-7, -3.668e-7, 3.076e-7
0.624, -6.781e-7, -3.693e-7, 3.088e-7
0.623, -6.756e-7, -3.650e-7, 3.106e-7
0.622, -6.735e-7, -3.668e-7, 3.066e-7
0.621, -6.762e-7, -3.678e-7, 3.085e-7
0.620, -6.741e-7, -3.662e-7, 3.079e-7
0.619, -6.759e-7, -3.690e-7, 3.069e-7
0.618, -6.778e-7, -3.687e-7, 3.091e-7
0.617, -6.747e-7, -3.675e-7, 3.072e-7
0.616, -6.747e-7, -3.690e-7, 3.057e-7
0.615, -6.756e-7, -3.690e-7, 3.066e-7
0.614, -6.762e-7, -3.687e-7, 3.076e-7
0.613, -6.741e-7, -3.687e-7, 3.054e-7
0.612, -6.741e-7, -3.696e-7, 3.045e-7
0.611, -6.741e-7, -3.681e-7, 3.060e-7
0.610, -6.762e-7, -3.702e-7, 3.060e-7
0.609, -6.741e-7, -3.684e-7, 3.057e-7
0.608, -6.738e-7, -3.684e-7, 3.054e-7
0.607, -6.735e-7, -3.687e-7, 3.048e-7
0.606, -6.726e-7, -3.687e-7, 3.039e-7
0.605, -6.720e-7, -3.702e-7, 3.018e-7
0.604, -6.744e-7, -3.693e-7, 3.051e-7
0.603, -6.744e-7, -3.702e-7, 3.042e-7
0.602, -6.744e-7, -3.714e-7, 3.030e-7
0.601, -6.738e-7, -3.705e-7, 3.033e-7
0.600, -6.741e-7, -3.690e-7, 3.051e-7
0.599, -6.750e-7, -3.714e-7, 3.036e-7
0.598, -6.729e-7, -3.693e-7, 3.036e-7
0.597, -6.720e-7, -3.708e-7, 3.011e-7
0.596, -6.720e-7, -3.714e-7, 3.005e-7
0.595, -6.735e-7, -3.705e-7, 3.030e-7
0.594, -6.717e-7, -3.705e-7, 3.011e-7
0.593, -6.738e-7, -3.730e-7, 3.008e-7
0.592, -6.741e-7, -3.730e-7, 3.011e-7
0.591, -6.753e-7, -3.726e-7, 3.027e-7
0.590, -6.753e-7, -3.733e-7, 3.021e-7
0.589, -6.753e-7, -3.708e-7, 3.045e-7
0.588, -6.713e-7, -3.726e-7, 2.987e-7
0.587, -6.759e-7, -3.736e-7, 3.024e-7
0.586, -6.747e-7, -3.736e-7, 3.011e-7
0.585, -6.759e-7, -3.748e-7, 3.011e-7
0.584, -6.768e-7, -3.742e-7, 3.027e-7
0.583, -6.753e-7, -3.733e-7, 3.021e-7
0.582, -6.765e-7, -3.766e-7, 2.999e-7
0.581, -6.790e-7, -3.751e-7, 3.039e-7
0.580, -6.726e-7, -3.736e-7, 2.990e-7
0.579, -6.778e-7, -3.775e-7, 3.002e-7
0.578, -6.784e-7, -3.757e-7, 3.027e-7
0.577, -6.762e-7, -3.757e-7, 3.005e-7
0.576, -6.793e-7, -3.784e-7, 3.008e-7
0.575, -6.790e-7, -3.775e-7, 3.014e-7
0.574, -6.775e-7, -3.769e-7, 3.005e-7
0.573, -6.781e-7, -3.794e-7, 2.987e-7
0.572, -6.778e-7, -3.760e-7, 3.018e-7
0.571, -6.793e-7, -3.781e-7, 3.011e-7
0.570, -6.799e-7, -3.788e-7, 3.011e-7
0.569, -6.796e-7, -3.784e-7, 3.011e-7
0.568, -6.820e-7, -3.803e-7, 3.018e-7
0.567, -6.802e-7, -3.800e-7, 3.002e-7
0.566, -6.811e-7, -3.800e-7, 3.011e-7
0.565, -6.814e-7, -3.809e-7, 3.005e-7
0.564, -6.817e-7, -3.803e-7, 3.014e-7
0.563, -6.802e-7, -3.794e-7, 3.008e-7
0.562, -6.854e-7, -3.836e-7, 3.018e-7
0.561, -6.829e-7, -3.812e-7, 3.018e-7
0.560, -6.836e-7, -3.824e-7, 3.011e-7
0.559, -6.848e-7, -3.833e-7, 3.014e-7
0.558, -6.854e-7, -3.827e-7, 3.027e-7
0.557, -6.863e-7, -3.836e-7, 3.027e-7
0.556, -6.884e-7, -3.861e-7, 3.024e-7
0.555, -6.875e-7, -3.849e-7, 3.027e-7
0.554, -6.869e-7, -3.845e-7, 3.024e-7
0.553, -6.869e-7, -3.852e-7, 3.018e-7
0.552, -6.869e-7, -3.839e-7, 3.030e-7
0.551, -6.863e-7, -3.849e-7, 3.014e-7
0.550, -6.897e-7, -3.858e-7, 3.039e-7
0.549, -6.900e-7, -3.861e-7, 3.039e-7
0.548, -6.906e-7, -3.879e-7, 3.027e-7
0.547, -6.909e-7, -3.879e-7, 3.030e-7
0.546, -6.881e-7, -3.864e-7, 3.018e-7
0.545, -6.894e-7, -3.888e-7, 3.005e-7
0.544, -6.909e-7, -3.876e-7, 3.033e-7
0.543, -6.890e-7, -3.879e-7, 3.011e-7
0.542, -6.918e-7, -3.907e-7, 3.011e-7
0.541, -6.903e-7, -3.879e-7, 3.024e-7
0.540, -6.912e-7, -3.894e-7, 3.018e-7
0.539, -6.942e-7, -3.910e-7, 3.033e-7
0.538, -6.909e-7, -3.888e-7, 3.021e-7
0.537, -6.918e-7, -3.903e-7, 3.014e-7
0.536, -6.933e-7, -3.919e-7, 3.014e-7
0.535, -6.939e-7, -3.913e-7, 3.027e-7
0.534, -6.927e-7, -3.925e-7, 3.002e-7
0.533, -6.955e-7, -3.931e-7, 3.024e-7
0.532, -6.945e-7, -3.916e-7, 3.030e-7
0.531, -6.948e-7, -3.931e-7, 3.018e-7
0.530, -6.964e-7, -3.940e-7, 3.024e-7
0.529, -6.942e-7, -3.916e-7, 3.027e-7
0.528, -6.970e-7, -3.946e-7, 3.024e-7
0.527, -6.970e-7, -3.946e-7, 3.024e-7
0.526, -6.967e-7, -3.934e-7, 3.033e-7
0.525, -6.973e-7, -3.946e-7, 3.027e-7
0.524, -6.976e-7, -3.958e-7, 3.018e-7
0.523, -6.982e-7, -3.952e-7, 3.030e-7
0.522, -6.970e-7, -3.955e-7, 3.014e-7
0.521, -6.982e-7, -3.955e-7, 3.027e-7
0.520, -6.991e-7, -3.965e-7, 3.027e-7
0.519, -6.979e-7, -3.968e-7, 3.011e-7
0.518, -7.016e-7, -3.980e-7, 3.036e-7
0.517, -6.979e-7, -3.968e-7, 3.011e-7
0.516, -7.000e-7, -3.977e-7, 3.024e-7
0.515, -7.016e-7, -3.986e-7, 3.030e-7
0.514, -6.991e-7, -3.977e-7, 3.014e-7
0.513, -7.003e-7, -3.980e-7, 3.024e-7
0.512, -7.009e-7, -3.986e-7, 3.024e-7
0.511, -7.013e-7, -3.998e-7, 3.014e-7
0.510, -7.040e-7, -4.007e-7, 3.033e-7
0.509, -7.028e-7, -3.998e-7, 3.030e-7
0.508, -7.022e-7, -4.001e-7, 3.021e-7
0.507, -7.046e-7, -4.013e-7, 3.033e-7
0.506, -7.034e-7, -4.004e-7, 3.030e-7
0.505, -7.037e-7, -4.010e-7, 3.027e-7
0.504, -7.071e-7, -4.019e-7, 3.051e-7
0.503, -7.046e-7, -4.026e-7, 3.021e-7
0.502, -7.061e-7, -4.035e-7, 3.027e-7
0.501, -7.071e-7, -4.032e-7, 3.039e-7
0.500, -7.061e-7, -4.035e-7, 3.027e-7
0.499, -7.074e-7, -4.050e-7, 3.024e-7
0.498, -7.098e-7, -4.059e-7, 3.039e-7
0.497, -7.107e-7, -4.062e-7, 3.045e-7
0.496, -7.107e-7, -4.062e-7, 3.045e-7
0.495, -7.110e-7, -4.065e-7, 3.045e-7
0.494, -7.104e-7, -4.080e-7, 3.024e-7
0.493, -7.122e-7, -4.068e-7, 3.054e-7
0.492, -7.107e-7, -4.071e-7, 3.036e-7
0.491, -7.141e-7, -4.096e-7, 3.045e-7
0.490, -7.159e-7, -4.099e-7, 3.060e-7
0.489, -7.119e-7, -4.087e-7, 3.033e-7
0.488, -7.138e-7, -4.108e-7, 3.030e-7
0.487, -7.153e-7, -4.099e-7, 3.054e-7
0.486, -7.147e-7, -4.087e-7, 3.060e-7
0.485, -7.156e-7, -4.129e-7, 3.027e-7
0.484, -7.183e-7, -4.117e-7, 3.066e-7
0.483, -7.180e-7, -4.117e-7, 3.063e-7
0.482, -7.171e-7, -4.138e-7, 3.033e-7
0.481, -7.202e-7, -4.129e-7, 3.072e-7
0.480, -7.196e-7, -4.132e-7, 3.063e-7
0.479, -7.186e-7, -4.138e-7, 3.048e-7
0.478, -7.220e-7, -4.145e-7, 3.075e-7
0.477, -7.232e-7, -4.160e-7, 3.072e-7
0.476, -7.235e-7, -4.160e-7, 3.075e-7
0.475, -7.226e-7, -4.154e-7, 3.072e-7
0.474, -7.260e-7, -4.187e-7, 3.072e-7
0.473, -7.257e-7, -4.172e-7, 3.085e-7
0.472, -7.254e-7, -4.178e-7, 3.075e-7
0.471, -7.278e-7, -4.199e-7, 3.079e-7
0.470, -7.293e-7, -4.190e-7, 3.103e-7
0.469, -7.278e-7, -4.193e-7, 3.085e-7
0.468, -7.305e-7, -4.215e-7, 3.091e-7
0.467, -7.305e-7, -4.206e-7, 3.100e-7
0.466, -7.309e-7, -4.212e-7, 3.097e-7
0.465, -7.305e-7, -4.221e-7, 3.085e-7
0.464, -7.318e-7, -4.221e-7, 3.097e-7
0.463, -7.321e-7, -4.230e-7, 3.091e-7
0.462, -7.345e-7, -4.248e-7, 3.097e-7
0.461, -7.336e-7, -4.242e-7, 3.094e-7
0.460, -7.330e-7, -4.245e-7, 3.085e-7
0.459, -7.379e-7, -4.264e-7, 3.115e-7
0.458, -7.348e-7, -4.239e-7, 3.109e-7
0.457, -7.373e-7, -4.273e-7, 3.100e-7
0.456, -7.397e-7, -4.273e-7, 3.124e-7
0.455, -7.391e-7, -4.267e-7, 3.124e-7
0.454, -7.385e-7, -4.285e-7, 3.100e-7
0.453, -7.421e-7, -4.288e-7, 3.133e-7
0.452, -7.400e-7, -4.279e-7, 3.121e-7
0.451, -7.418e-7, -4.303e-7, 3.115e-7
0.450, -7.425e-7, -4.297e-7, 3.127e-7
0.449, -7.412e-7, -4.294e-7, 3.118e-7
0.448, -7.434e-7, -4.325e-7, 3.109e-7
0.447, -7.458e-7, -4.315e-7, 3.143e-7
0.446, -7.437e-7, -4.315e-7, 3.121e-7
0.445, -7.476e-7, -4.346e-7, 3.130e-7
0.444, -7.464e-7, -4.318e-7, 3.146e-7
0.443, -7.479e-7, -4.340e-7, 3.140e-7
0.442, -7.482e-7, -4.349e-7, 3.133e-7
0.441, -7.498e-7, -4.340e-7, 3.158e-7
0.440, -7.498e-7, -4.364e-7, 3.133e-7
0.439, -7.504e-7, -4.361e-7, 3.143e-7
0.438, -7.513e-7, -4.352e-7, 3.161e-7
0.437, -7.498e-7, -4.373e-7, 3.124e-7
0.436, -7.537e-7, -4.392e-7, 3.146e-7
0.435, -7.528e-7, -4.373e-7, 3.155e-7
0.434, -7.516e-7, -4.389e-7, 3.127e-7
0.433, -7.537e-7, -4.392e-7, 3.146e-7
0.432, -7.556e-7, -4.392e-7, 3.164e-7
0.431, -7.547e-7, -4.401e-7, 3.146e-7
0.430, -7.565e-7, -4.407e-7, 3.158e-7
0.429, -7.580e-7, -4.413e-7, 3.167e-7
0.428, -7.556e-7, -4.404e-7, 3.152e-7
0.427, -7.589e-7, -4.413e-7, 3.176e-7
0.426, -7.574e-7, -4.428e-7, 3.146e-7
0.425, -7.586e-7, -4.434e-7, 3.152e-7
0.424, -7.614e-7, -4.447e-7, 3.167e-7
0.423, -7.595e-7, -4.438e-7, 3.158e-7
0.422, -7.614e-7, -4.447e-7, 3.167e-7
0.421, -7.626e-7, -4.450e-7, 3.176e-7
0.420, -7.608e-7, -4.444e-7, 3.164e-7
0.419, -7.632e-7, -4.459e-7, 3.173e-7
0.418, -7.644e-7, -4.468e-7, 3.176e-7
0.417, -7.635e-7, -4.468e-7, 3.167e-7
0.416, -7.669e-7, -4.477e-7, 3.191e-7
0.415, -7.656e-7, -4.477e-7, 3.179e-7
0.414, -7.681e-7, -4.511e-7, 3.170e-7
0.413, -7.711e-7, -4.499e-7, 3.213e-7
0.412, -7.681e-7, -4.502e-7, 3.179e-7
0.411, -7.699e-7, -4.517e-7, 3.182e-7
0.410, -7.717e-7, -4.505e-7, 3.213e-7
0.409, -7.708e-7, -4.508e-7, 3.201e-7
0.408, -7.733e-7, -4.535e-7, 3.198e-7
0.407, -7.739e-7, -4.532e-7, 3.207e-7
0.406, -7.760e-7, -4.550e-7, 3.210e-7
0.405, -7.782e-7, -4.563e-7, 3.219e-7
0.404, -7.766e-7, -4.560e-7, 3.207e-7
0.403, -7.763e-7, -4.566e-7, 3.198e-7
0.402, -7.800e-7, -4.572e-7, 3.228e-7
0.401, -7.785e-7, -4.569e-7, 3.216e-7
0.400, -7.821e-7, -4.593e-7, 3.228e-7
0.399, -7.824e-7, -4.584e-7, 3.240e-7
0.398, -7.791e-7, -4.575e-7, 3.216e-7
0.397, -7.836e-7, -4.615e-7, 3.222e-7
0.396, -7.846e-7, -4.596e-7, 3.249e-7
0.395, -7.833e-7, -4.590e-7, 3.243e-7
0.394, -7.858e-7, -4.627e-7, 3.231e-7
0.393, -7.891e-7, -4.621e-7, 3.271e-7
0.392, -7.873e-7, -4.624e-7, 3.249e-7
0.391, -7.891e-7, -4.648e-7, 3.243e-7
0.390, -7.925e-7, -4.660e-7, 3.265e-7
0.389, -7.897e-7, -4.645e-7, 3.252e-7
0.388, -7.913e-7, -4.669e-7, 3.243e-7
0.387, -7.925e-7, -4.657e-7, 3.268e-7
0.386, -7.943e-7, -4.679e-7, 3.265e-7
0.385, -7.949e-7, -4.682e-7, 3.268e-7
0.384, -7.962e-7, -4.672e-7, 3.289e-7
0.383, -7.983e-7, -4.700e-7, 3.283e-7
0.382, -7.986e-7, -4.706e-7, 3.280e-7
0.381, -8.004e-7, -4.721e-7, 3.283e-7
0.380, -8.010e-7, -4.718e-7, 3.292e-7
0.379, -8.013e-7, -4.715e-7, 3.298e-7
0.378, -8.041e-7, -4.746e-7, 3.295e-7
0.377, -8.038e-7, -4.743e-7, 3.295e-7
0.376, -8.062e-7, -4.749e-7, 3.314e-7
0.375, -8.053e-7, -4.758e-7, 3.295e-7
0.374, -8.102e-7, -4.785e-7, 3.317e-7
0.373, -8.071e-7, -4.758e-7, 3.314e-7
0.372, -8.090e-7, -4.773e-7, 3.317e-7
0.371, -8.132e-7, -4.798e-7, 3.335e-7
0.370, -8.105e-7, -4.779e-7, 3.326e-7
0.369, -8.132e-7, -4.804e-7, 3.329e-7
0.368, -8.139e-7, -4.810e-7, 3.329e-7
0.367, -8.154e-7, -4.795e-7, 3.359e-7
0.366, -8.163e-7, -4.825e-7, 3.338e-7
0.365, -8.178e-7, -4.816e-7, 3.362e-7
0.364, -8.181e-7, -4.822e-7, 3.359e-7
0.363, -8.184e-7, -4.853e-7, 3.332e-7
0.362, -8.215e-7, -4.849e-7, 3.365e-7
0.361, -8.190e-7, -4.834e-7, 3.356e-7
0.360, -8.224e-7, -4.862e-7, 3.362e-7
0.359, -8.248e-7, -4.868e-7, 3.381e-7
0.358, -8.227e-7, -4.868e-7, 3.359e-7
0.357, -8.251e-7, -4.892e-7, 3.359e-7
0.356, -8.285e-7, -4.886e-7, 3.399e-7
0.355, -8.255e-7, -4.895e-7, 3.359e-7
0.354, -8.313e-7, -4.926e-7, 3.387e-7
0.353, -8.316e-7, -4.911e-7, 3.405e-7
0.352, -8.285e-7, -4.917e-7, 3.368e-7
0.351, -8.316e-7, -4.929e-7, 3.387e-7
0.350, -8.328e-7, -4.923e-7, 3.405e-7
0.349, -8.337e-7, -4.947e-7, 3.390e-7
0.348, -8.374e-7, -4.965e-7, 3.408e-7
0.347, -8.358e-7, -4.944e-7, 3.414e-7
0.346, -8.370e-7, -4.965e-7, 3.405e-7
0.345, -8.386e-7, -4.978e-7, 3.408e-7
0.344, -8.404e-7, -4.972e-7, 3.433e-7
0.343, -8.398e-7, -4.984e-7, 3.414e-7
0.342, -8.435e-7, -4.996e-7, 3.439e-7
0.341, -8.425e-7, -4.993e-7, 3.433e-7
0.340, -8.435e-7, -5.017e-7, 3.417e-7
0.339, -8.453e-7, -5.014e-7, 3.439e-7
0.338, -8.438e-7, -5.005e-7, 3.433e-7
0.337, -8.468e-7, -5.014e-7, 3.454e-7
0.336, -8.480e-7, -5.026e-7, 3.454e-7
0.335, -8.496e-7, -5.054e-7, 3.442e-7
0.334, -8.520e-7, -5.057e-7, 3.463e-7
0.333, -8.538e-7, -5.069e-7, 3.469e-7
0.332, -8.523e-7, -5.069e-7, 3.454e-7
0.331, -8.541e-7, -5.066e-7, 3.475e-7
0.330, -8.532e-7, -5.069e-7, 3.463e-7
0.329, -8.554e-7, -5.081e-7, 3.472e-7
0.328, -8.566e-7, -5.094e-7, 3.472e-7
0.327, -8.578e-7, -5.100e-7, 3.478e-7
0.326, -8.590e-7, -5.109e-7, 3.481e-7
0.325, -8.605e-7, -5.112e-7, 3.494e-7
0.324, -8.609e-7, -5.121e-7, 3.487e-7
0.323, -8.639e-7, -5.149e-7, 3.490e-7
0.322, -8.654e-7, -5.145e-7, 3.509e-7
0.321, -8.654e-7, -5.149e-7, 3.506e-7
0.320, -8.657e-7, -5.161e-7, 3.497e-7
0.319, -8.666e-7, -5.149e-7, 3.518e-7
0.318, -8.651e-7, -5.152e-7, 3.500e-7
0.317, -8.715e-7, -5.188e-7, 3.527e-7
0.316, -8.712e-7, -5.182e-7, 3.530e-7
0.315, -8.724e-7, -5.200e-7, 3.524e-7
0.314, -8.755e-7, -5.216e-7, 3.539e-7
0.313, -8.755e-7, -5.219e-7, 3.536e-7
0.312, -8.746e-7, -5.228e-7, 3.518e-7
0.311, -8.789e-7, -5.228e-7, 3.561e-7
0.310, -8.792e-7, -5.228e-7, 3.564e-7
0.309, -8.801e-7, -5.264e-7, 3.536e-7
0.308, -8.813e-7, -5.255e-7, 3.558e-7
0.307, -8.798e-7, -5.243e-7, 3.555e-7
0.306, -8.847e-7, -5.295e-7, 3.552e-7
0.305, -8.868e-7, -5.283e-7, 3.585e-7
0.304, -8.850e-7, -5.283e-7, 3.567e-7
0.303, -8.886e-7, -5.313e-7, 3.573e-7
0.302, -8.920e-7, -5.319e-7, 3.600e-7
0.301, -8.914e-7, -5.310e-7, 3.603e-7
0.300, -8.932e-7, -5.338e-7, 3.594e-7
0.299, -8.956e-7, -5.335e-7, 3.622e-7
0.298, -8.944e-7, -5.341e-7, 3.603e-7
0.297, -8.981e-7, -5.362e-7, 3.619e-7
0.296, -8.996e-7, -5.362e-7, 3.634e-7
0.295, -9.005e-7, -5.387e-7, 3.619e-7
0.294, -9.027e-7, -5.380e-7, 3.646e-7
0.293, -9.045e-7, -5.408e-7, 3.637e-7
0.292, -9.051e-7, -5.411e-7, 3.640e-7
0.291, -9.082e-7, -5.435e-7, 3.646e-7
0.290, -9.097e-7, -5.426e-7, 3.671e-7
0.289, -9.118e-7, -5.448e-7, 3.671e-7
0.288, -9.136e-7, -5.463e-7, 3.674e-7
0.287, -9.139e-7, -5.460e-7, 3.680e-7
0.286, -9.164e-7, -5.475e-7, 3.689e-7
0.285, -9.170e-7, -5.478e-7, 3.692e-7
0.284, -9.167e-7, -5.493e-7, 3.674e-7
0.283, -9.213e-7, -5.515e-7, 3.698e-7
0.282, -9.222e-7, -5.518e-7, 3.704e-7
0.281, -9.234e-7, -5.524e-7, 3.710e-7
0.280, -9.271e-7, -5.545e-7, 3.725e-7
0.279, -9.280e-7, -5.554e-7, 3.725e-7
0.278, -9.286e-7, -5.557e-7, 3.729e-7
0.277, -9.307e-7, -5.570e-7, 3.738e-7
0.276, -9.316e-7, -5.576e-7, 3.741e-7
0.275, -9.353e-7, -5.606e-7, 3.747e-7
0.274, -9.359e-7, -5.609e-7, 3.750e-7
0.273, -9.353e-7, -5.600e-7, 3.753e-7
0.272, -9.371e-7, -5.625e-7, 3.747e-7
0.271, -9.402e-7, -5.634e-7, 3.768e-7
0.270, -9.432e-7, -5.640e-7, 3.793e-7
0.269, -9.442e-7, -5.655e-7, 3.786e-7
0.268, -9.448e-7, -5.652e-7, 3.796e-7
0.267, -9.448e-7, -5.667e-7, 3.780e-7
0.266, -9.469e-7, -5.680e-7, 3.790e-7
0.265, -9.493e-7, -5.676e-7, 3.817e-7
0.264, -9.515e-7, -5.719e-7, 3.796e-7
0.263, -9.545e-7, -5.728e-7, 3.817e-7
0.262, -9.561e-7, -5.728e-7, 3.832e-7
0.261, -9.545e-7, -5.737e-7, 3.808e-7
0.260, -9.600e-7, -5.762e-7, 3.838e-7
0.259, -9.591e-7, -5.744e-7, 3.848e-7
0.258, -9.582e-7, -5.762e-7, 3.820e-7
0.257, -9.640e-7, -5.795e-7, 3.844e-7
0.256, -9.643e-7, -5.780e-7, 3.863e-7
0.255, -9.640e-7, -5.802e-7, 3.838e-7
0.254, -9.695e-7, -5.820e-7, 3.875e-7
0.253, -9.704e-7, -5.820e-7, 3.884e-7
0.252, -9.698e-7, -5.844e-7, 3.854e-7
0.251, -9.728e-7, -5.844e-7, 3.884e-7
0.250, -9.725e-7, -5.847e-7, 3.878e-7
0.249, -9.762e-7, -5.878e-7, 3.884e-7
0.248, -9.796e-7, -5.890e-7, 3.906e-7
0.247, -9.771e-7, -5.881e-7, 3.890e-7
0.246, -9.832e-7, -5.918e-7, 3.915e-7
0.245, -9.844e-7, -5.921e-7, 3.924e-7
0.244, -9.847e-7, -5.927e-7, 3.921e-7
0.243, -9.869e-7, -5.945e-7, 3.924e-7
0.242, -9.875e-7, -5.945e-7, 3.930e-7
0.241, -9.896e-7, -5.966e-7, 3.930e-7
0.240, -9.930e-7, -5.976e-7, 3.954e-7
0.239, -9.936e-7, -5.972e-7, 3.963e-7
0.238, -9.957e-7, -5.994e-7, 3.963e-7
0.237, -9.976e-7, -6.009e-7, 3.967e-7
0.236, -9.997e-7, -6.015e-7, 3.982e-7
0.235, -1.002e-6, -6.040e-7, 3.985e-7
0.234, -1.003e-6, -6.046e-7, 3.988e-7
0.233, -1.003e-6, -6.040e-7, 3.994e-7
0.232, -1.008e-6, -6.070e-7, 4.006e-7
0.231, -1.011e-6, -6.091e-7, 4.018e-7
0.230, -1.010e-6, -6.079e-7, 4.018e-7
0.229, -1.014e-6, -6.107e-7, 4.034e-7
0.228, -1.015e-6, -6.119e-7, 4.028e-7
0.227, -1.017e-6, -6.125e-7, 4.043e-7
0.226, -1.019e-6, -6.149e-7, 4.037e-7
0.225, -1.021e-6, -6.143e-7, 4.070e-7
0.224, -1.024e-6, -6.183e-7, 4.061e-7
0.223, -1.025e-6, -6.186e-7, 4.061e-7
0.222, -1.026e-6, -6.174e-7, 4.086e-7
0.221, -1.030e-6, -6.217e-7, 4.086e-7
0.220, -1.032e-6, -6.210e-7, 4.107e-7
0.219, -1.032e-6, -6.226e-7, 4.098e-7
0.218, -1.035e-6, -6.250e-7, 4.101e-7
0.217, -1.038e-6, -6.256e-7, 4.128e-7
0.216, -1.039e-6, -6.256e-7, 4.137e-7
0.215, -1.042e-6, -6.308e-7, 4.116e-7
0.214, -1.048e-6, -6.317e-7, 4.159e-7
0.213, -1.045e-6, -6.299e-7, 4.147e-7
0.212, -1.049e-6, -6.339e-7, 4.150e-7
0.211, -1.052e-6, -6.339e-7, 4.186e-7
0.210, -1.053e-6, -6.348e-7, 4.183e-7
0.209, -1.054e-6, -6.378e-7, 4.165e-7
0.208, -1.059e-6, -6.381e-7, 4.208e-7
0.207, -1.058e-6, -6.381e-7, 4.202e-7
0.206, -1.063e-6, -6.418e-7, 4.211e-7
0.205, -1.064e-6, -6.412e-7, 4.226e-7
0.204, -1.067e-6, -6.424e-7, 4.247e-7
0.203, -1.072e-6, -6.461e-7, 4.256e-7
0.202, -1.073e-6, -6.467e-7, 4.266e-7
0.201, -1.074e-6, -6.476e-7, 4.259e-7
0.200, -1.077e-6, -6.494e-7, 4.275e-7
0.199, -1.077e-6, -6.494e-7, 4.272e-7
0.198, -1.082e-6, -6.528e-7, 4.290e-7
0.197, -1.084e-6, -6.540e-7, 4.296e-7
0.196, -1.086e-6, -6.543e-7, 4.314e-7
0.195, -1.089e-6, -6.568e-7, 4.324e-7
0.194, -1.093e-6, -6.583e-7, 4.351e-7
0.193, -1.092e-6, -6.592e-7, 4.333e-7
0.192, -1.094e-6, -6.610e-7, 4.330e-7
0.191, -1.098e-6, -6.613e-7, 4.366e-7
0.190, -1.100e-6, -6.632e-7, 4.369e-7
0.189, -1.105e-6, -6.659e-7, 4.394e-7
0.188, -1.104e-6, -6.653e-7, 4.391e-7
0.187, -1.105e-6, -6.671e-7, 4.378e-7
0.186, -1.109e-6, -6.693e-7, 4.400e-7
0.185, -1.111e-6, -6.687e-7, 4.427e-7
0.184, -1.113e-6, -6.720e-7, 4.412e-7
0.183, -1.117e-6, -6.735e-7, 4.440e-7
0.182, -1.118e-6, -6.738e-7, 4.440e-7
0.181, -1.121e-6, -6.760e-7, 4.449e-7
0.180, -1.125e-6, -6.775e-7, 4.470e-7
0.179, -1.126e-6, -6.781e-7, 4.476e-7
0.178, -1.127e-6, -6.809e-7, 4.461e-7
0.177, -1.131e-6, -6.815e-7, 4.494e-7
0.176, -1.134e-6, -6.839e-7, 4.501e-7
0.175, -1.135e-6, -6.848e-7, 4.507e-7
0.174, -1.139e-6, -6.848e-7, 4.540e-7
0.173, -1.138e-6, -6.867e-7, 4.516e-7
0.172, -1.143e-6, -6.891e-7, 4.540e-7
0.171, -1.144e-6, -6.870e-7, 4.568e-7
0.170, -1.145e-6, -6.906e-7, 4.540e-7
0.169, -1.150e-6, -6.922e-7, 4.577e-7
0.168, -1.152e-6, -6.928e-7, 4.589e-7
0.167, -1.151e-6, -6.934e-7, 4.580e-7
0.166, -1.154e-6, -6.961e-7, 4.580e-7
0.165, -1.158e-6, -6.955e-7, 4.626e-7
0.164, -1.158e-6, -6.976e-7, 4.604e-7
0.163, -1.162e-6, -6.998e-7, 4.623e-7
0.162, -1.164e-6, -7.007e-7, 4.638e-7
0.161, -1.163e-6, -7.019e-7, 4.613e-7
0.160, -1.170e-6, -7.031e-7, 4.668e-7
0.159, -1.169e-6, -7.037e-7, 4.656e-7
0.158, -1.173e-6, -7.056e-7, 4.674e-7
0.157, -1.178e-6, -7.071e-7, 4.705e-7
0.156, -1.175e-6, -7.071e-7, 4.684e-7
0.155, -1.178e-6, -7.089e-7, 4.690e-7
0.154, -1.179e-6, -7.089e-7, 4.705e-7
0.153, -1.182e-6, -7.108e-7, 4.714e-7
0.152, -1.184e-6, -7.117e-7, 4.723e-7
0.151, -1.188e-6, -7.126e-7, 4.754e-7
0.150, -1.189e-6, -7.147e-7, 4.742e-7
0.149, -1.192e-6, -7.163e-7, 4.754e-7
0.148, -1.194e-6, -7.172e-7, 4.769e-7
0.147, -1.194e-6, -7.178e-7, 4.763e-7
0.146, -1.197e-6, -7.184e-7, 4.781e-7
0.145, -1.198e-6, -7.193e-7, 4.784e-7
0.144, -1.199e-6, -7.208e-7, 4.778e-7
0.143, -1.206e-6, -7.239e-7, 4.821e-7
0.142, -1.206e-6, -7.224e-7, 4.839e-7
0.141, -1.208e-6, -7.254e-7, 4.821e-7
0.140, -1.210e-6, -7.254e-7, 4.845e-7
0.139, -1.212e-6, -7.263e-7, 4.855e-7
0.138, -1.215e-6, -7.294e-7, 4.861e-7
0.137, -1.215e-6, -7.279e-7, 4.876e-7
0.136, -1.218e-6, -7.297e-7, 4.888e-7
0.135, -1.220e-6, -7.315e-7, 4.882e-7
0.134, -1.224e-6, -7.327e-7, 4.916e-7
0.133, -1.223e-6, -7.337e-7, 4.897e-7
0.132, -1.227e-6, -7.349e-7, 4.922e-7
0.131, -1.229e-6, -7.340e-7, 4.946e-7
0.130, -1.229e-6, -7.364e-7, 4.925e-7
0.129, -1.235e-6, -7.382e-7, 4.970e-7
0.128, -1.236e-6, -7.382e-7, 4.974e-7
0.127, -1.234e-6, -7.398e-7, 4.946e-7
0.126, -1.242e-6, -7.416e-7, 5.001e-7
0.125, -1.242e-6, -7.419e-7, 4.998e-7
0.124, -1.242e-6, -7.434e-7, 4.989e-7
0.123, -1.244e-6, -7.425e-7, 5.013e-7
0.122, -1.247e-6, -7.437e-7, 5.028e-7
0.121, -1.250e-6, -7.468e-7, 5.032e-7
0.120, -1.253e-6, -7.468e-7, 5.059e-7
0.119, -1.251e-6, -7.459e-7, 5.056e-7
0.118, -1.255e-6, -7.489e-7, 5.056e-7
0.117, -1.259e-6, -7.498e-7, 5.096e-7
0.116, -1.257e-6, -7.498e-7, 5.074e-7
0.115, -1.263e-6, -7.526e-7, 5.105e-7
0.114, -1.262e-6, -7.523e-7, 5.099e-7
0.113, -1.266e-6, -7.538e-7, 5.120e-7
0.112, -1.267e-6, -7.550e-7, 5.123e-7
0.111, -1.269e-6, -7.559e-7, 5.135e-7
0.110, -1.270e-6, -7.559e-7, 5.144e-7
0.109, -1.274e-6, -7.584e-7, 5.154e-7
0.108, -1.277e-6, -7.596e-7, 5.178e-7
0.107, -1.278e-6, -7.599e-7, 5.178e-7
0.106, -1.277e-6, -7.590e-7, 5.184e-7
0.105, -1.282e-6, -7.617e-7, 5.199e-7
0.104, -1.282e-6, -7.614e-7, 5.209e-7
0.103, -1.285e-6, -7.617e-7, 5.230e-7
0.102, -1.284e-6, -7.623e-7, 5.218e-7
0.101, -1.290e-6, -7.648e-7, 5.248e-7
0.100, -1.293e-6, -7.657e-7, 5.270e-7
0.099, -1.290e-6, -7.660e-7, 5.242e-7
0.098, -1.294e-6, -7.678e-7, 5.266e-7
0.097, -1.295e-6, -7.666e-7, 5.285e-7
0.096, -1.296e-6, -7.672e-7, 5.288e-7
0.095, -1.298e-6, -7.687e-7, 5.294e-7
0.094, -1.300e-6, -7.687e-7, 5.312e-7
0.093, -1.300e-6, -7.700e-7, 5.303e-7
0.092, -1.303e-6, -7.706e-7, 5.324e-7
0.091, -1.302e-6, -7.697e-7, 5.328e-7
0.090, -1.305e-6, -7.718e-7, 5.337e-7
0.089, -1.308e-6, -7.724e-7, 5.355e-7
0.088, -1.307e-6, -7.718e-7, 5.352e-7
0.087, -1.316e-6, -7.736e-7, 5.422e-7
0.086, -1.314e-6, -7.742e-7, 5.398e-7
0.085, -1.312e-6, -7.736e-7, 5.382e-7
0.084, -1.315e-6, -7.758e-7, 5.392e-7
0.083, -1.315e-6, -7.742e-7, 5.410e-7
0.082, -1.314e-6, -7.748e-7, 5.395e-7
0.081, -1.318e-6, -7.764e-7, 5.416e-7
0.080, -1.318e-6, -7.748e-7, 5.431e-7
0.079, -1.319e-6, -7.767e-7, 5.425e-7
0.078, -1.320e-6, -7.764e-7, 5.434e-7
0.077, -1.323e-6, -7.764e-7, 5.462e-7
0.076, -1.320e-6, -7.764e-7, 5.434e-7
0.075, -1.324e-6, -7.767e-7, 5.471e-7
0.074, -1.325e-6, -7.767e-7, 5.483e-7
0.073, -1.324e-6, -7.779e-7, 5.459e-7
0.072, -1.327e-6, -7.788e-7, 5.480e-7
0.071, -1.329e-6, -7.785e-7, 5.501e-7
0.070, -1.328e-6, -7.779e-7, 5.505e-7
0.069, -1.330e-6, -7.800e-7, 5.505e-7
0.068, -1.329e-6, -7.785e-7, 5.505e-7
0.067, -1.331e-6, -7.791e-7, 5.520e-7
0.066, -1.333e-6, -7.800e-7, 5.526e-7
0.065, -1.331e-6, -7.788e-7, 5.526e-7
0.064, -1.333e-6, -7.797e-7, 5.529e-7
0.063, -1.333e-6, -7.791e-7, 5.541e-7
0.062, -1.333e-6, -7.791e-7, 5.541e-7
0.061, -1.335e-6, -7.800e-7, 5.553e-7
0.060, -1.335e-6, -7.782e-7, 5.572e-7
0.059, -1.335e-6, -7.782e-7, 5.569e-7
0.058, -1.338e-6, -7.806e-7, 5.575e-7
0.057, -1.337e-6, -7.785e-7, 5.584e-7
0.056, -1.338e-6, -7.791e-7, 5.584e-7
0.055, -1.338e-6, -7.788e-7, 5.593e-7
0.054, -1.337e-6, -7.791e-7, 5.581e-7
0.053, -1.338e-6, -7.785e-7, 5.593e-7
0.052, -1.339e-6, -7.782e-7, 5.608e-7
0.051, -1.339e-6, -7.779e-7, 5.611e-7
0.050, -1.338e-6, -7.782e-7, 5.596e-7
0.049, -1.341e-6, -7.782e-7, 5.624e-7
0.048, -1.338e-6, -7.773e-7, 5.608e-7
0.047, -1.341e-6, -7.788e-7, 5.624e-7
0.046, -1.342e-6, -7.779e-7, 5.639e-7
0.045, -1.340e-6, -7.764e-7, 5.633e-7
0.044, -1.342e-6, -7.779e-7, 5.639e-7
0.043, -1.340e-6, -7.749e-7, 5.654e-7
0.042, -1.341e-6, -7.773e-7, 5.633e-7
0.041, -1.341e-6, -7.758e-7, 5.651e-7
0.040, -1.340e-6, -7.733e-7, 5.669e-7
0.039, -1.341e-6, -7.755e-7, 5.660e-7
0.038, -1.343e-6, -7.749e-7, 5.678e-7
0.037, -1.342e-6, -7.739e-7, 5.678e-7
0.036, -1.343e-6, -7.755e-7, 5.675e-7
0.035, -1.344e-6, -7.736e-7, 5.703e-7
0.034, -1.341e-6, -7.721e-7, 5.685e-7
0.033, -1.340e-6, -7.733e-7, 5.669e-7
0.032, -1.342e-6, -7.721e-7, 5.703e-7
0.031, -1.343e-6, -7.718e-7, 5.712e-7
0.030, -1.341e-6, -7.721e-7, 5.691e-7
0.029, -1.344e-6, -7.709e-7, 5.727e-7
0.028, -1.341e-6, -7.700e-7, 5.709e-7
0.027, -1.340e-6, -7.706e-7, 5.694e-7
0.026, -1.340e-6, -7.681e-7, 5.721e-7
0.025, -1.338e-6, -7.663e-7, 5.715e-7
0.024, -1.341e-6, -7.687e-7, 5.724e-7
0.023, -1.342e-6, -7.672e-7, 5.746e-7
0.022, -1.340e-6, -7.669e-7, 5.727e-7
0.021, -1.338e-6, -7.666e-7, 5.718e-7
0.020, -1.340e-6, -7.669e-7, 5.733e-7
0.019, -1.338e-6, -7.629e-7, 5.749e-7
0.018, -1.337e-6, -7.645e-7, 5.724e-7
0.017, -1.337e-6, -7.626e-7, 5.743e-7
0.016, -1.338e-6, -7.639e-7, 5.739e-7
0.015, -1.336e-6, -7.611e-7, 5.752e-7
0.014, -1.336e-6, -7.623e-7, 5.736e-7
0.013, -1.336e-6, -7.614e-7, 5.743e-7
0.012, -1.336e-6, -7.590e-7, 5.770e-7
0.011, -1.334e-6, -7.593e-7, 5.746e-7
0.010, -1.334e-6, -7.599e-7, 5.746e-7
0.009, -1.332e-6, -7.568e-7, 5.752e-7
0.008, -1.333e-6, -7.572e-7, 5.758e-7
0.007, -1.332e-6, -7.556e-7, 5.761e-7
0.006, -1.331e-6, -7.541e-7, 5.767e-7
0.005, -1.330e-6, -7.544e-7, 5.752e-7
0.004, -1.329e-6, -7.532e-7, 5.758e-7
0.003, -1.328e-6, -7.510e-7, 5.767e-7
0.002, -1.326e-6, -7.507e-7, 5.755e-7
0.001, -1.326e-6, -7.498e-7, 5.764e-7
0.000, -1.324e-6, -7.477e-7, 5.767e-7
-0.001, -1.323e-6, -7.480e-7, 5.746e-7
-0.002, -1.323e-6, -7.486e-7, 5.749e-7
-0.003, -1.321e-6, -7.453e-7, 5.761e-7
-0.004, -1.321e-6, -7.462e-7, 5.746e-7
-0.005, -1.321e-6, -7.437e-7, 5.770e-7
-0.006, -1.318e-6, -7.431e-7, 5.746e-7
-0.007, -1.316e-6, -7.419e-7, 5.736e-7
-0.008, -1.316e-6, -7.407e-7, 5.758e-7
-0.009, -1.313e-6, -7.388e-7, 5.743e-7
-0.010, -1.314e-6, -7.401e-7, 5.739e-7
-0.011, -1.312e-6, -7.370e-7, 5.752e-7
-0.012, -1.309e-6, -7.364e-7, 5.730e-7
-0.013, -1.309e-6, -7.355e-7, 5.736e-7
-0.014, -1.308e-6, -7.333e-7, 5.743e-7
-0.015, -1.306e-6, -7.330e-7, 5.727e-7
-0.016, -1.307e-6, -7.321e-7, 5.749e-7
-0.017, -1.303e-6, -7.294e-7, 5.736e-7
-0.018, -1.300e-6, -7.294e-7, 5.709e-7
-0.019, -1.300e-6, -7.282e-7, 5.715e-7
-0.020, -1.299e-6, -7.266e-7, 5.727e-7
-0.021, -1.295e-6, -7.245e-7, 5.709e-7
-0.022, -1.296e-6, -7.254e-7, 5.706e-7
-0.023, -1.293e-6, -7.227e-7, 5.703e-7
-0.024, -1.292e-6, -7.224e-7, 5.694e-7
-0.025, -1.291e-6, -7.214e-7, 5.694e-7
-0.026, -1.288e-6, -7.187e-7, 5.694e-7
-0.027, -1.286e-6, -7.175e-7, 5.688e-7
-0.028, -1.287e-6, -7.166e-7, 5.700e-7
-0.029, -1.285e-6, -7.160e-7, 5.688e-7
-0.030, -1.283e-6, -7.153e-7, 5.678e-7
-0.031, -1.280e-6, -7.120e-7, 5.678e-7
-0.032, -1.276e-6, -7.108e-7, 5.657e-7
-0.033, -1.277e-6, -7.095e-7, 5.672e-7
-0.034, -1.274e-6, -7.074e-7, 5.663e-7
-0.035, -1.271e-6, -7.068e-7, 5.645e-7
-0.036, -1.270e-6, -7.053e-7, 5.648e-7
-0.037, -1.269e-6, -7.034e-7, 5.657e-7
-0.038, -1.268e-6, -7.047e-7, 5.636e-7
-0.039, -1.265e-6, -7.016e-7, 5.636e-7
-0.040, -1.263e-6, -7.007e-7, 5.624e-7
-0.041, -1.263e-6, -7.010e-7, 5.620e-7
-0.042, -1.262e-6, -6.989e-7, 5.633e-7
-0.043, -1.257e-6, -6.961e-7, 5.611e-7
-0.044, -1.258e-6, -6.973e-7, 5.605e-7
-0.045, -1.255e-6, -6.949e-7, 5.599e-7
-0.046, -1.251e-6, -6.915e-7, 5.593e-7
-0.047, -1.251e-6, -6.918e-7, 5.596e-7
-0.048, -1.248e-6, -6.900e-7, 5.581e-7
-0.049, -1.247e-6, -6.897e-7, 5.572e-7
-0.050, -1.246e-6, -6.891e-7, 5.569e-7
-0.051, -1.244e-6, -6.854e-7, 5.581e-7
-0.052, -1.241e-6, -6.851e-7, 5.556e-7
-0.053, -1.240e-6, -6.842e-7, 5.556e-7
-0.054, -1.238e-6, -6.821e-7, 5.556e-7
-0.055, -1.236e-6, -6.821e-7, 5.535e-7
-0.056, -1.236e-6, -6.809e-7, 5.553e-7
-0.057, -1.232e-6, -6.784e-7, 5.532e-7
-0.058, -1.229e-6, -6.790e-7, 5.501e-7
-0.059, -1.230e-6, -6.769e-7, 5.529e-7
-0.060, -1.227e-6, -6.735e-7, 5.535e-7
-0.061, -1.226e-6, -6.748e-7, 5.514e-7
-0.062, -1.226e-6, -6.735e-7, 5.523e-7
-0.063, -1.221e-6, -6.711e-7, 5.501e-7
-0.064, -1.221e-6, -6.723e-7, 5.489e-7
-0.065, -1.220e-6, -6.690e-7, 5.508e-7
-0.066, -1.215e-6, -6.677e-7, 5.474e-7
-0.067, -1.215e-6, -6.668e-7, 5.486e-7
-0.068, -1.213e-6, -6.644e-7, 5.483e-7
-0.069, -1.211e-6, -6.644e-7, 5.471e-7
-0.070, -1.211e-6, -6.647e-7, 5.465e-7
-0.071, -1.208e-6, -6.613e-7, 5.462e-7
-0.072, -1.205e-6, -6.610e-7, 5.443e-7
-0.073, -1.206e-6, -6.607e-7, 5.450e-7
-0.074, -1.203e-6, -6.592e-7, 5.440e-7
-0.075, -1.199e-6, -6.574e-7, 5.419e-7
-0.076, -1.199e-6, -6.558e-7, 5.431e-7
-0.077, -1.197e-6, -6.558e-7, 5.410e-7
-0.078, -1.197e-6, -6.549e-7, 5.425e-7
-0.079, -1.194e-6, -6.537e-7, 5.404e-7
-0.080, -1.190e-6, -6.513e-7, 5.389e-7
-0.081, -1.190e-6, -6.519e-7, 5.385e-7
-0.082, -1.190e-6, -6.500e-7, 5.404e-7
-0.083, -1.186e-6, -6.488e-7, 5.376e-7
-0.084, -1.186e-6, -6.482e-7, 5.379e-7
-0.085, -1.184e-6, -6.476e-7, 5.364e-7
-0.086, -1.182e-6, -6.461e-7, 5.355e-7
-0.087, -1.181e-6, -6.461e-7, 5.352e-7
-0.088, -1.180e-6, -6.439e-7, 5.364e-7
-0.089, -1.177e-6, -6.433e-7, 5.340e-7
-0.090, -1.177e-6, -6.430e-7, 5.337e-7
-0.091, -1.175e-6, -6.415e-7, 5.334e-7
-0.092, -1.172e-6, -6.406e-7, 5.315e-7
-0.093, -1.172e-6, -6.400e-7, 5.324e-7
-0.094, -1.168e-6, -6.366e-7, 5.312e-7
-0.095, -1.167e-6, -6.372e-7, 5.300e-7
-0.096, -1.167e-6, -6.357e-7, 5.309e-7
-0.097, -1.166e-6, -6.354e-7, 5.303e-7
-0.098, -1.160e-6, -6.336e-7, 5.266e-7
-0.099, -1.162e-6, -6.339e-7, 5.282e-7
-0.100, -1.158e-6, -6.317e-7, 5.263e-7
-0.101, -1.158e-6, -6.326e-7, 5.257e-7
-0.102, -1.156e-6, -6.299e-7, 5.263e-7
-0.103, -1.154e-6, -6.290e-7, 5.248e-7
-0.104, -1.152e-6, -6.296e-7, 5.227e-7
-0.105, -1.149e-6, -6.253e-7, 5.233e-7
-0.106, -1.149e-6, -6.262e-7, 5.224e-7
-0.107, -1.148e-6, -6.253e-7, 5.227e-7
-0.108, -1.145e-6, -6.226e-7, 5.221e-7
-0.109, -1.146e-6, -6.250e-7, 5.212e-7
-0.110, -1.146e-6, -6.235e-7, 5.224e-7
-0.111, -1.141e-6, -6.207e-7, 5.199e-7
-0.112, -1.139e-6, -6.207e-7, 5.184e-7
-0.113, -1.139e-6, -6.204e-7, 5.184e-7
-0.114, -1.138e-6, -6.201e-7, 5.175e-7
-0.115, -1.132e-6, -6.174e-7, 5.144e-7
-0.116, -1.134e-6, -6.180e-7, 5.163e-7
-0.117, -1.131e-6, -6.149e-7, 5.163e-7
-0.118, -1.130e-6, -6.162e-7, 5.141e-7
-0.119, -1.128e-6, -6.143e-7, 5.141e-7
-0.120, -1.127e-6, -6.137e-7, 5.135e-7
-0.121, -1.125e-6, -6.137e-7, 5.117e-7
-0.122, -1.123e-6, -6.113e-7, 5.120e-7
-0.123, -1.121e-6, -6.110e-7, 5.096e-7
-0.124, -1.122e-6, -6.116e-7, 5.102e-7
-0.125, -1.118e-6, -6.107e-7, 5.077e-7
-0.126, -1.119e-6, -6.104e-7, 5.083e-7
-0.127, -1.117e-6, -6.082e-7, 5.083e-7
-0.128, -1.114e-6, -6.067e-7, 5.068e-7
-0.129, -1.112e-6, -6.061e-7, 5.062e-7
-0.130, -1.111e-6, -6.055e-7, 5.056e-7
-0.131, -1.110e-6, -6.046e-7, 5.050e-7
-0.132, -1.108e-6, -6.043e-7, 5.041e-7
-0.133, -1.109e-6, -6.034e-7, 5.053e-7
-0.134, -1.105e-6, -6.024e-7, 5.022e-7
-0.135, -1.106e-6, -6.034e-7, 5.028e-7
-0.136, -1.104e-6, -6.009e-7, 5.028e-7
-0.137, -1.104e-6, -6.012e-7, 5.025e-7
-0.138, -1.100e-6, -6.012e-7, 4.992e-7
-0.139, -1.102e-6, -5.997e-7, 5.019e-7
-0.140, -1.099e-6, -5.988e-7, 4.998e-7
-0.141, -1.099e-6, -5.982e-7, 5.004e-7
-0.142, -1.096e-6, -5.963e-7, 4.995e-7
-0.143, -1.095e-6, -5.969e-7, 4.983e-7
-0.144, -1.094e-6, -5.966e-7, 4.974e-7
-0.145, -1.092e-6, -5.951e-7, 4.967e-7
-0.146, -1.090e-6, -5.945e-7, 4.955e-7
-0.147, -1.093e-6, -5.948e-7, 4.980e-7
-0.148, -1.090e-6, -5.936e-7, 4.967e-7
-0.149, -1.088e-6, -5.933e-7, 4.949e-7
-0.150, -1.089e-6, -5.927e-7, 4.964e-7
-0.151, -1.086e-6, -5.921e-7, 4.940e-7
-0.152, -1.085e-6, -5.927e-7, 4.919e-7
-0.153, -1.084e-6, -5.896e-7, 4.943e-7
-0.154, -1.083e-6, -5.905e-7, 4.928e-7
-0.155, -1.083e-6, -5.924e-7, 4.906e-7
-0.156, -1.082e-6, -5.899e-7, 4.919e-7
-0.157, -1.080e-6, -5.887e-7, 4.912e-7
-0.158, -1.078e-6, -5.881e-7, 4.900e-7
-0.159, -1.080e-6, -5.878e-7, 4.919e-7
-0.160, -1.077e-6, -5.875e-7, 4.897e-7
-0.161, -1.078e-6, -5.881e-7, 4.897e-7
-0.162, -1.076e-6, -5.863e-7, 4.897e-7
-0.163, -1.075e-6, -5.863e-7, 4.891e-7
-0.164, -1.073e-6, -5.847e-7, 4.879e-7
-0.165, -1.073e-6, -5.850e-7, 4.876e-7
-0.166, -1.072e-6, -5.844e-7, 4.876e-7
-0.167, -1.073e-6, -5.841e-7, 4.888e-7
-0.168, -1.073e-6, -5.860e-7, 4.870e-7
-0.169, -1.069e-6, -5.838e-7, 4.848e-7
-0.170, -1.068e-6, -5.826e-7, 4.858e-7
-0.171, -1.068e-6, -5.814e-7, 4.864e-7
-0.172, -1.070e-6, -5.838e-7, 4.858e-7
-0.173, -1.067e-6, -5.811e-7, 4.858e-7
-0.174, -1.067e-6, -5.826e-7, 4.839e-7
-0.175, -1.063e-6, -5.796e-7, 4.836e-7
-0.176, -1.064e-6, -5.802e-7, 4.842e-7
-0.177, -1.063e-6, -5.799e-7, 4.833e-7
-0.178, -1.064e-6, -5.802e-7, 4.836e-7
-0.179, -1.063e-6, -5.799e-7, 4.836e-7
-0.180, -1.062e-6, -5.789e-7, 4.830e-7
-0.181, -1.062e-6, -5.786e-7, 4.830e-7
-0.182, -1.060e-6, -5.771e-7, 4.824e-7
-0.183, -1.059e-6, -5.786e-7, 4.800e-7
-0.184, -1.060e-6, -5.777e-7, 4.827e-7
-0.185, -1.056e-6, -5.747e-7, 4.809e-7
-0.186, -1.057e-6, -5.762e-7, 4.812e-7
-0.187, -1.055e-6, -5.741e-7, 4.812e-7
-0.188, -1.054e-6, -5.747e-7, 4.797e-7
-0.189, -1.054e-6, -5.753e-7, 4.790e-7
-0.190, -1.053e-6, -5.741e-7, 4.793e-7
-0.191, -1.052e-6, -5.728e-7, 4.793e-7
-0.192, -1.051e-6, -5.734e-7, 4.772e-7
-0.193, -1.052e-6, -5.728e-7, 4.787e-7
-0.194, -1.052e-6, -5.734e-7, 4.781e-7
-0.195, -1.050e-6, -5.722e-7, 4.778e-7
-0.196, -1.051e-6, -5.722e-7, 4.784e-7
-0.197, -1.045e-6, -5.701e-7, 4.751e-7
-0.198, -1.048e-6, -5.725e-7, 4.754e-7
-0.199, -1.045e-6, -5.692e-7, 4.757e-7
-0.200, -1.044e-6, -5.695e-7, 4.742e-7
-0.201, -1.044e-6, -5.689e-7, 4.748e-7
-0.202, -1.043e-6, -5.667e-7, 4.763e-7
-0.203, -1.042e-6, -5.680e-7, 4.745e-7
-0.204, -1.041e-6, -5.673e-7, 4.735e-7
-0.205, -1.041e-6, -5.661e-7, 4.748e-7
-0.206, -1.042e-6, -5.698e-7, 4.726e-7
-0.207, -1.042e-6, -5.673e-7, 4.742e-7
-0.208, -1.038e-6, -5.640e-7, 4.742e-7
-0.209, -1.038e-6, -5.658e-7, 4.723e-7
-0.210, -1.037e-6, -5.646e-7, 4.726e-7
-0.211, -1.036e-6, -5.631e-7, 4.732e-7
-0.212, -1.037e-6, -5.649e-7, 4.720e-7
-0.213, -1.035e-6, -5.628e-7, 4.726e-7
-0.214, -1.032e-6, -5.622e-7, 4.702e-7
-0.215, -1.035e-6, -5.628e-7, 4.723e-7
-0.216, -1.032e-6, -5.603e-7, 4.717e-7
-0.217, -1.030e-6, -5.625e-7, 4.678e-7
-0.218, -1.038e-6, -5.683e-7, 4.702e-7
-0.219, -1.031e-6, -5.606e-7, 4.702e-7
-0.220, -1.029e-6, -5.597e-7, 4.693e-7
-0.221, -1.027e-6, -5.585e-7, 4.687e-7
-0.222, -1.028e-6, -5.597e-7, 4.684e-7
-0.223, -1.025e-6, -5.576e-7, 4.671e-7
-0.224, -1.027e-6, -5.573e-7, 4.699e-7
-0.225, -1.025e-6, -5.576e-7, 4.671e-7
-0.226, -1.025e-6, -5.570e-7, 4.678e-7
-0.227, -1.024e-6, -5.554e-7, 4.687e-7
-0.228, -1.024e-6, -5.567e-7, 4.674e-7
-0.229, -1.025e-6, -5.585e-7, 4.668e-7
-0.230, -1.028e-6, -5.597e-7, 4.681e-7
-0.231, -1.020e-6, -5.539e-7, 4.662e-7
-0.232, -1.020e-6, -5.530e-7, 4.665e-7
-0.233, -1.019e-6, -5.521e-7, 4.671e-7
-0.234, -1.018e-6, -5.527e-7, 4.653e-7
-0.235, -1.020e-6, -5.536e-7, 4.659e-7
-0.236, -1.016e-6, -5.506e-7, 4.653e-7
-0.237, -1.016e-6, -5.524e-7, 4.638e-7
-0.238, -1.018e-6, -5.518e-7, 4.659e-7
-0.239, -1.015e-6, -5.493e-7, 4.659e-7
-0.240, -1.016e-6, -5.512e-7, 4.644e-7
-0.241, -1.016e-6, -5.509e-7, 4.653e-7
-0.242, -1.015e-6, -5.515e-7, 4.632e-7
-0.243, -1.010e-6, -5.481e-7, 4.616e-7
-0.244, -1.012e-6, -5.478e-7, 4.641e-7
-0.245, -1.008e-6, -5.460e-7, 4.623e-7
-0.246, -1.009e-6, -5.469e-7, 4.626e-7
-0.247, -1.010e-6, -5.469e-7, 4.635e-7
-0.248, -1.008e-6, -5.463e-7, 4.620e-7
-0.249, -1.007e-6, -5.457e-7, 4.616e-7
-0.250, -1.008e-6, -5.454e-7, 4.629e-7
-0.251, -1.009e-6, -5.475e-7, 4.616e-7
-0.252, -1.008e-6, -5.469e-7, 4.613e-7
-0.253, -1.005e-6, -5.432e-7, 4.616e-7
-0.254, -1.004e-6, -5.426e-7, 4.613e-7
-0.255, -1.006e-6, -5.438e-7, 4.623e-7
-0.256, -1.003e-6, -5.420e-7, 4.610e-7
-0.257, -1.002e-6, -5.417e-7, 4.598e-7
-0.258, -1.002e-6, -5.417e-7, 4.607e-7
-0.259, -1.003e-6, -5.426e-7, 4.604e-7
-0.260, -1.002e-6, -5.417e-7, 4.604e-7
-0.261, -1.003e-6, -5.432e-7, 4.598e-7
-0.262, -1.001e-6, -5.417e-7, 4.595e-7
-0.263, -1.000e-6, -5.417e-7, 4.586e-7
-0.264, -1.001e-6, -5.408e-7, 4.601e-7
-0.265, -9.994e-7, -5.405e-7, 4.589e-7
-0.266, -9.982e-7, -5.393e-7, 4.589e-7
-0.267, -9.979e-7, -5.381e-7, 4.598e-7
-0.268, -9.976e-7, -5.390e-7, 4.586e-7
-0.269, -9.951e-7, -5.381e-7, 4.571e-7
-0.270, -9.957e-7, -5.374e-7, 4.583e-7
-0.271, -9.988e-7, -5.417e-7, 4.571e-7
-0.272, -1.002e-6, -5.445e-7, 4.574e-7
-0.273, -9.979e-7, -5.390e-7, 4.589e-7
-0.274, -9.936e-7, -5.371e-7, 4.565e-7
-0.275, -9.930e-7, -5.356e-7, 4.574e-7
-0.276, -9.936e-7, -5.368e-7, 4.568e-7
-0.277, -9.902e-7, -5.347e-7, 4.555e-7
-0.278, -9.912e-7, -5.335e-7, 4.577e-7
-0.279, -9.890e-7, -5.332e-7, 4.558e-7
-0.280, -9.881e-7, -5.335e-7, 4.546e-7
-0.281, -9.896e-7, -5.335e-7, 4.562e-7
-0.282, -9.863e-7, -5.326e-7, 4.537e-7
-0.283, -9.872e-7, -5.335e-7, 4.537e-7
-0.284, -9.872e-7, -5.323e-7, 4.549e-7
-0.285, -9.832e-7, -5.298e-7, 4.534e-7
-0.286, -9.844e-7, -5.326e-7, 4.519e-7
-0.287, -9.835e-7, -5.292e-7, 4.543e-7
-0.288, -9.814e-7, -5.295e-7, 4.519e-7
-0.289, -9.814e-7, -5.292e-7, 4.522e-7
-0.290, -9.826e-7, -5.298e-7, 4.528e-7
-0.291, -9.796e-7, -5.268e-7, 4.528e-7
-0.292, -9.805e-7, -5.289e-7, 4.516e-7
-0.293, -9.799e-7, -5.265e-7, 4.534e-7
-0.294, -9.753e-7, -5.255e-7, 4.497e-7
-0.295, -9.774e-7, -5.271e-7, 4.504e-7
-0.296, -9.741e-7, -5.243e-7, 4.497e-7
-0.297, -9.771e-7, -5.271e-7, 4.501e-7
-0.298, -9.753e-7, -5.249e-7, 4.504e-7
-0.299, -9.765e-7, -5.255e-7, 4.510e-7
-0.300, -9.735e-7, -5.243e-7, 4.491e-7
-0.301, -9.756e-7, -5.268e-7, 4.488e-7
-0.302, -9.707e-7, -5.222e-7, 4.485e-7
-0.303, -9.707e-7, -5.234e-7, 4.473e-7
-0.304, -9.710e-7, -5.231e-7, 4.479e-7
-0.305, -9.683e-7, -5.225e-7, 4.458e-7
-0.306, -9.652e-7, -5.228e-7, 4.424e-7
-0.307, -9.707e-7, -5.237e-7, 4.470e-7
-0.308, -9.667e-7, -5.210e-7, 4.458e-7
-0.309, -9.655e-7, -5.200e-7, 4.455e-7
-0.310, -9.664e-7, -5.200e-7, 4.464e-7
-0.311, -9.628e-7, -5.188e-7, 4.439e-7
-0.312, -9.655e-7, -5.200e-7, 4.455e-7
-0.313, -9.637e-7, -5.197e-7, 4.439e-7
-0.314, -9.612e-7, -5.182e-7, 4.430e-7
-0.315, -9.612e-7, -5.170e-7, 4.443e-7
-0.316, -9.600e-7, -5.176e-7, 4.424e-7
-0.317, -9.582e-7, -5.167e-7, 4.415e-7
-0.318, -9.606e-7, -5.179e-7, 4.427e-7
-0.319, -9.561e-7, -5.152e-7, 4.409e-7
-0.320, -9.570e-7, -5.167e-7, 4.403e-7
-0.321, -9.591e-7, -5.173e-7, 4.418e-7
-0.322, -9.585e-7, -5.167e-7, 4.418e-7
-0.323, -9.558e-7, -5.167e-7, 4.391e-7
-0.324, -9.555e-7, -5.149e-7, 4.406e-7
-0.325, -9.527e-7, -5.139e-7, 4.388e-7
-0.326, -9.585e-7, -5.194e-7, 4.391e-7
-0.327, -9.551e-7, -5.161e-7, 4.391e-7
-0.328, -9.506e-7, -5.149e-7, 4.357e-7
-0.329, -9.524e-7, -5.142e-7, 4.381e-7
-0.330, -9.506e-7, -5.124e-7, 4.381e-7
-0.331, -9.503e-7, -5.146e-7, 4.357e-7
-0.332, -9.555e-7, -5.188e-7, 4.366e-7
-0.333, -9.475e-7, -5.103e-7, 4.372e-7
-0.334, -9.506e-7, -5.155e-7, 4.351e-7
-0.335, -9.484e-7, -5.127e-7, 4.357e-7
-0.336, -9.475e-7, -5.127e-7, 4.348e-7
-0.337, -9.484e-7, -5.136e-7, 4.348e-7
-0.338, -9.478e-7, -5.121e-7, 4.357e-7
-0.339, -9.506e-7, -5.158e-7, 4.348e-7
-0.340, -9.442e-7, -5.115e-7, 4.327e-7
-0.341, -9.454e-7, -5.103e-7, 4.351e-7
-0.342, -9.414e-7, -5.081e-7, 4.333e-7
-0.343, -9.435e-7, -5.118e-7, 4.317e-7
-0.344, -9.448e-7, -5.115e-7, 4.333e-7
-0.345, -9.420e-7, -5.097e-7, 4.324e-7
-0.346, -9.414e-7, -5.100e-7, 4.314e-7
-0.347, -9.405e-7, -5.091e-7, 4.314e-7
-0.348, -9.390e-7, -5.081e-7, 4.308e-7
-0.349, -9.426e-7, -5.100e-7, 4.327e-7
-0.350, -9.402e-7, -5.085e-7, 4.317e-7
-0.351, -9.405e-7, -5.094e-7, 4.311e-7
-0.352, -9.384e-7, -5.091e-7, 4.293e-7
-0.353, -9.371e-7, -5.075e-7, 4.296e-7
-0.354, -9.374e-7, -5.085e-7, 4.290e-7
-0.355, -9.368e-7, -5.078e-7, 4.290e-7
-0.356, -9.356e-7, -5.066e-7, 4.290e-7
-0.357, -9.374e-7, -5.081e-7, 4.293e-7
-0.358, -9.405e-7, -5.124e-7, 4.281e-7
-0.359, -9.368e-7, -5.097e-7, 4.272e-7
-0.360, -9.341e-7, -5.078e-7, 4.262e-7
-0.361, -9.368e-7, -5.094e-7, 4.275e-7
-0.362, -9.347e-7, -5.085e-7, 4.262e-7
-0.363, -9.362e-7, -5.081e-7, 4.281e-7
-0.364, -9.368e-7, -5.094e-7, 4.275e-7
-0.365, -9.335e-7, -5.081e-7, 4.253e-7
-0.366, -9.326e-7, -5.066e-7, 4.259e-7
-0.367, -9.341e-7, -5.088e-7, 4.253e-7
-0.368, -9.316e-7, -5.072e-7, 4.244e-7
-0.369, -9.316e-7, -5.063e-7, 4.253e-7
-0.370, -9.304e-7, -5.060e-7, 4.244e-7
-0.371, -9.368e-7, -5.121e-7, 4.247e-7
-0.372, -9.292e-7, -5.051e-7, 4.241e-7
-0.373, -9.280e-7, -5.060e-7, 4.220e-7
-0.374, -9.320e-7, -5.091e-7, 4.229e-7
-0.375, -9.283e-7, -5.054e-7, 4.229e-7
-0.376, -9.271e-7, -5.060e-7, 4.211e-7
-0.377, -9.289e-7, -5.078e-7, 4.211e-7
-0.378, -9.283e-7, -5.048e-7, 4.235e-7
-0.379, -9.271e-7, -5.060e-7, 4.211e-7
-0.380, -9.289e-7, -5.085e-7, 4.204e-7
-0.381, -9.265e-7, -5.045e-7, 4.220e-7
-0.382, -9.289e-7, -5.106e-7, 4.183e-7
-0.383, -9.268e-7, -5.060e-7, 4.208e-7
-0.384, -9.289e-7, -5.091e-7, 4.198e-7
-0.385, -9.243e-7, -5.069e-7, 4.174e-7
-0.386, -9.258e-7, -5.075e-7, 4.183e-7
-0.387, -9.228e-7, -5.036e-7, 4.192e-7
-0.388, -9.225e-7, -5.054e-7, 4.171e-7
-0.389, -9.258e-7, -5.088e-7, 4.171e-7
-0.390, -9.216e-7, -5.045e-7, 4.171e-7
-0.391, -9.228e-7, -5.060e-7, 4.168e-7
-0.392, -9.207e-7, -5.039e-7, 4.168e-7
-0.393, -9.222e-7, -5.060e-7, 4.162e-7
-0.394, -9.216e-7, -5.060e-7, 4.156e-7
-0.395, -9.225e-7, -5.066e-7, 4.159e-7
-0.396, -9.210e-7, -5.060e-7, 4.150e-7
-0.397, -9.197e-7, -5.054e-7, 4.143e-7
-0.398, -9.219e-7, -5.057e-7, 4.162e-7
-0.399, -9.197e-7, -5.063e-7, 4.134e-7
-0.400, -9.237e-7, -5.094e-7, 4.143e-7
