Mar. 20, 2018   15:21:28
Square Wave Voltammetry
File: c:\users\electrochemist\desktop\2018\20032018_unbufarray_unpap\45_g0_ph7,80_4.txt
Data Source:  Experiment
Instrument Model:  CHI1040A
Header: 
Note: 

Init E (V) = 0.7
Final E (V) = -0.4
Incr E (V) = 0.001
Amplitude (V) = 0.1
Frequency (Hz) = 152
Quiet Time (sec) = 2
Sensitivity (A/V) = 1e-5

Difference:

Forward:

Reverse:

Potential/V, Diff(i/A), For(i/A), Rev(i/A)

0.699, -1.031e-6, -3.546e-7, 6.768e-7
0.698, -1.257e-6, -6.537e-7, 6.036e-7
0.697, -1.254e-6, -6.720e-7, 5.822e-7
0.696, -1.263e-6, -6.811e-7, 5.822e-7
0.695, -1.257e-6, -6.811e-7, 5.761e-7
0.694, -1.254e-6, -6.872e-7, 5.670e-7
0.693, -1.251e-6, -6.842e-7, 5.670e-7
0.692, -1.245e-6, -6.842e-7, 5.609e-7
0.691, -1.248e-6, -6.903e-7, 5.578e-7
0.690, -1.248e-6, -6.872e-7, 5.609e-7
0.689, -1.239e-6, -6.842e-7, 5.547e-7
0.688, -1.248e-6, -6.933e-7, 5.547e-7
0.687, -1.245e-6, -6.903e-7, 5.547e-7
0.686, -1.233e-6, -6.903e-7, 5.425e-7
0.685, -1.245e-6, -6.964e-7, 5.486e-7
0.684, -1.236e-6, -6.872e-7, 5.486e-7
0.683, -1.233e-6, -6.933e-7, 5.395e-7
0.682, -1.239e-6, -6.933e-7, 5.456e-7
0.681, -1.239e-6, -6.933e-7, 5.456e-7
0.680, -1.230e-6, -6.964e-7, 5.334e-7
0.679, -1.239e-6, -6.964e-7, 5.425e-7
0.678, -1.236e-6, -6.903e-7, 5.456e-7
0.677, -1.227e-6, -6.933e-7, 5.334e-7
0.676, -1.236e-6, -6.995e-7, 5.364e-7
0.675, -1.230e-6, -6.933e-7, 5.364e-7
0.674, -1.227e-6, -6.964e-7, 5.303e-7
0.673, -1.236e-6, -6.995e-7, 5.364e-7
0.672, -1.230e-6, -6.964e-7, 5.334e-7
0.671, -1.230e-6, -7.025e-7, 5.273e-7
0.670, -1.230e-6, -7.025e-7, 5.273e-7
0.669, -1.224e-6, -6.964e-7, 5.273e-7
0.668, -1.224e-6, -6.995e-7, 5.242e-7
0.667, -1.230e-6, -7.025e-7, 5.273e-7
0.666, -1.221e-6, -6.995e-7, 5.212e-7
0.665, -1.224e-6, -7.025e-7, 5.212e-7
0.664, -1.218e-6, -6.964e-7, 5.212e-7
0.663, -1.221e-6, -6.995e-7, 5.212e-7
0.662, -1.227e-6, -7.056e-7, 5.212e-7
0.661, -1.227e-6, -7.025e-7, 5.242e-7
0.660, -1.221e-6, -7.056e-7, 5.151e-7
0.659, -1.227e-6, -7.056e-7, 5.212e-7
0.658, -1.221e-6, -7.025e-7, 5.181e-7
0.657, -1.218e-6, -7.056e-7, 5.120e-7
0.656, -1.224e-6, -7.056e-7, 5.181e-7
0.655, -1.211e-6, -6.995e-7, 5.120e-7
0.654, -1.208e-6, -7.056e-7, 5.029e-7
0.653, -1.211e-6, -7.056e-7, 5.059e-7
0.652, -1.215e-6, -7.025e-7, 5.120e-7
0.651, -1.221e-6, -7.117e-7, 5.090e-7
0.650, -1.218e-6, -7.056e-7, 5.120e-7
0.649, -1.218e-6, -7.086e-7, 5.090e-7
0.648, -1.218e-6, -7.117e-7, 5.059e-7
0.647, -1.218e-6, -7.086e-7, 5.090e-7
0.646, -1.215e-6, -7.117e-7, 5.029e-7
0.645, -1.224e-6, -7.147e-7, 5.090e-7
0.644, -1.221e-6, -7.117e-7, 5.090e-7
0.643, -1.215e-6, -7.117e-7, 5.029e-7
0.642, -1.221e-6, -7.147e-7, 5.059e-7
0.641, -1.215e-6, -7.086e-7, 5.059e-7
0.640, -1.221e-6, -7.178e-7, 5.029e-7
0.639, -1.218e-6, -7.147e-7, 5.029e-7
0.638, -1.215e-6, -7.117e-7, 5.029e-7
0.637, -1.221e-6, -7.178e-7, 5.029e-7
0.636, -1.221e-6, -7.178e-7, 5.029e-7
0.635, -1.221e-6, -7.178e-7, 5.029e-7
0.634, -1.224e-6, -7.239e-7, 4.998e-7
0.633, -1.224e-6, -7.208e-7, 5.029e-7
0.632, -1.218e-6, -7.147e-7, 5.029e-7
0.631, -1.218e-6, -7.208e-7, 4.968e-7
0.630, -1.224e-6, -7.178e-7, 5.059e-7
0.629, -1.224e-6, -7.208e-7, 5.029e-7
0.628, -1.230e-6, -7.300e-7, 4.998e-7
0.627, -1.230e-6, -7.269e-7, 5.029e-7
0.626, -1.224e-6, -7.208e-7, 5.029e-7
0.625, -1.227e-6, -7.269e-7, 4.998e-7
0.624, -1.233e-6, -7.269e-7, 5.059e-7
0.623, -1.227e-6, -7.239e-7, 5.029e-7
0.622, -1.233e-6, -7.300e-7, 5.029e-7
0.621, -1.233e-6, -7.300e-7, 5.029e-7
0.620, -1.227e-6, -7.300e-7, 4.968e-7
0.619, -1.236e-6, -7.361e-7, 4.998e-7
0.618, -1.239e-6, -7.361e-7, 5.029e-7
0.617, -1.242e-6, -7.361e-7, 5.059e-7
0.616, -1.236e-6, -7.330e-7, 5.029e-7
0.615, -1.233e-6, -7.330e-7, 4.998e-7
0.614, -1.239e-6, -7.361e-7, 5.029e-7
0.613, -1.242e-6, -7.361e-7, 5.059e-7
0.612, -1.236e-6, -7.361e-7, 4.998e-7
0.611, -1.242e-6, -7.391e-7, 5.029e-7
0.610, -1.242e-6, -7.391e-7, 5.029e-7
0.609, -1.242e-6, -7.422e-7, 4.998e-7
0.608, -1.254e-6, -7.483e-7, 5.059e-7
0.607, -1.245e-6, -7.422e-7, 5.029e-7
0.606, -1.245e-6, -7.452e-7, 4.998e-7
0.605, -1.251e-6, -7.452e-7, 5.059e-7
0.604, -1.251e-6, -7.483e-7, 5.029e-7
0.603, -1.245e-6, -7.452e-7, 4.998e-7
0.602, -1.251e-6, -7.483e-7, 5.029e-7
0.601, -1.251e-6, -7.483e-7, 5.029e-7
0.600, -1.257e-6, -7.544e-7, 5.029e-7
0.599, -1.254e-6, -7.483e-7, 5.059e-7
0.598, -1.248e-6, -7.513e-7, 4.968e-7
0.597, -1.257e-6, -7.574e-7, 4.998e-7
0.596, -1.257e-6, -7.483e-7, 5.090e-7
0.595, -1.251e-6, -7.544e-7, 4.968e-7
0.594, -1.260e-6, -7.574e-7, 5.029e-7
0.593, -1.257e-6, -7.513e-7, 5.059e-7
0.592, -1.254e-6, -7.574e-7, 4.968e-7
0.591, -1.260e-6, -7.544e-7, 5.059e-7
0.590, -1.257e-6, -7.513e-7, 5.059e-7
0.589, -1.257e-6, -7.605e-7, 4.968e-7
0.588, -1.263e-6, -7.605e-7, 5.029e-7
0.587, -1.263e-6, -7.574e-7, 5.059e-7
0.586, -1.257e-6, -7.605e-7, 4.968e-7
0.585, -1.263e-6, -7.635e-7, 4.998e-7
0.584, -1.263e-6, -7.605e-7, 5.029e-7
0.583, -1.263e-6, -7.635e-7, 4.998e-7
0.582, -1.269e-6, -7.666e-7, 5.029e-7
0.581, -1.263e-6, -7.574e-7, 5.059e-7
0.580, -1.269e-6, -7.696e-7, 4.998e-7
0.579, -1.266e-6, -7.666e-7, 4.998e-7
0.578, -1.266e-6, -7.666e-7, 4.998e-7
0.577, -1.266e-6, -7.666e-7, 4.998e-7
0.576, -1.266e-6, -7.666e-7, 4.998e-7
0.575, -1.273e-6, -7.727e-7, 4.998e-7
0.574, -1.276e-6, -7.757e-7, 4.998e-7
0.573, -1.276e-6, -7.788e-7, 4.968e-7
0.572, -1.266e-6, -7.696e-7, 4.968e-7
0.571, -1.269e-6, -7.696e-7, 4.998e-7
0.570, -1.269e-6, -7.666e-7, 5.029e-7
0.569, -1.276e-6, -7.757e-7, 4.998e-7
0.568, -1.279e-6, -7.757e-7, 5.029e-7
0.567, -1.269e-6, -7.696e-7, 4.998e-7
0.566, -1.279e-6, -7.788e-7, 4.998e-7
0.565, -1.282e-6, -7.788e-7, 5.029e-7
0.564, -1.273e-6, -7.757e-7, 4.968e-7
0.563, -1.279e-6, -7.788e-7, 4.998e-7
0.562, -1.282e-6, -7.788e-7, 5.029e-7
0.561, -1.285e-6, -7.818e-7, 5.029e-7
0.560, -1.282e-6, -7.818e-7, 4.998e-7
0.559, -1.279e-6, -7.788e-7, 4.998e-7
0.558, -1.285e-6, -7.818e-7, 5.029e-7
0.557, -1.288e-6, -7.879e-7, 4.998e-7
0.556, -1.282e-6, -7.818e-7, 4.998e-7
0.555, -1.291e-6, -7.910e-7, 4.998e-7
0.554, -1.288e-6, -7.849e-7, 5.029e-7
0.553, -1.285e-6, -7.849e-7, 4.998e-7
0.552, -1.288e-6, -7.910e-7, 4.968e-7
0.551, -1.297e-6, -7.910e-7, 5.059e-7
0.550, -1.294e-6, -7.910e-7, 5.029e-7
0.549, -1.300e-6, -7.971e-7, 5.029e-7
0.548, -1.294e-6, -7.941e-7, 4.998e-7
0.547, -1.294e-6, -7.910e-7, 5.029e-7
0.546, -1.297e-6, -7.971e-7, 4.998e-7
0.545, -1.306e-6, -8.002e-7, 5.059e-7
0.544, -1.294e-6, -7.941e-7, 4.998e-7
0.543, -1.306e-6, -8.032e-7, 5.029e-7
0.542, -1.306e-6, -7.971e-7, 5.090e-7
0.541, -1.312e-6, -8.032e-7, 5.090e-7
0.540, -1.306e-6, -8.032e-7, 5.029e-7
0.539, -1.318e-6, -8.093e-7, 5.090e-7
0.538, -1.303e-6, -8.002e-7, 5.029e-7
0.537, -1.321e-6, -8.124e-7, 5.090e-7
0.536, -1.315e-6, -8.063e-7, 5.090e-7
0.535, -1.321e-6, -8.124e-7, 5.090e-7
0.534, -1.324e-6, -8.124e-7, 5.120e-7
0.533, -1.318e-6, -8.093e-7, 5.090e-7
0.532, -1.318e-6, -8.124e-7, 5.059e-7
0.531, -1.337e-6, -8.185e-7, 5.181e-7
0.530, -1.330e-6, -8.185e-7, 5.120e-7
0.529, -1.334e-6, -8.215e-7, 5.120e-7
0.528, -1.337e-6, -8.215e-7, 5.151e-7
0.527, -1.327e-6, -8.154e-7, 5.120e-7
0.526, -1.346e-6, -8.276e-7, 5.181e-7
0.525, -1.340e-6, -8.246e-7, 5.151e-7
0.524, -1.340e-6, -8.246e-7, 5.151e-7
0.523, -1.346e-6, -8.307e-7, 5.151e-7
0.522, -1.346e-6, -8.307e-7, 5.151e-7
0.521, -1.346e-6, -8.307e-7, 5.151e-7
0.520, -1.346e-6, -8.276e-7, 5.181e-7
0.519, -1.349e-6, -8.307e-7, 5.181e-7
0.518, -1.343e-6, -8.337e-7, 5.090e-7
0.517, -1.352e-6, -8.307e-7, 5.212e-7
0.516, -1.349e-6, -8.337e-7, 5.151e-7
0.515, -1.352e-6, -8.368e-7, 5.151e-7
0.514, -1.358e-6, -8.368e-7, 5.212e-7
0.513, -1.355e-6, -8.398e-7, 5.151e-7
0.512, -1.364e-6, -8.429e-7, 5.212e-7
0.511, -1.367e-6, -8.429e-7, 5.242e-7
0.510, -1.358e-6, -8.429e-7, 5.151e-7
0.509, -1.367e-6, -8.490e-7, 5.181e-7
0.508, -1.367e-6, -8.429e-7, 5.242e-7
0.507, -1.364e-6, -8.490e-7, 5.151e-7
0.506, -1.373e-6, -8.520e-7, 5.212e-7
0.505, -1.373e-6, -8.459e-7, 5.273e-7
0.504, -1.373e-6, -8.520e-7, 5.212e-7
0.503, -1.376e-6, -8.520e-7, 5.242e-7
0.502, -1.379e-6, -8.520e-7, 5.273e-7
0.501, -1.376e-6, -8.581e-7, 5.181e-7
0.500, -1.379e-6, -8.581e-7, 5.212e-7
0.499, -1.376e-6, -8.520e-7, 5.242e-7
0.498, -1.373e-6, -8.551e-7, 5.181e-7
0.497, -1.392e-6, -8.642e-7, 5.273e-7
0.496, -1.382e-6, -8.581e-7, 5.242e-7
0.495, -1.385e-6, -8.612e-7, 5.242e-7
0.494, -1.388e-6, -8.642e-7, 5.242e-7
0.493, -1.385e-6, -8.612e-7, 5.242e-7
0.492, -1.388e-6, -8.673e-7, 5.212e-7
0.491, -1.395e-6, -8.642e-7, 5.303e-7
0.490, -1.388e-6, -8.642e-7, 5.242e-7
0.489, -1.395e-6, -8.673e-7, 5.273e-7
0.488, -1.398e-6, -8.703e-7, 5.273e-7
0.487, -1.388e-6, -8.673e-7, 5.212e-7
0.486, -1.404e-6, -8.734e-7, 5.303e-7
0.485, -1.395e-6, -8.673e-7, 5.273e-7
0.484, -1.401e-6, -8.734e-7, 5.273e-7
0.483, -1.404e-6, -8.734e-7, 5.303e-7
0.482, -1.401e-6, -8.734e-7, 5.273e-7
0.481, -1.404e-6, -8.764e-7, 5.273e-7
0.480, -1.410e-6, -8.795e-7, 5.303e-7
0.479, -1.404e-6, -8.764e-7, 5.273e-7
0.478, -1.410e-6, -8.825e-7, 5.273e-7
0.477, -1.416e-6, -8.825e-7, 5.334e-7
0.476, -1.404e-6, -8.795e-7, 5.242e-7
0.475, -1.413e-6, -8.856e-7, 5.273e-7
0.474, -1.422e-6, -8.856e-7, 5.364e-7
0.473, -1.419e-6, -8.856e-7, 5.334e-7
0.472, -1.422e-6, -8.887e-7, 5.334e-7
0.471, -1.422e-6, -8.887e-7, 5.334e-7
0.470, -1.425e-6, -8.978e-7, 5.273e-7
0.469, -1.431e-6, -8.948e-7, 5.364e-7
0.468, -1.428e-6, -8.917e-7, 5.364e-7
0.467, -1.431e-6, -9.009e-7, 5.303e-7
0.466, -1.434e-6, -8.978e-7, 5.364e-7
0.465, -1.428e-6, -8.917e-7, 5.364e-7
0.464, -1.440e-6, -9.070e-7, 5.334e-7
0.463, -1.446e-6, -9.039e-7, 5.425e-7
0.462, -1.437e-6, -9.009e-7, 5.364e-7
0.461, -1.446e-6, -9.100e-7, 5.364e-7
0.460, -1.450e-6, -9.070e-7, 5.425e-7
0.459, -1.443e-6, -9.070e-7, 5.364e-7
0.458, -1.453e-6, -9.131e-7, 5.395e-7
0.457, -1.450e-6, -9.100e-7, 5.395e-7
0.456, -1.453e-6, -9.131e-7, 5.395e-7
0.455, -1.462e-6, -9.192e-7, 5.425e-7
0.454, -1.462e-6, -9.192e-7, 5.425e-7
0.453, -1.459e-6, -9.161e-7, 5.425e-7
0.452, -1.465e-6, -9.222e-7, 5.425e-7
0.451, -1.471e-6, -9.222e-7, 5.486e-7
0.450, -1.471e-6, -9.253e-7, 5.456e-7
0.449, -1.477e-6, -9.283e-7, 5.486e-7
0.448, -1.477e-6, -9.253e-7, 5.517e-7
0.447, -1.477e-6, -9.314e-7, 5.456e-7
0.446, -1.480e-6, -9.314e-7, 5.486e-7
0.445, -1.477e-6, -9.283e-7, 5.486e-7
0.444, -1.489e-6, -9.375e-7, 5.517e-7
0.443, -1.486e-6, -9.344e-7, 5.517e-7
0.442, -1.492e-6, -9.375e-7, 5.547e-7
0.441, -1.492e-6, -9.405e-7, 5.517e-7
0.440, -1.498e-6, -9.405e-7, 5.578e-7
0.439, -1.492e-6, -9.405e-7, 5.517e-7
0.438, -1.504e-6, -9.436e-7, 5.608e-7
0.437, -1.501e-6, -9.436e-7, 5.578e-7
0.436, -1.498e-6, -9.436e-7, 5.547e-7
0.435, -1.504e-6, -9.497e-7, 5.547e-7
0.434, -1.511e-6, -9.466e-7, 5.639e-7
0.433, -1.514e-6, -9.558e-7, 5.578e-7
0.432, -1.517e-6, -9.527e-7, 5.639e-7
0.431, -1.514e-6, -9.558e-7, 5.578e-7
0.430, -1.520e-6, -9.588e-7, 5.608e-7
0.429, -1.523e-6, -9.588e-7, 5.639e-7
0.428, -1.523e-6, -9.619e-7, 5.608e-7
0.427, -1.529e-6, -9.649e-7, 5.639e-7
0.426, -1.529e-6, -9.619e-7, 5.670e-7
0.425, -1.529e-6, -9.649e-7, 5.639e-7
0.424, -1.535e-6, -9.680e-7, 5.670e-7
0.423, -1.535e-6, -9.649e-7, 5.700e-7
0.422, -1.532e-6, -9.680e-7, 5.639e-7
0.421, -1.547e-6, -9.771e-7, 5.700e-7
0.420, -1.541e-6, -9.710e-7, 5.700e-7
0.419, -1.541e-6, -9.771e-7, 5.639e-7
0.418, -1.553e-6, -9.802e-7, 5.731e-7
0.417, -1.553e-6, -9.741e-7, 5.792e-7
0.416, -1.556e-6, -9.832e-7, 5.731e-7
0.415, -1.556e-6, -9.832e-7, 5.731e-7
0.414, -1.553e-6, -9.771e-7, 5.761e-7
0.413, -1.559e-6, -9.863e-7, 5.731e-7
0.412, -1.559e-6, -9.863e-7, 5.731e-7
0.411, -1.562e-6, -9.863e-7, 5.761e-7
0.410, -1.562e-6, -9.894e-7, 5.731e-7
0.409, -1.565e-6, -9.894e-7, 5.761e-7
0.408, -1.569e-6, -9.924e-7, 5.761e-7
0.407, -1.572e-6, -9.955e-7, 5.761e-7
0.406, -1.575e-6, -9.955e-7, 5.792e-7
0.405, -1.575e-6, -9.955e-7, 5.792e-7
0.404, -1.575e-6, -9.985e-7, 5.761e-7
0.403, -1.581e-6, -9.985e-7, 5.822e-7
0.402, -1.578e-6, -1.002e-6, 5.761e-7
0.401, -1.581e-6, -9.985e-7, 5.822e-7
0.400, -1.581e-6, -1.002e-6, 5.792e-7
0.399, -1.590e-6, -1.011e-6, 5.792e-7
0.398, -1.590e-6, -1.005e-6, 5.853e-7
0.397, -1.590e-6, -1.008e-6, 5.822e-7
0.396, -1.593e-6, -1.014e-6, 5.792e-7
0.395, -1.599e-6, -1.014e-6, 5.853e-7
0.394, -1.596e-6, -1.011e-6, 5.853e-7
0.393, -1.602e-6, -1.017e-6, 5.853e-7
0.392, -1.605e-6, -1.017e-6, 5.883e-7
0.391, -1.605e-6, -1.020e-6, 5.853e-7
0.390, -1.605e-6, -1.020e-6, 5.853e-7
0.389, -1.608e-6, -1.020e-6, 5.883e-7
0.388, -1.614e-6, -1.026e-6, 5.883e-7
0.387, -1.623e-6, -1.032e-6, 5.914e-7
0.386, -1.617e-6, -1.023e-6, 5.944e-7
0.385, -1.617e-6, -1.029e-6, 5.883e-7
0.384, -1.633e-6, -1.032e-6, 6.005e-7
0.383, -1.626e-6, -1.032e-6, 5.944e-7
0.382, -1.630e-6, -1.035e-6, 5.944e-7
0.381, -1.633e-6, -1.038e-6, 5.944e-7
0.380, -1.633e-6, -1.035e-6, 5.975e-7
0.379, -1.642e-6, -1.047e-6, 5.944e-7
0.378, -1.648e-6, -1.044e-6, 6.036e-7
0.377, -1.639e-6, -1.041e-6, 5.975e-7
0.376, -1.645e-6, -1.047e-6, 5.975e-7
0.375, -1.654e-6, -1.047e-6, 6.066e-7
0.374, -1.651e-6, -1.047e-6, 6.036e-7
0.373, -1.654e-6, -1.053e-6, 6.005e-7
0.372, -1.666e-6, -1.056e-6, 6.097e-7
0.371, -1.654e-6, -1.050e-6, 6.036e-7
0.370, -1.663e-6, -1.060e-6, 6.036e-7
0.369, -1.669e-6, -1.056e-6, 6.127e-7
0.368, -1.663e-6, -1.060e-6, 6.036e-7
0.367, -1.675e-6, -1.066e-6, 6.097e-7
0.366, -1.681e-6, -1.066e-6, 6.158e-7
0.365, -1.678e-6, -1.066e-6, 6.127e-7
0.364, -1.684e-6, -1.069e-6, 6.158e-7
0.363, -1.691e-6, -1.072e-6, 6.188e-7
0.362, -1.691e-6, -1.075e-6, 6.158e-7
0.361, -1.697e-6, -1.078e-6, 6.188e-7
0.360, -1.700e-6, -1.078e-6, 6.219e-7
0.359, -1.703e-6, -1.084e-6, 6.188e-7
0.358, -1.706e-6, -1.081e-6, 6.249e-7
0.357, -1.706e-6, -1.081e-6, 6.249e-7
0.356, -1.712e-6, -1.087e-6, 6.249e-7
0.355, -1.712e-6, -1.087e-6, 6.249e-7
0.354, -1.718e-6, -1.093e-6, 6.249e-7
0.353, -1.721e-6, -1.093e-6, 6.280e-7
0.352, -1.724e-6, -1.093e-6, 6.310e-7
0.351, -1.724e-6, -1.093e-6, 6.310e-7
0.350, -1.733e-6, -1.102e-6, 6.310e-7
0.349, -1.733e-6, -1.099e-6, 6.341e-7
0.348, -1.736e-6, -1.102e-6, 6.341e-7
0.347, -1.739e-6, -1.102e-6, 6.371e-7
0.346, -1.739e-6, -1.105e-6, 6.341e-7
0.345, -1.746e-6, -1.108e-6, 6.371e-7
0.344, -1.749e-6, -1.111e-6, 6.371e-7
0.343, -1.749e-6, -1.108e-6, 6.402e-7
0.342, -1.755e-6, -1.118e-6, 6.371e-7
0.341, -1.761e-6, -1.114e-6, 6.463e-7
0.340, -1.755e-6, -1.114e-6, 6.402e-7
0.339, -1.764e-6, -1.121e-6, 6.432e-7
0.338, -1.761e-6, -1.118e-6, 6.432e-7
0.337, -1.767e-6, -1.124e-6, 6.432e-7
0.336, -1.776e-6, -1.130e-6, 6.463e-7
0.335, -1.773e-6, -1.124e-6, 6.493e-7
0.334, -1.776e-6, -1.130e-6, 6.463e-7
0.333, -1.788e-6, -1.136e-6, 6.524e-7
0.332, -1.788e-6, -1.133e-6, 6.554e-7
0.331, -1.785e-6, -1.136e-6, 6.493e-7
0.330, -1.797e-6, -1.139e-6, 6.585e-7
0.329, -1.791e-6, -1.136e-6, 6.554e-7
0.328, -1.797e-6, -1.145e-6, 6.524e-7
0.327, -1.803e-6, -1.148e-6, 6.554e-7
0.326, -1.800e-6, -1.142e-6, 6.585e-7
0.325, -1.810e-6, -1.154e-6, 6.554e-7
0.324, -1.810e-6, -1.148e-6, 6.616e-7
0.323, -1.816e-6, -1.154e-6, 6.616e-7
0.322, -1.822e-6, -1.160e-6, 6.616e-7
0.321, -1.813e-6, -1.151e-6, 6.616e-7
0.320, -1.819e-6, -1.157e-6, 6.616e-7
0.319, -1.825e-6, -1.157e-6, 6.677e-7
0.318, -1.831e-6, -1.163e-6, 6.677e-7
0.317, -1.831e-6, -1.166e-6, 6.646e-7
0.316, -1.837e-6, -1.166e-6, 6.707e-7
0.315, -1.837e-6, -1.166e-6, 6.707e-7
0.314, -1.840e-6, -1.172e-6, 6.677e-7
0.313, -1.846e-6, -1.172e-6, 6.738e-7
0.312, -1.843e-6, -1.172e-6, 6.707e-7
0.311, -1.855e-6, -1.179e-6, 6.768e-7
0.310, -1.855e-6, -1.179e-6, 6.768e-7
0.309, -1.855e-6, -1.179e-6, 6.768e-7
0.308, -1.861e-6, -1.185e-6, 6.768e-7
0.307, -1.865e-6, -1.185e-6, 6.799e-7
0.306, -1.861e-6, -1.185e-6, 6.768e-7
0.305, -1.868e-6, -1.191e-6, 6.768e-7
0.304, -1.871e-6, -1.188e-6, 6.829e-7
0.303, -1.877e-6, -1.194e-6, 6.829e-7
0.302, -1.880e-6, -1.197e-6, 6.829e-7
0.301, -1.883e-6, -1.197e-6, 6.860e-7
0.300, -1.889e-6, -1.203e-6, 6.860e-7
0.299, -1.892e-6, -1.203e-6, 6.890e-7
0.298, -1.895e-6, -1.203e-6, 6.921e-7
0.297, -1.901e-6, -1.209e-6, 6.921e-7
0.296, -1.901e-6, -1.209e-6, 6.921e-7
0.295, -1.904e-6, -1.209e-6, 6.951e-7
0.294, -1.907e-6, -1.218e-6, 6.890e-7
0.293, -1.913e-6, -1.215e-6, 6.982e-7
0.292, -1.913e-6, -1.215e-6, 6.982e-7
0.291, -1.929e-6, -1.230e-6, 6.982e-7
0.290, -1.929e-6, -1.221e-6, 7.073e-7
0.289, -1.926e-6, -1.224e-6, 7.012e-7
0.288, -1.935e-6, -1.237e-6, 6.982e-7
0.287, -1.941e-6, -1.233e-6, 7.073e-7
0.286, -1.938e-6, -1.230e-6, 7.073e-7
0.285, -1.941e-6, -1.240e-6, 7.012e-7
0.284, -1.956e-6, -1.243e-6, 7.134e-7
0.283, -1.953e-6, -1.246e-6, 7.073e-7
0.282, -1.959e-6, -1.249e-6, 7.104e-7
0.281, -1.968e-6, -1.249e-6, 7.195e-7
0.280, -1.968e-6, -1.252e-6, 7.165e-7
0.279, -1.971e-6, -1.255e-6, 7.165e-7
0.278, -1.977e-6, -1.258e-6, 7.195e-7
0.277, -1.980e-6, -1.261e-6, 7.195e-7
0.276, -1.984e-6, -1.264e-6, 7.195e-7
0.275, -1.990e-6, -1.264e-6, 7.256e-7
0.274, -1.996e-6, -1.270e-6, 7.256e-7
0.273, -2.008e-6, -1.273e-6, 7.348e-7
0.272, -2.002e-6, -1.273e-6, 7.287e-7
0.271, -2.005e-6, -1.276e-6, 7.287e-7
0.270, -2.011e-6, -1.279e-6, 7.317e-7
0.269, -2.011e-6, -1.279e-6, 7.317e-7
0.268, -2.029e-6, -1.291e-6, 7.378e-7
0.267, -2.029e-6, -1.288e-6, 7.409e-7
0.266, -2.032e-6, -1.295e-6, 7.378e-7
0.265, -2.042e-6, -1.295e-6, 7.470e-7
0.264, -2.038e-6, -1.295e-6, 7.439e-7
0.263, -2.048e-6, -1.301e-6, 7.470e-7
0.262, -2.048e-6, -1.304e-6, 7.439e-7
0.261, -2.054e-6, -1.304e-6, 7.500e-7
0.260, -2.060e-6, -1.313e-6, 7.470e-7
0.259, -2.069e-6, -1.313e-6, 7.561e-7
0.258, -2.066e-6, -1.313e-6, 7.531e-7
0.257, -2.081e-6, -1.325e-6, 7.561e-7
0.256, -2.081e-6, -1.322e-6, 7.592e-7
0.255, -2.081e-6, -1.322e-6, 7.592e-7
0.254, -2.093e-6, -1.331e-6, 7.623e-7
0.253, -2.093e-6, -1.328e-6, 7.653e-7
0.252, -2.093e-6, -1.331e-6, 7.623e-7
0.251, -2.106e-6, -1.340e-6, 7.653e-7
0.250, -2.112e-6, -1.337e-6, 7.745e-7
0.249, -2.106e-6, -1.340e-6, 7.653e-7
0.248, -2.121e-6, -1.349e-6, 7.714e-7
0.247, -2.127e-6, -1.349e-6, 7.775e-7
0.246, -2.124e-6, -1.352e-6, 7.714e-7
0.245, -2.136e-6, -1.356e-6, 7.806e-7
0.244, -2.133e-6, -1.352e-6, 7.806e-7
0.243, -2.133e-6, -1.359e-6, 7.745e-7
0.242, -2.148e-6, -1.368e-6, 7.806e-7
0.241, -2.145e-6, -1.365e-6, 7.806e-7
0.240, -2.151e-6, -1.368e-6, 7.836e-7
0.239, -2.161e-6, -1.374e-6, 7.867e-7
0.238, -2.161e-6, -1.371e-6, 7.897e-7
0.237, -2.173e-6, -1.380e-6, 7.928e-7
0.236, -2.173e-6, -1.383e-6, 7.897e-7
0.235, -2.182e-6, -1.383e-6, 7.989e-7
0.234, -2.191e-6, -1.395e-6, 7.958e-7
0.233, -2.188e-6, -1.389e-6, 7.989e-7
0.232, -2.191e-6, -1.392e-6, 7.989e-7
0.231, -2.194e-6, -1.395e-6, 7.989e-7
0.230, -2.209e-6, -1.401e-6, 8.080e-7
0.229, -2.209e-6, -1.407e-6, 8.019e-7
0.228, -2.215e-6, -1.407e-6, 8.080e-7
0.227, -2.218e-6, -1.407e-6, 8.111e-7
0.226, -2.225e-6, -1.417e-6, 8.080e-7
0.225, -2.237e-6, -1.420e-6, 8.172e-7
0.224, -2.240e-6, -1.423e-6, 8.172e-7
0.223, -2.240e-6, -1.429e-6, 8.111e-7
0.222, -2.243e-6, -1.429e-6, 8.141e-7
0.221, -2.249e-6, -1.429e-6, 8.202e-7
0.220, -2.255e-6, -1.435e-6, 8.202e-7
0.219, -2.264e-6, -1.438e-6, 8.263e-7
0.218, -2.261e-6, -1.438e-6, 8.233e-7
0.217, -2.273e-6, -1.444e-6, 8.294e-7
0.216, -2.280e-6, -1.447e-6, 8.324e-7
0.215, -2.283e-6, -1.450e-6, 8.324e-7
0.214, -2.292e-6, -1.459e-6, 8.324e-7
0.213, -2.295e-6, -1.456e-6, 8.385e-7
0.212, -2.301e-6, -1.465e-6, 8.355e-7
0.211, -2.316e-6, -1.472e-6, 8.446e-7
0.210, -2.316e-6, -1.468e-6, 8.477e-7
0.209, -2.325e-6, -1.481e-6, 8.446e-7
0.208, -2.328e-6, -1.478e-6, 8.507e-7
0.207, -2.325e-6, -1.475e-6, 8.507e-7
0.206, -2.334e-6, -1.487e-6, 8.477e-7
0.205, -2.353e-6, -1.487e-6, 8.660e-7
0.204, -2.350e-6, -1.490e-6, 8.599e-7
0.203, -2.356e-6, -1.499e-6, 8.569e-7
0.202, -2.371e-6, -1.502e-6, 8.691e-7
0.201, -2.365e-6, -1.502e-6, 8.630e-7
0.200, -2.377e-6, -1.508e-6, 8.691e-7
0.199, -2.383e-6, -1.511e-6, 8.721e-7
0.198, -2.392e-6, -1.517e-6, 8.752e-7
0.197, -2.392e-6, -1.520e-6, 8.721e-7
0.196, -2.405e-6, -1.523e-6, 8.813e-7
0.195, -2.408e-6, -1.526e-6, 8.813e-7
0.194, -2.423e-6, -1.539e-6, 8.843e-7
0.193, -2.426e-6, -1.536e-6, 8.904e-7
0.192, -2.429e-6, -1.539e-6, 8.904e-7
0.191, -2.441e-6, -1.548e-6, 8.935e-7
0.190, -2.444e-6, -1.545e-6, 8.996e-7
0.189, -2.447e-6, -1.554e-6, 8.935e-7
0.188, -2.463e-6, -1.557e-6, 9.057e-7
0.187, -2.460e-6, -1.557e-6, 9.026e-7
0.186, -2.481e-6, -1.572e-6, 9.087e-7
0.185, -2.478e-6, -1.569e-6, 9.087e-7
0.184, -2.481e-6, -1.572e-6, 9.087e-7
0.183, -2.493e-6, -1.578e-6, 9.148e-7
0.182, -2.496e-6, -1.578e-6, 9.179e-7
0.181, -2.505e-6, -1.581e-6, 9.240e-7
0.180, -2.511e-6, -1.587e-6, 9.240e-7
0.179, -2.518e-6, -1.591e-6, 9.270e-7
0.178, -2.524e-6, -1.597e-6, 9.270e-7
0.177, -2.530e-6, -1.600e-6, 9.301e-7
0.176, -2.536e-6, -1.600e-6, 9.362e-7
0.175, -2.548e-6, -1.612e-6, 9.362e-7
0.174, -2.560e-6, -1.615e-6, 9.453e-7
0.173, -2.560e-6, -1.618e-6, 9.423e-7
0.172, -2.566e-6, -1.621e-6, 9.453e-7
0.171, -2.582e-6, -1.627e-6, 9.545e-7
0.170, -2.582e-6, -1.627e-6, 9.545e-7
0.169, -2.594e-6, -1.636e-6, 9.576e-7
0.168, -2.597e-6, -1.636e-6, 9.606e-7
0.167, -2.603e-6, -1.642e-6, 9.606e-7
0.166, -2.615e-6, -1.648e-6, 9.667e-7
0.165, -2.618e-6, -1.645e-6, 9.728e-7
0.164, -2.627e-6, -1.655e-6, 9.728e-7
0.163, -2.637e-6, -1.661e-6, 9.759e-7
0.162, -2.643e-6, -1.661e-6, 9.820e-7
0.161, -2.646e-6, -1.667e-6, 9.789e-7
0.160, -2.649e-6, -1.667e-6, 9.820e-7
0.159, -2.655e-6, -1.670e-6, 9.850e-7
0.158, -2.667e-6, -1.679e-6, 9.881e-7
0.157, -2.673e-6, -1.682e-6, 9.911e-7
0.156, -2.682e-6, -1.685e-6, 9.972e-7
0.155, -2.682e-6, -1.691e-6, 9.911e-7
0.154, -2.695e-6, -1.694e-6, 1.000e-6
0.153, -2.701e-6, -1.691e-6, 1.009e-6
0.152, -2.704e-6, -1.700e-6, 1.003e-6
0.151, -2.713e-6, -1.706e-6, 1.006e-6
0.150, -2.719e-6, -1.706e-6, 1.012e-6
0.149, -2.725e-6, -1.713e-6, 1.012e-6
0.148, -2.737e-6, -1.716e-6, 1.022e-6
0.147, -2.737e-6, -1.719e-6, 1.019e-6
0.146, -2.749e-6, -1.725e-6, 1.025e-6
0.145, -2.753e-6, -1.725e-6, 1.028e-6
0.144, -2.762e-6, -1.731e-6, 1.031e-6
0.143, -2.771e-6, -1.737e-6, 1.034e-6
0.142, -2.774e-6, -1.737e-6, 1.037e-6
0.141, -2.780e-6, -1.743e-6, 1.037e-6
0.140, -2.789e-6, -1.746e-6, 1.043e-6
0.139, -2.795e-6, -1.749e-6, 1.046e-6
0.138, -2.798e-6, -1.755e-6, 1.043e-6
0.137, -2.807e-6, -1.755e-6, 1.052e-6
0.136, -2.811e-6, -1.755e-6, 1.055e-6
0.135, -2.823e-6, -1.764e-6, 1.058e-6
0.134, -2.829e-6, -1.764e-6, 1.064e-6
0.133, -2.835e-6, -1.771e-6, 1.064e-6
0.132, -2.841e-6, -1.774e-6, 1.067e-6
0.131, -2.850e-6, -1.777e-6, 1.074e-6
0.130, -2.853e-6, -1.783e-6, 1.070e-6
0.129, -2.862e-6, -1.783e-6, 1.080e-6
0.128, -2.865e-6, -1.786e-6, 1.080e-6
0.127, -2.868e-6, -1.792e-6, 1.077e-6
0.126, -2.887e-6, -1.798e-6, 1.089e-6
0.125, -2.887e-6, -1.798e-6, 1.089e-6
0.124, -2.899e-6, -1.810e-6, 1.089e-6
0.123, -2.908e-6, -1.807e-6, 1.101e-6
0.122, -2.908e-6, -1.810e-6, 1.098e-6
0.121, -2.923e-6, -1.822e-6, 1.101e-6
0.120, -2.933e-6, -1.819e-6, 1.113e-6
0.119, -2.926e-6, -1.819e-6, 1.107e-6
0.118, -2.933e-6, -1.825e-6, 1.107e-6
0.117, -2.948e-6, -1.829e-6, 1.119e-6
0.116, -2.951e-6, -1.832e-6, 1.119e-6
0.115, -2.963e-6, -1.841e-6, 1.122e-6
0.114, -2.969e-6, -1.838e-6, 1.131e-6
0.113, -2.969e-6, -1.838e-6, 1.131e-6
0.112, -2.984e-6, -1.850e-6, 1.135e-6
0.111, -2.991e-6, -1.850e-6, 1.141e-6
0.110, -2.994e-6, -1.853e-6, 1.141e-6
0.109, -3.003e-6, -1.859e-6, 1.144e-6
0.108, -3.009e-6, -1.862e-6, 1.147e-6
0.107, -3.015e-6, -1.865e-6, 1.150e-6
0.106, -3.021e-6, -1.865e-6, 1.156e-6
0.105, -3.033e-6, -1.871e-6, 1.162e-6
0.104, -3.042e-6, -1.874e-6, 1.168e-6
0.103, -3.045e-6, -1.877e-6, 1.168e-6
0.102, -3.052e-6, -1.880e-6, 1.171e-6
0.101, -3.058e-6, -1.883e-6, 1.174e-6
0.100, -3.076e-6, -1.890e-6, 1.186e-6
0.099, -3.076e-6, -1.893e-6, 1.183e-6
0.098, -3.082e-6, -1.899e-6, 1.183e-6
0.097, -3.085e-6, -1.896e-6, 1.189e-6
0.096, -3.091e-6, -1.902e-6, 1.189e-6
0.095, -3.100e-6, -1.902e-6, 1.199e-6
0.094, -3.100e-6, -1.902e-6, 1.199e-6
0.093, -3.113e-6, -1.911e-6, 1.202e-6
0.092, -3.122e-6, -1.914e-6, 1.208e-6
0.091, -3.128e-6, -1.914e-6, 1.214e-6
0.090, -3.134e-6, -1.920e-6, 1.214e-6
0.089, -3.140e-6, -1.920e-6, 1.220e-6
0.088, -3.143e-6, -1.923e-6, 1.220e-6
0.087, -3.149e-6, -1.926e-6, 1.223e-6
0.086, -3.152e-6, -1.923e-6, 1.229e-6
0.085, -3.158e-6, -1.929e-6, 1.229e-6
0.084, -3.171e-6, -1.935e-6, 1.235e-6
0.083, -3.174e-6, -1.935e-6, 1.238e-6
0.082, -3.171e-6, -1.935e-6, 1.235e-6
0.081, -3.186e-6, -1.941e-6, 1.244e-6
0.080, -3.189e-6, -1.938e-6, 1.251e-6
0.079, -3.195e-6, -1.944e-6, 1.251e-6
0.078, -3.204e-6, -1.951e-6, 1.254e-6
0.077, -3.207e-6, -1.948e-6, 1.260e-6
0.076, -3.207e-6, -1.951e-6, 1.257e-6
0.075, -3.216e-6, -1.957e-6, 1.260e-6
0.074, -3.216e-6, -1.951e-6, 1.266e-6
0.073, -3.226e-6, -1.960e-6, 1.266e-6
0.072, -3.232e-6, -1.960e-6, 1.272e-6
0.071, -3.232e-6, -1.957e-6, 1.275e-6
0.070, -3.238e-6, -1.963e-6, 1.275e-6
0.069, -3.247e-6, -1.966e-6, 1.281e-6
0.068, -3.253e-6, -1.966e-6, 1.287e-6
0.067, -3.256e-6, -1.969e-6, 1.287e-6
0.066, -3.265e-6, -1.975e-6, 1.290e-6
0.065, -3.265e-6, -1.969e-6, 1.296e-6
0.064, -3.271e-6, -1.975e-6, 1.296e-6
0.063, -3.274e-6, -1.975e-6, 1.299e-6
0.062, -3.280e-6, -1.981e-6, 1.299e-6
0.061, -3.287e-6, -1.981e-6, 1.305e-6
0.060, -3.287e-6, -1.975e-6, 1.312e-6
0.059, -3.287e-6, -1.978e-6, 1.308e-6
0.058, -3.299e-6, -1.984e-6, 1.315e-6
0.057, -3.299e-6, -1.981e-6, 1.318e-6
0.056, -3.302e-6, -1.984e-6, 1.318e-6
0.055, -3.308e-6, -1.987e-6, 1.321e-6
0.054, -3.311e-6, -1.987e-6, 1.324e-6
0.053, -3.311e-6, -1.984e-6, 1.327e-6
0.052, -3.317e-6, -1.987e-6, 1.330e-6
0.051, -3.317e-6, -1.984e-6, 1.333e-6
0.050, -3.323e-6, -1.990e-6, 1.333e-6
0.049, -3.335e-6, -1.990e-6, 1.345e-6
0.048, -3.332e-6, -1.990e-6, 1.342e-6
0.047, -3.338e-6, -1.990e-6, 1.348e-6
0.046, -3.338e-6, -1.990e-6, 1.348e-6
0.045, -3.341e-6, -1.993e-6, 1.348e-6
0.044, -3.351e-6, -1.996e-6, 1.354e-6
0.043, -3.348e-6, -1.993e-6, 1.354e-6
0.042, -3.360e-6, -1.999e-6, 1.360e-6
0.041, -3.360e-6, -1.996e-6, 1.363e-6
0.040, -3.363e-6, -1.996e-6, 1.366e-6
0.039, -3.366e-6, -2.002e-6, 1.363e-6
0.038, -3.375e-6, -1.999e-6, 1.376e-6
0.037, -3.369e-6, -1.996e-6, 1.373e-6
0.036, -3.375e-6, -2.002e-6, 1.373e-6
0.035, -3.384e-6, -1.999e-6, 1.385e-6
0.034, -3.378e-6, -1.996e-6, 1.382e-6
0.033, -3.384e-6, -2.002e-6, 1.382e-6
0.032, -3.387e-6, -1.996e-6, 1.391e-6
0.031, -3.390e-6, -1.999e-6, 1.391e-6
0.030, -3.390e-6, -2.002e-6, 1.388e-6
0.029, -3.393e-6, -1.996e-6, 1.397e-6
0.028, -3.393e-6, -1.999e-6, 1.394e-6
0.027, -3.399e-6, -2.002e-6, 1.397e-6
0.026, -3.399e-6, -1.996e-6, 1.403e-6
0.025, -3.403e-6, -1.999e-6, 1.403e-6
0.024, -3.409e-6, -2.002e-6, 1.406e-6
0.023, -3.412e-6, -2.002e-6, 1.409e-6
0.022, -3.409e-6, -1.996e-6, 1.412e-6
0.021, -3.418e-6, -2.002e-6, 1.415e-6
0.020, -3.415e-6, -1.996e-6, 1.418e-6
0.019, -3.412e-6, -1.999e-6, 1.412e-6
0.018, -3.421e-6, -1.999e-6, 1.421e-6
0.017, -3.424e-6, -1.999e-6, 1.424e-6
0.016, -3.424e-6, -1.999e-6, 1.424e-6
0.015, -3.430e-6, -1.999e-6, 1.431e-6
0.014, -3.427e-6, -1.996e-6, 1.431e-6
0.013, -3.433e-6, -1.999e-6, 1.434e-6
0.012, -3.430e-6, -1.993e-6, 1.437e-6
0.011, -3.430e-6, -1.993e-6, 1.437e-6
0.010, -3.439e-6, -1.996e-6, 1.443e-6
0.009, -3.439e-6, -1.996e-6, 1.443e-6
0.008, -3.433e-6, -1.993e-6, 1.440e-6
0.007, -3.439e-6, -1.993e-6, 1.446e-6
0.006, -3.433e-6, -1.990e-6, 1.443e-6
0.005, -3.436e-6, -1.987e-6, 1.449e-6
0.004, -3.442e-6, -1.990e-6, 1.452e-6
0.003, -3.436e-6, -1.984e-6, 1.452e-6
0.002, -3.442e-6, -1.990e-6, 1.452e-6
0.001, -3.448e-6, -1.990e-6, 1.458e-6
0.000, -3.442e-6, -1.984e-6, 1.458e-6
-0.001, -3.442e-6, -1.984e-6, 1.458e-6
-0.002, -3.439e-6, -1.978e-6, 1.461e-6
-0.003, -3.442e-6, -1.984e-6, 1.458e-6
-0.004, -3.439e-6, -1.978e-6, 1.461e-6
-0.005, -3.448e-6, -1.978e-6, 1.470e-6
-0.006, -3.442e-6, -1.978e-6, 1.464e-6
-0.007, -3.442e-6, -1.975e-6, 1.467e-6
-0.008, -3.442e-6, -1.972e-6, 1.470e-6
-0.009, -3.439e-6, -1.972e-6, 1.467e-6
-0.010, -3.445e-6, -1.972e-6, 1.473e-6
-0.011, -3.442e-6, -1.966e-6, 1.476e-6
-0.012, -3.442e-6, -1.966e-6, 1.476e-6
-0.013, -3.439e-6, -1.963e-6, 1.476e-6
-0.014, -3.436e-6, -1.960e-6, 1.476e-6
-0.015, -3.436e-6, -1.960e-6, 1.476e-6
-0.016, -3.445e-6, -1.963e-6, 1.482e-6
-0.017, -3.436e-6, -1.954e-6, 1.482e-6
-0.018, -3.433e-6, -1.954e-6, 1.479e-6
-0.019, -3.433e-6, -1.951e-6, 1.482e-6
-0.020, -3.430e-6, -1.948e-6, 1.482e-6
-0.021, -3.433e-6, -1.951e-6, 1.482e-6
-0.022, -3.427e-6, -1.941e-6, 1.485e-6
-0.023, -3.427e-6, -1.938e-6, 1.489e-6
-0.024, -3.421e-6, -1.938e-6, 1.482e-6
-0.025, -3.421e-6, -1.935e-6, 1.485e-6
-0.026, -3.415e-6, -1.932e-6, 1.482e-6
-0.027, -3.415e-6, -1.932e-6, 1.482e-6
-0.028, -3.418e-6, -1.926e-6, 1.492e-6
-0.029, -3.409e-6, -1.923e-6, 1.485e-6
-0.030, -3.412e-6, -1.923e-6, 1.489e-6
-0.031, -3.412e-6, -1.920e-6, 1.492e-6
-0.032, -3.409e-6, -1.920e-6, 1.489e-6
-0.033, -3.409e-6, -1.917e-6, 1.492e-6
-0.034, -3.406e-6, -1.914e-6, 1.492e-6
-0.035, -3.403e-6, -1.914e-6, 1.489e-6
-0.036, -3.399e-6, -1.908e-6, 1.492e-6
-0.037, -3.396e-6, -1.908e-6, 1.489e-6
-0.038, -3.387e-6, -1.902e-6, 1.485e-6
-0.039, -3.390e-6, -1.896e-6, 1.495e-6
-0.040, -3.393e-6, -1.899e-6, 1.495e-6
-0.041, -3.387e-6, -1.896e-6, 1.492e-6
-0.042, -3.384e-6, -1.890e-6, 1.495e-6
-0.043, -3.387e-6, -1.893e-6, 1.495e-6
-0.044, -3.384e-6, -1.890e-6, 1.495e-6
-0.045, -3.378e-6, -1.883e-6, 1.495e-6
-0.046, -3.372e-6, -1.883e-6, 1.489e-6
-0.047, -3.375e-6, -1.880e-6, 1.495e-6
-0.048, -3.372e-6, -1.874e-6, 1.498e-6
-0.049, -3.372e-6, -1.877e-6, 1.495e-6
-0.050, -3.363e-6, -1.868e-6, 1.495e-6
-0.051, -3.360e-6, -1.865e-6, 1.495e-6
-0.052, -3.363e-6, -1.871e-6, 1.492e-6
-0.053, -3.360e-6, -1.859e-6, 1.501e-6
-0.054, -3.357e-6, -1.862e-6, 1.495e-6
-0.055, -3.351e-6, -1.859e-6, 1.492e-6
-0.056, -3.357e-6, -1.856e-6, 1.501e-6
-0.057, -3.348e-6, -1.850e-6, 1.498e-6
-0.058, -3.348e-6, -1.853e-6, 1.495e-6
-0.059, -3.351e-6, -1.850e-6, 1.501e-6
-0.060, -3.345e-6, -1.844e-6, 1.501e-6
-0.061, -3.345e-6, -1.847e-6, 1.498e-6
-0.062, -3.335e-6, -1.841e-6, 1.495e-6
-0.063, -3.332e-6, -1.838e-6, 1.495e-6
-0.064, -3.332e-6, -1.835e-6, 1.498e-6
-0.065, -3.329e-6, -1.832e-6, 1.498e-6
-0.066, -3.323e-6, -1.829e-6, 1.495e-6
-0.067, -3.329e-6, -1.829e-6, 1.501e-6
-0.068, -3.320e-6, -1.822e-6, 1.498e-6
-0.069, -3.317e-6, -1.822e-6, 1.495e-6
-0.070, -3.320e-6, -1.822e-6, 1.498e-6
-0.071, -3.317e-6, -1.819e-6, 1.498e-6
-0.072, -3.311e-6, -1.813e-6, 1.498e-6
-0.073, -3.308e-6, -1.813e-6, 1.495e-6
-0.074, -3.305e-6, -1.810e-6, 1.495e-6
-0.075, -3.305e-6, -1.807e-6, 1.498e-6
-0.076, -3.299e-6, -1.801e-6, 1.498e-6
-0.077, -3.296e-6, -1.801e-6, 1.495e-6
-0.078, -3.299e-6, -1.798e-6, 1.501e-6
-0.079, -3.287e-6, -1.792e-6, 1.495e-6
-0.080, -3.283e-6, -1.792e-6, 1.492e-6
-0.081, -3.283e-6, -1.792e-6, 1.492e-6
-0.082, -3.277e-6, -1.786e-6, 1.492e-6
-0.083, -3.274e-6, -1.786e-6, 1.489e-6
-0.084, -3.271e-6, -1.780e-6, 1.492e-6
-0.085, -3.265e-6, -1.774e-6, 1.492e-6
-0.086, -3.265e-6, -1.777e-6, 1.489e-6
-0.087, -3.262e-6, -1.771e-6, 1.492e-6
-0.088, -3.256e-6, -1.768e-6, 1.489e-6
-0.089, -3.256e-6, -1.771e-6, 1.485e-6
-0.090, -3.259e-6, -1.764e-6, 1.495e-6
-0.091, -3.244e-6, -1.761e-6, 1.482e-6
-0.092, -3.253e-6, -1.764e-6, 1.489e-6
-0.093, -3.244e-6, -1.752e-6, 1.492e-6
-0.094, -3.235e-6, -1.752e-6, 1.482e-6
-0.095, -3.238e-6, -1.752e-6, 1.485e-6
-0.096, -3.238e-6, -1.749e-6, 1.489e-6
-0.097, -3.226e-6, -1.746e-6, 1.479e-6
-0.098, -3.229e-6, -1.743e-6, 1.485e-6
-0.099, -3.216e-6, -1.734e-6, 1.482e-6
-0.100, -3.213e-6, -1.737e-6, 1.476e-6
-0.101, -3.213e-6, -1.731e-6, 1.482e-6
-0.102, -3.207e-6, -1.731e-6, 1.476e-6
-0.103, -3.204e-6, -1.728e-6, 1.476e-6
-0.104, -3.201e-6, -1.725e-6, 1.476e-6
-0.105, -3.198e-6, -1.722e-6, 1.476e-6
-0.106, -3.195e-6, -1.722e-6, 1.473e-6
-0.107, -3.189e-6, -1.716e-6, 1.473e-6
-0.108, -3.183e-6, -1.716e-6, 1.467e-6
-0.109, -3.180e-6, -1.713e-6, 1.467e-6
-0.110, -3.180e-6, -1.710e-6, 1.470e-6
-0.111, -3.171e-6, -1.703e-6, 1.467e-6
-0.112, -3.174e-6, -1.703e-6, 1.470e-6
-0.113, -3.168e-6, -1.700e-6, 1.467e-6
-0.114, -3.161e-6, -1.697e-6, 1.464e-6
-0.115, -3.161e-6, -1.697e-6, 1.464e-6
-0.116, -3.152e-6, -1.691e-6, 1.461e-6
-0.117, -3.152e-6, -1.691e-6, 1.461e-6
-0.118, -3.143e-6, -1.685e-6, 1.458e-6
-0.119, -3.143e-6, -1.682e-6, 1.461e-6
-0.120, -3.140e-6, -1.685e-6, 1.455e-6
-0.121, -3.134e-6, -1.679e-6, 1.455e-6
-0.122, -3.131e-6, -1.676e-6, 1.455e-6
-0.123, -3.137e-6, -1.679e-6, 1.458e-6
-0.124, -3.125e-6, -1.670e-6, 1.455e-6
-0.125, -3.119e-6, -1.670e-6, 1.449e-6
-0.126, -3.119e-6, -1.667e-6, 1.452e-6
-0.127, -3.116e-6, -1.664e-6, 1.452e-6
-0.128, -3.116e-6, -1.667e-6, 1.449e-6
-0.129, -3.110e-6, -1.664e-6, 1.446e-6
-0.130, -3.103e-6, -1.658e-6, 1.446e-6
-0.131, -3.097e-6, -1.661e-6, 1.437e-6
-0.132, -3.107e-6, -1.658e-6, 1.449e-6
-0.133, -3.094e-6, -1.652e-6, 1.443e-6
-0.134, -3.091e-6, -1.652e-6, 1.440e-6
-0.135, -3.097e-6, -1.652e-6, 1.446e-6
-0.136, -3.082e-6, -1.639e-6, 1.443e-6
-0.137, -3.088e-6, -1.648e-6, 1.440e-6
-0.138, -3.085e-6, -1.642e-6, 1.443e-6
-0.139, -3.076e-6, -1.639e-6, 1.437e-6
-0.140, -3.076e-6, -1.642e-6, 1.434e-6
-0.141, -3.076e-6, -1.636e-6, 1.440e-6
-0.142, -3.067e-6, -1.630e-6, 1.437e-6
-0.143, -3.067e-6, -1.636e-6, 1.431e-6
-0.144, -3.064e-6, -1.627e-6, 1.437e-6
-0.145, -3.058e-6, -1.627e-6, 1.431e-6
-0.146, -3.061e-6, -1.630e-6, 1.431e-6
-0.147, -3.061e-6, -1.627e-6, 1.434e-6
-0.148, -3.055e-6, -1.624e-6, 1.431e-6
-0.149, -3.052e-6, -1.624e-6, 1.427e-6
-0.150, -3.049e-6, -1.618e-6, 1.431e-6
-0.151, -3.052e-6, -1.621e-6, 1.431e-6
-0.152, -3.045e-6, -1.618e-6, 1.427e-6
-0.153, -3.039e-6, -1.615e-6, 1.424e-6
-0.154, -3.039e-6, -1.615e-6, 1.424e-6
-0.155, -3.036e-6, -1.612e-6, 1.424e-6
-0.156, -3.036e-6, -1.612e-6, 1.424e-6
-0.157, -3.030e-6, -1.609e-6, 1.421e-6
-0.158, -3.030e-6, -1.606e-6, 1.424e-6
-0.159, -3.027e-6, -1.606e-6, 1.421e-6
-0.160, -3.024e-6, -1.606e-6, 1.418e-6
-0.161, -3.024e-6, -1.603e-6, 1.421e-6
-0.162, -3.021e-6, -1.603e-6, 1.418e-6
-0.163, -3.018e-6, -1.603e-6, 1.415e-6
-0.164, -3.021e-6, -1.600e-6, 1.421e-6
-0.165, -3.018e-6, -1.600e-6, 1.418e-6
-0.166, -3.015e-6, -1.597e-6, 1.418e-6
-0.167, -3.000e-6, -1.587e-6, 1.412e-6
-0.168, -3.006e-6, -1.594e-6, 1.412e-6
-0.169, -3.006e-6, -1.594e-6, 1.412e-6
-0.170, -2.997e-6, -1.584e-6, 1.412e-6
-0.171, -3.000e-6, -1.591e-6, 1.409e-6
-0.172, -2.994e-6, -1.581e-6, 1.412e-6
-0.173, -2.991e-6, -1.584e-6, 1.406e-6
-0.174, -2.994e-6, -1.587e-6, 1.406e-6
-0.175, -2.987e-6, -1.578e-6, 1.409e-6
-0.176, -2.987e-6, -1.584e-6, 1.403e-6
-0.177, -2.987e-6, -1.581e-6, 1.406e-6
-0.178, -2.978e-6, -1.572e-6, 1.406e-6
-0.179, -2.975e-6, -1.578e-6, 1.397e-6
-0.180, -2.972e-6, -1.575e-6, 1.397e-6
-0.181, -2.972e-6, -1.569e-6, 1.403e-6
-0.182, -2.966e-6, -1.572e-6, 1.394e-6
-0.183, -2.972e-6, -1.572e-6, 1.400e-6
-0.184, -2.966e-6, -1.566e-6, 1.400e-6
-0.185, -2.957e-6, -1.566e-6, 1.391e-6
-0.186, -2.963e-6, -1.566e-6, 1.397e-6
-0.187, -2.957e-6, -1.563e-6, 1.394e-6
-0.188, -2.954e-6, -1.563e-6, 1.391e-6
-0.189, -2.954e-6, -1.563e-6, 1.391e-6
-0.190, -2.951e-6, -1.560e-6, 1.391e-6
-0.191, -2.948e-6, -1.557e-6, 1.391e-6
-0.192, -2.951e-6, -1.560e-6, 1.391e-6
-0.193, -2.942e-6, -1.554e-6, 1.388e-6
-0.194, -2.939e-6, -1.554e-6, 1.385e-6
-0.195, -2.936e-6, -1.548e-6, 1.388e-6
-0.196, -2.926e-6, -1.548e-6, 1.379e-6
-0.197, -2.926e-6, -1.548e-6, 1.379e-6
-0.198, -2.933e-6, -1.551e-6, 1.382e-6
-0.199, -2.923e-6, -1.542e-6, 1.382e-6
-0.200, -2.920e-6, -1.542e-6, 1.379e-6
-0.201, -2.920e-6, -1.542e-6, 1.379e-6
-0.202, -2.920e-6, -1.542e-6, 1.379e-6
-0.203, -2.917e-6, -1.539e-6, 1.379e-6
-0.204, -2.914e-6, -1.536e-6, 1.379e-6
-0.205, -2.911e-6, -1.536e-6, 1.376e-6
-0.206, -2.911e-6, -1.536e-6, 1.376e-6
-0.207, -2.905e-6, -1.533e-6, 1.373e-6
-0.208, -2.908e-6, -1.536e-6, 1.373e-6
-0.209, -2.902e-6, -1.529e-6, 1.373e-6
-0.210, -2.896e-6, -1.526e-6, 1.370e-6
-0.211, -2.902e-6, -1.529e-6, 1.373e-6
-0.212, -2.899e-6, -1.526e-6, 1.373e-6
-0.213, -2.896e-6, -1.529e-6, 1.366e-6
-0.214, -2.899e-6, -1.529e-6, 1.370e-6
-0.215, -2.890e-6, -1.523e-6, 1.366e-6
-0.216, -2.893e-6, -1.526e-6, 1.366e-6
-0.217, -2.893e-6, -1.523e-6, 1.370e-6
-0.218, -2.887e-6, -1.520e-6, 1.366e-6
-0.219, -2.881e-6, -1.520e-6, 1.360e-6
-0.220, -2.884e-6, -1.517e-6, 1.366e-6
-0.221, -2.881e-6, -1.517e-6, 1.363e-6
-0.222, -2.881e-6, -1.523e-6, 1.357e-6
-0.223, -2.878e-6, -1.514e-6, 1.363e-6
-0.224, -2.875e-6, -1.514e-6, 1.360e-6
-0.225, -2.878e-6, -1.520e-6, 1.357e-6
-0.226, -2.872e-6, -1.511e-6, 1.360e-6
-0.227, -2.872e-6, -1.511e-6, 1.360e-6
-0.228, -2.865e-6, -1.511e-6, 1.354e-6
-0.229, -2.865e-6, -1.505e-6, 1.360e-6
-0.230, -2.865e-6, -1.505e-6, 1.360e-6
-0.231, -2.865e-6, -1.511e-6, 1.354e-6
-0.232, -2.862e-6, -1.505e-6, 1.357e-6
-0.233, -2.862e-6, -1.505e-6, 1.357e-6
-0.234, -2.865e-6, -1.508e-6, 1.357e-6
-0.235, -2.865e-6, -1.508e-6, 1.357e-6
-0.236, -2.859e-6, -1.505e-6, 1.354e-6
-0.237, -2.859e-6, -1.505e-6, 1.354e-6
-0.238, -2.862e-6, -1.505e-6, 1.357e-6
-0.239, -2.856e-6, -1.502e-6, 1.354e-6
-0.240, -2.856e-6, -1.502e-6, 1.354e-6
-0.241, -2.853e-6, -1.499e-6, 1.354e-6
-0.242, -2.850e-6, -1.499e-6, 1.351e-6
-0.243, -2.859e-6, -1.502e-6, 1.357e-6
-0.244, -2.844e-6, -1.493e-6, 1.351e-6
-0.245, -2.853e-6, -1.499e-6, 1.354e-6
-0.246, -2.850e-6, -1.496e-6, 1.354e-6
-0.247, -2.847e-6, -1.496e-6, 1.351e-6
-0.248, -2.844e-6, -1.493e-6, 1.351e-6
-0.249, -2.844e-6, -1.493e-6, 1.351e-6
-0.250, -2.844e-6, -1.496e-6, 1.348e-6
-0.251, -2.841e-6, -1.490e-6, 1.351e-6
-0.252, -2.841e-6, -1.490e-6, 1.351e-6
-0.253, -2.832e-6, -1.487e-6, 1.345e-6
-0.254, -2.841e-6, -1.493e-6, 1.348e-6
-0.255, -2.835e-6, -1.490e-6, 1.345e-6
-0.256, -2.835e-6, -1.490e-6, 1.345e-6
-0.257, -2.835e-6, -1.484e-6, 1.351e-6
-0.258, -2.832e-6, -1.487e-6, 1.345e-6
-0.259, -2.832e-6, -1.487e-6, 1.345e-6
-0.260, -2.829e-6, -1.484e-6, 1.345e-6
-0.261, -2.817e-6, -1.478e-6, 1.339e-6
-0.262, -2.823e-6, -1.481e-6, 1.342e-6
-0.263, -2.826e-6, -1.478e-6, 1.348e-6
-0.264, -2.823e-6, -1.481e-6, 1.342e-6
-0.265, -2.826e-6, -1.484e-6, 1.342e-6
-0.266, -2.823e-6, -1.478e-6, 1.345e-6
-0.267, -2.804e-6, -1.472e-6, 1.333e-6
-0.268, -2.820e-6, -1.478e-6, 1.342e-6
-0.269, -2.811e-6, -1.472e-6, 1.339e-6
-0.270, -2.814e-6, -1.475e-6, 1.339e-6
-0.271, -2.811e-6, -1.475e-6, 1.336e-6
-0.272, -2.811e-6, -1.472e-6, 1.339e-6
-0.273, -2.807e-6, -1.472e-6, 1.336e-6
-0.274, -2.817e-6, -1.475e-6, 1.342e-6
-0.275, -2.804e-6, -1.468e-6, 1.336e-6
-0.276, -2.804e-6, -1.472e-6, 1.333e-6
-0.277, -2.801e-6, -1.465e-6, 1.336e-6
-0.278, -2.801e-6, -1.468e-6, 1.333e-6
-0.279, -2.798e-6, -1.465e-6, 1.333e-6
-0.280, -2.798e-6, -1.462e-6, 1.336e-6
-0.281, -2.795e-6, -1.462e-6, 1.333e-6
-0.282, -2.792e-6, -1.462e-6, 1.330e-6
-0.283, -2.792e-6, -1.459e-6, 1.333e-6
-0.284, -2.792e-6, -1.465e-6, 1.327e-6
-0.285, -2.789e-6, -1.456e-6, 1.333e-6
-0.286, -2.789e-6, -1.456e-6, 1.333e-6
-0.287, -2.789e-6, -1.459e-6, 1.330e-6
-0.288, -2.789e-6, -1.459e-6, 1.330e-6
-0.289, -2.786e-6, -1.456e-6, 1.330e-6
-0.290, -2.780e-6, -1.453e-6, 1.327e-6
-0.291, -2.777e-6, -1.450e-6, 1.327e-6
-0.292, -2.777e-6, -1.453e-6, 1.324e-6
-0.293, -2.777e-6, -1.450e-6, 1.327e-6
-0.294, -2.774e-6, -1.450e-6, 1.324e-6
-0.295, -2.774e-6, -1.450e-6, 1.324e-6
-0.296, -2.768e-6, -1.447e-6, 1.321e-6
-0.297, -2.765e-6, -1.444e-6, 1.321e-6
-0.298, -2.768e-6, -1.450e-6, 1.318e-6
-0.299, -2.777e-6, -1.450e-6, 1.327e-6
-0.300, -2.768e-6, -1.444e-6, 1.324e-6
-0.301, -2.771e-6, -1.450e-6, 1.321e-6
-0.302, -2.768e-6, -1.444e-6, 1.324e-6
-0.303, -2.756e-6, -1.438e-6, 1.318e-6
-0.304, -2.759e-6, -1.444e-6, 1.315e-6
-0.305, -2.765e-6, -1.444e-6, 1.321e-6
-0.306, -2.759e-6, -1.438e-6, 1.321e-6
-0.307, -2.759e-6, -1.444e-6, 1.315e-6
-0.308, -2.756e-6, -1.435e-6, 1.321e-6
-0.309, -2.756e-6, -1.438e-6, 1.318e-6
-0.310, -2.756e-6, -1.441e-6, 1.315e-6
-0.311, -2.762e-6, -1.441e-6, 1.321e-6
-0.312, -2.753e-6, -1.432e-6, 1.321e-6
-0.313, -2.756e-6, -1.441e-6, 1.315e-6
-0.314, -2.753e-6, -1.435e-6, 1.318e-6
-0.315, -2.749e-6, -1.435e-6, 1.315e-6
-0.316, -2.759e-6, -1.441e-6, 1.318e-6
-0.317, -2.759e-6, -1.438e-6, 1.321e-6
-0.318, -2.756e-6, -1.441e-6, 1.315e-6
-0.319, -2.749e-6, -1.435e-6, 1.315e-6
-0.320, -2.759e-6, -1.438e-6, 1.321e-6
-0.321, -2.753e-6, -1.438e-6, 1.315e-6
-0.322, -2.749e-6, -1.435e-6, 1.315e-6
-0.323, -2.746e-6, -1.432e-6, 1.315e-6
-0.324, -2.753e-6, -1.438e-6, 1.315e-6
-0.325, -2.749e-6, -1.432e-6, 1.318e-6
-0.326, -2.746e-6, -1.432e-6, 1.315e-6
-0.327, -2.749e-6, -1.435e-6, 1.315e-6
-0.328, -2.746e-6, -1.432e-6, 1.315e-6
-0.329, -2.749e-6, -1.435e-6, 1.315e-6
-0.330, -2.749e-6, -1.435e-6, 1.315e-6
-0.331, -2.749e-6, -1.432e-6, 1.318e-6
-0.332, -2.743e-6, -1.432e-6, 1.312e-6
-0.333, -2.746e-6, -1.432e-6, 1.315e-6
-0.334, -2.743e-6, -1.432e-6, 1.312e-6
-0.335, -2.743e-6, -1.432e-6, 1.312e-6
-0.336, -2.749e-6, -1.435e-6, 1.315e-6
-0.337, -2.740e-6, -1.429e-6, 1.312e-6
-0.338, -2.740e-6, -1.432e-6, 1.308e-6
-0.339, -2.740e-6, -1.429e-6, 1.312e-6
-0.340, -2.743e-6, -1.432e-6, 1.312e-6
-0.341, -2.737e-6, -1.432e-6, 1.305e-6
-0.342, -2.740e-6, -1.429e-6, 1.312e-6
-0.343, -2.740e-6, -1.432e-6, 1.308e-6
-0.344, -2.734e-6, -1.429e-6, 1.305e-6
-0.345, -2.737e-6, -1.426e-6, 1.312e-6
-0.346, -2.734e-6, -1.429e-6, 1.305e-6
-0.347, -2.737e-6, -1.429e-6, 1.308e-6
-0.348, -2.740e-6, -1.426e-6, 1.315e-6
-0.349, -2.734e-6, -1.432e-6, 1.302e-6
-0.350, -2.731e-6, -1.426e-6, 1.305e-6
-0.351, -2.734e-6, -1.423e-6, 1.312e-6
-0.352, -2.728e-6, -1.426e-6, 1.302e-6
-0.353, -2.731e-6, -1.426e-6, 1.305e-6
-0.354, -2.731e-6, -1.426e-6, 1.305e-6
-0.355, -2.728e-6, -1.429e-6, 1.299e-6
-0.356, -2.734e-6, -1.432e-6, 1.302e-6
-0.357, -2.725e-6, -1.423e-6, 1.302e-6
-0.358, -2.728e-6, -1.429e-6, 1.299e-6
-0.359, -2.734e-6, -1.429e-6, 1.305e-6
-0.360, -2.728e-6, -1.426e-6, 1.302e-6
-0.361, -2.728e-6, -1.429e-6, 1.299e-6
-0.362, -2.731e-6, -1.429e-6, 1.302e-6
-0.363, -2.731e-6, -1.429e-6, 1.302e-6
-0.364, -2.722e-6, -1.426e-6, 1.296e-6
-0.365, -2.728e-6, -1.429e-6, 1.299e-6
-0.366, -2.725e-6, -1.429e-6, 1.296e-6
-0.367, -2.719e-6, -1.426e-6, 1.293e-6
-0.368, -2.719e-6, -1.423e-6, 1.296e-6
-0.369, -2.722e-6, -1.429e-6, 1.293e-6
-0.370, -2.722e-6, -1.429e-6, 1.293e-6
-0.371, -2.722e-6, -1.426e-6, 1.296e-6
-0.372, -2.722e-6, -1.429e-6, 1.293e-6
-0.373, -2.719e-6, -1.426e-6, 1.293e-6
-0.374, -2.716e-6, -1.426e-6, 1.290e-6
-0.375, -2.716e-6, -1.426e-6, 1.290e-6
-0.376, -2.719e-6, -1.429e-6, 1.290e-6
-0.377, -2.716e-6, -1.426e-6, 1.290e-6
-0.378, -2.719e-6, -1.426e-6, 1.293e-6
-0.379, -2.716e-6, -1.429e-6, 1.287e-6
-0.380, -2.722e-6, -1.432e-6, 1.290e-6
-0.381, -2.725e-6, -1.435e-6, 1.290e-6
-0.382, -2.719e-6, -1.429e-6, 1.290e-6
-0.383, -2.716e-6, -1.432e-6, 1.284e-6
-0.384, -2.719e-6, -1.432e-6, 1.287e-6
-0.385, -2.719e-6, -1.432e-6, 1.287e-6
-0.386, -2.716e-6, -1.435e-6, 1.281e-6
-0.387, -2.725e-6, -1.438e-6, 1.287e-6
-0.388, -2.716e-6, -1.432e-6, 1.284e-6
-0.389, -2.716e-6, -1.435e-6, 1.281e-6
-0.390, -2.725e-6, -1.438e-6, 1.287e-6
-0.391, -2.719e-6, -1.432e-6, 1.287e-6
-0.392, -2.722e-6, -1.441e-6, 1.281e-6
-0.393, -2.722e-6, -1.438e-6, 1.284e-6
-0.394, -2.719e-6, -1.435e-6, 1.284e-6
-0.395, -2.722e-6, -1.447e-6, 1.275e-6
-0.396, -2.728e-6, -1.441e-6, 1.287e-6
-0.397, -2.728e-6, -1.441e-6, 1.287e-6
-0.398, -2.725e-6, -1.444e-6, 1.281e-6
-0.399, -2.731e-6, -1.444e-6, 1.287e-6
-0.400, -2.728e-6, -1.447e-6, 1.281e-6
