Feb. 28, 2018   14:23:07
Square Wave Voltammetry
File: c:\users\electrochemist\desktop\2018\28022018_unbuffered_9,2\48_e6_9,2_0118_ph7,70_3.txt
Data Source:  Experiment
Instrument Model:  CHI1040A
Header: 
Note: 

Init E (V) = 0.5
Final E (V) = -0.05
Incr E (V) = 0.001
Amplitude (V) = 0.1
Frequency (Hz) = 150
Quiet Time (sec) = 0
Sensitivity (A/V) = 1e-6

Difference:

Forward:

Reverse:

Potential/V, Diff(i/A), For(i/A), Rev(i/A)

0.499, -7.061e-7, -1.703e-7, 5.358e-7
0.498, -8.557e-7, -3.913e-7, 4.644e-7
0.497, -8.462e-7, -4.077e-7, 4.385e-7
0.496, -8.380e-7, -4.148e-7, 4.232e-7
0.495, -8.313e-7, -4.175e-7, 4.137e-7
0.494, -8.255e-7, -4.196e-7, 4.058e-7
0.493, -8.200e-7, -4.212e-7, 3.988e-7
0.492, -8.181e-7, -4.221e-7, 3.960e-7
0.491, -8.132e-7, -4.233e-7, 3.899e-7
0.490, -8.142e-7, -4.273e-7, 3.869e-7
0.489, -8.105e-7, -4.267e-7, 3.838e-7
0.488, -8.074e-7, -4.270e-7, 3.805e-7
0.487, -8.056e-7, -4.282e-7, 3.774e-7
0.486, -8.062e-7, -4.285e-7, 3.777e-7
0.485, -8.038e-7, -4.291e-7, 3.747e-7
0.484, -8.004e-7, -4.303e-7, 3.701e-7
0.483, -8.026e-7, -4.309e-7, 3.716e-7
0.482, -7.998e-7, -4.306e-7, 3.692e-7
0.481, -7.989e-7, -4.315e-7, 3.674e-7
0.480, -7.995e-7, -4.312e-7, 3.683e-7
0.479, -7.983e-7, -4.328e-7, 3.655e-7
0.478, -7.968e-7, -4.325e-7, 3.643e-7
0.477, -7.974e-7, -4.331e-7, 3.643e-7
0.476, -7.955e-7, -4.325e-7, 3.631e-7
0.475, -7.980e-7, -4.358e-7, 3.622e-7
0.474, -7.962e-7, -4.349e-7, 3.613e-7
0.473, -7.965e-7, -4.355e-7, 3.610e-7
0.472, -7.952e-7, -4.370e-7, 3.582e-7
0.471, -7.955e-7, -4.346e-7, 3.610e-7
0.470, -7.946e-7, -4.364e-7, 3.582e-7
0.469, -7.937e-7, -4.367e-7, 3.570e-7
0.468, -7.949e-7, -4.367e-7, 3.582e-7
0.467, -7.946e-7, -4.389e-7, 3.558e-7
0.466, -7.937e-7, -4.373e-7, 3.564e-7
0.465, -7.940e-7, -4.373e-7, 3.567e-7
0.464, -7.922e-7, -4.370e-7, 3.552e-7
0.463, -7.937e-7, -4.401e-7, 3.536e-7
0.462, -7.916e-7, -4.386e-7, 3.530e-7
0.461, -7.919e-7, -4.389e-7, 3.530e-7
0.460, -7.931e-7, -4.401e-7, 3.530e-7
0.459, -7.925e-7, -4.386e-7, 3.539e-7
0.458, -7.943e-7, -4.413e-7, 3.530e-7
0.457, -7.928e-7, -4.416e-7, 3.512e-7
0.456, -7.946e-7, -4.413e-7, 3.533e-7
0.455, -7.946e-7, -4.419e-7, 3.527e-7
0.454, -7.937e-7, -4.431e-7, 3.506e-7
0.453, -7.949e-7, -4.434e-7, 3.515e-7
0.452, -7.922e-7, -4.431e-7, 3.491e-7
0.451, -7.940e-7, -4.438e-7, 3.503e-7
0.450, -7.943e-7, -4.434e-7, 3.509e-7
0.449, -7.952e-7, -4.453e-7, 3.500e-7
0.448, -7.959e-7, -4.456e-7, 3.503e-7
0.447, -7.962e-7, -4.459e-7, 3.503e-7
0.446, -7.943e-7, -4.462e-7, 3.481e-7
0.445, -7.943e-7, -4.465e-7, 3.478e-7
0.444, -7.946e-7, -4.462e-7, 3.484e-7
0.443, -7.959e-7, -4.468e-7, 3.491e-7
0.442, -7.968e-7, -4.483e-7, 3.484e-7
0.441, -7.962e-7, -4.462e-7, 3.500e-7
0.440, -7.949e-7, -4.477e-7, 3.472e-7
0.439, -7.971e-7, -4.489e-7, 3.481e-7
0.438, -7.983e-7, -4.489e-7, 3.494e-7
0.437, -7.949e-7, -4.483e-7, 3.466e-7
0.436, -7.968e-7, -4.499e-7, 3.469e-7
0.435, -7.980e-7, -4.502e-7, 3.478e-7
0.434, -8.001e-7, -4.508e-7, 3.494e-7
0.433, -7.998e-7, -4.511e-7, 3.487e-7
0.432, -7.983e-7, -4.505e-7, 3.478e-7
0.431, -7.989e-7, -4.523e-7, 3.466e-7
0.430, -7.992e-7, -4.520e-7, 3.472e-7
0.429, -7.992e-7, -4.526e-7, 3.466e-7
0.428, -8.007e-7, -4.538e-7, 3.469e-7
0.427, -7.998e-7, -4.529e-7, 3.469e-7
0.426, -7.995e-7, -4.529e-7, 3.466e-7
0.425, -8.007e-7, -4.538e-7, 3.469e-7
0.424, -8.017e-7, -4.553e-7, 3.463e-7
0.423, -8.013e-7, -4.547e-7, 3.466e-7
0.422, -8.023e-7, -4.569e-7, 3.454e-7
0.421, -8.029e-7, -4.569e-7, 3.460e-7
0.420, -8.038e-7, -4.569e-7, 3.469e-7
0.419, -8.020e-7, -4.575e-7, 3.445e-7
0.418, -8.047e-7, -4.581e-7, 3.466e-7
0.417, -8.035e-7, -4.569e-7, 3.466e-7
0.416, -8.044e-7, -4.587e-7, 3.457e-7
0.415, -8.065e-7, -4.593e-7, 3.472e-7
0.414, -8.062e-7, -4.578e-7, 3.484e-7
0.413, -8.074e-7, -4.614e-7, 3.460e-7
0.412, -8.096e-7, -4.621e-7, 3.475e-7
0.411, -8.062e-7, -4.602e-7, 3.460e-7
0.410, -8.081e-7, -4.627e-7, 3.454e-7
0.409, -8.087e-7, -4.618e-7, 3.469e-7
0.408, -8.102e-7, -4.624e-7, 3.478e-7
0.407, -8.084e-7, -4.630e-7, 3.454e-7
0.406, -8.111e-7, -4.633e-7, 3.478e-7
0.405, -8.111e-7, -4.636e-7, 3.475e-7
0.404, -8.102e-7, -4.651e-7, 3.451e-7
0.403, -8.114e-7, -4.642e-7, 3.472e-7
0.402, -8.126e-7, -4.657e-7, 3.469e-7
0.401, -8.099e-7, -4.654e-7, 3.445e-7
0.400, -8.145e-7, -4.669e-7, 3.475e-7
0.399, -8.132e-7, -4.657e-7, 3.475e-7
0.398, -8.154e-7, -4.688e-7, 3.466e-7
0.397, -8.175e-7, -4.688e-7, 3.487e-7
0.396, -8.148e-7, -4.669e-7, 3.478e-7
0.395, -8.163e-7, -4.697e-7, 3.466e-7
0.394, -8.175e-7, -4.685e-7, 3.491e-7
0.393, -8.178e-7, -4.691e-7, 3.487e-7
0.392, -8.166e-7, -4.706e-7, 3.460e-7
0.391, -8.197e-7, -4.715e-7, 3.481e-7
0.390, -8.190e-7, -4.703e-7, 3.487e-7
0.389, -8.206e-7, -4.734e-7, 3.472e-7
0.388, -8.236e-7, -4.737e-7, 3.500e-7
0.387, -8.212e-7, -4.724e-7, 3.487e-7
0.386, -8.221e-7, -4.746e-7, 3.475e-7
0.385, -8.209e-7, -4.737e-7, 3.472e-7
0.384, -8.218e-7, -4.737e-7, 3.481e-7
0.383, -8.230e-7, -4.746e-7, 3.484e-7
0.382, -8.273e-7, -4.773e-7, 3.500e-7
0.381, -8.248e-7, -4.755e-7, 3.494e-7
0.380, -8.273e-7, -4.788e-7, 3.484e-7
0.379, -8.288e-7, -4.788e-7, 3.500e-7
0.378, -8.258e-7, -4.764e-7, 3.494e-7
0.377, -8.303e-7, -4.813e-7, 3.491e-7
0.376, -8.300e-7, -4.791e-7, 3.509e-7
0.375, -8.291e-7, -4.788e-7, 3.503e-7
0.374, -8.300e-7, -4.810e-7, 3.490e-7
0.373, -8.309e-7, -4.810e-7, 3.500e-7
0.372, -8.309e-7, -4.810e-7, 3.500e-7
0.371, -8.343e-7, -4.834e-7, 3.509e-7
0.370, -8.349e-7, -4.834e-7, 3.515e-7
0.369, -8.343e-7, -4.828e-7, 3.515e-7
0.368, -8.352e-7, -4.853e-7, 3.500e-7
0.367, -8.377e-7, -4.856e-7, 3.521e-7
0.366, -8.377e-7, -4.849e-7, 3.527e-7
0.365, -8.383e-7, -4.874e-7, 3.509e-7
0.364, -8.377e-7, -4.859e-7, 3.518e-7
0.363, -8.389e-7, -4.868e-7, 3.521e-7
0.362, -8.404e-7, -4.883e-7, 3.521e-7
0.361, -8.413e-7, -4.895e-7, 3.518e-7
0.360, -8.398e-7, -4.880e-7, 3.518e-7
0.359, -8.416e-7, -4.898e-7, 3.518e-7
0.358, -8.444e-7, -4.904e-7, 3.539e-7
0.357, -8.413e-7, -4.889e-7, 3.524e-7
0.356, -8.447e-7, -4.923e-7, 3.524e-7
0.355, -8.471e-7, -4.923e-7, 3.548e-7
0.354, -8.459e-7, -4.917e-7, 3.542e-7
0.353, -8.462e-7, -4.932e-7, 3.530e-7
0.352, -8.486e-7, -4.938e-7, 3.548e-7
0.351, -8.474e-7, -4.935e-7, 3.539e-7
0.350, -8.511e-7, -4.972e-7, 3.539e-7
0.349, -8.523e-7, -4.965e-7, 3.558e-7
0.348, -8.486e-7, -4.947e-7, 3.539e-7
0.347, -8.520e-7, -4.978e-7, 3.542e-7
0.346, -8.520e-7, -4.962e-7, 3.558e-7
0.345, -8.538e-7, -4.972e-7, 3.567e-7
0.344, -8.557e-7, -4.999e-7, 3.558e-7
0.343, -8.551e-7, -4.993e-7, 3.558e-7
0.342, -8.569e-7, -5.002e-7, 3.567e-7
0.341, -8.593e-7, -5.023e-7, 3.570e-7
0.340, -8.593e-7, -5.017e-7, 3.576e-7
0.339, -8.612e-7, -5.023e-7, 3.588e-7
0.338, -8.599e-7, -5.036e-7, 3.564e-7
0.337, -8.633e-7, -5.030e-7, 3.603e-7
0.336, -8.627e-7, -5.039e-7, 3.588e-7
0.335, -8.627e-7, -5.057e-7, 3.570e-7
0.334, -8.648e-7, -5.048e-7, 3.600e-7
0.333, -8.648e-7, -5.060e-7, 3.588e-7
0.332, -8.682e-7, -5.091e-7, 3.591e-7
0.331, -8.676e-7, -5.075e-7, 3.600e-7
0.330, -8.676e-7, -5.075e-7, 3.600e-7
0.329, -8.697e-7, -5.100e-7, 3.597e-7
0.328, -8.724e-7, -5.091e-7, 3.634e-7
0.327, -8.700e-7, -5.088e-7, 3.613e-7
0.326, -8.731e-7, -5.115e-7, 3.616e-7
0.325, -8.749e-7, -5.115e-7, 3.634e-7
0.324, -8.752e-7, -5.118e-7, 3.634e-7
0.323, -8.755e-7, -5.133e-7, 3.622e-7
0.322, -8.776e-7, -5.136e-7, 3.640e-7
0.321, -8.786e-7, -5.145e-7, 3.640e-7
0.320, -8.786e-7, -5.142e-7, 3.643e-7
0.319, -8.807e-7, -5.152e-7, 3.655e-7
0.318, -8.795e-7, -5.155e-7, 3.640e-7
0.317, -8.807e-7, -5.176e-7, 3.631e-7
0.316, -8.853e-7, -5.179e-7, 3.674e-7
0.315, -8.850e-7, -5.176e-7, 3.674e-7
0.314, -8.847e-7, -5.203e-7, 3.643e-7
0.313, -8.874e-7, -5.197e-7, 3.677e-7
0.312, -8.862e-7, -5.194e-7, 3.667e-7
0.311, -8.895e-7, -5.219e-7, 3.677e-7
0.310, -8.892e-7, -5.222e-7, 3.671e-7
0.309, -8.886e-7, -5.207e-7, 3.680e-7
0.308, -8.944e-7, -5.261e-7, 3.683e-7
0.307, -8.941e-7, -5.249e-7, 3.692e-7
0.306, -8.929e-7, -5.252e-7, 3.677e-7
0.305, -8.953e-7, -5.264e-7, 3.689e-7
0.304, -8.959e-7, -5.258e-7, 3.701e-7
0.303, -8.962e-7, -5.264e-7, 3.698e-7
0.302, -8.984e-7, -5.295e-7, 3.689e-7
0.301, -8.984e-7, -5.268e-7, 3.716e-7
0.300, -8.981e-7, -5.280e-7, 3.701e-7
0.299, -9.008e-7, -5.307e-7, 3.701e-7
0.298, -9.036e-7, -5.319e-7, 3.716e-7
0.297, -9.020e-7, -5.298e-7, 3.722e-7
0.296, -9.033e-7, -5.326e-7, 3.707e-7
0.295, -9.072e-7, -5.338e-7, 3.735e-7
0.294, -9.039e-7, -5.322e-7, 3.716e-7
0.293, -9.091e-7, -5.347e-7, 3.744e-7
0.292, -9.088e-7, -5.344e-7, 3.744e-7
0.291, -9.103e-7, -5.353e-7, 3.750e-7
0.290, -9.124e-7, -5.374e-7, 3.750e-7
0.289, -9.143e-7, -5.377e-7, 3.765e-7
0.288, -9.121e-7, -5.377e-7, 3.744e-7
0.287, -9.146e-7, -5.390e-7, 3.756e-7
0.286, -9.176e-7, -5.402e-7, 3.774e-7
0.285, -9.158e-7, -5.405e-7, 3.753e-7
0.284, -9.191e-7, -5.423e-7, 3.768e-7
0.283, -9.213e-7, -5.423e-7, 3.790e-7
0.282, -9.213e-7, -5.435e-7, 3.777e-7
0.281, -9.237e-7, -5.451e-7, 3.786e-7
0.280, -9.225e-7, -5.438e-7, 3.786e-7
0.279, -9.258e-7, -5.466e-7, 3.793e-7
0.278, -9.255e-7, -5.469e-7, 3.786e-7
0.277, -9.295e-7, -5.475e-7, 3.820e-7
0.276, -9.274e-7, -5.469e-7, 3.805e-7
0.275, -9.310e-7, -5.499e-7, 3.811e-7
0.274, -9.320e-7, -5.496e-7, 3.823e-7
0.273, -9.326e-7, -5.509e-7, 3.817e-7
0.272, -9.329e-7, -5.515e-7, 3.814e-7
0.271, -9.353e-7, -5.515e-7, 3.838e-7
0.270, -9.344e-7, -5.518e-7, 3.826e-7
0.269, -9.368e-7, -5.536e-7, 3.832e-7
0.268, -9.390e-7, -5.551e-7, 3.838e-7
0.267, -9.402e-7, -5.567e-7, 3.835e-7
0.266, -9.402e-7, -5.561e-7, 3.841e-7
0.265, -9.426e-7, -5.573e-7, 3.854e-7
0.264, -9.439e-7, -5.579e-7, 3.860e-7
0.263, -9.466e-7, -5.600e-7, 3.866e-7
0.262, -9.478e-7, -5.609e-7, 3.869e-7
0.261, -9.478e-7, -5.612e-7, 3.866e-7
0.260, -9.481e-7, -5.618e-7, 3.863e-7
0.259, -9.490e-7, -5.618e-7, 3.872e-7
0.258, -9.509e-7, -5.631e-7, 3.878e-7
0.257, -9.539e-7, -5.640e-7, 3.899e-7
0.256, -9.542e-7, -5.652e-7, 3.890e-7
0.255, -9.573e-7, -5.670e-7, 3.902e-7
0.254, -9.570e-7, -5.670e-7, 3.899e-7
0.253, -9.600e-7, -5.689e-7, 3.912e-7
0.252, -9.588e-7, -5.683e-7, 3.906e-7
0.251, -9.628e-7, -5.707e-7, 3.921e-7
0.250, -9.640e-7, -5.710e-7, 3.930e-7
0.249, -9.643e-7, -5.707e-7, 3.936e-7
0.248, -9.667e-7, -5.731e-7, 3.936e-7
0.247, -9.677e-7, -5.737e-7, 3.939e-7
0.246, -9.686e-7, -5.734e-7, 3.951e-7
0.245, -9.707e-7, -5.762e-7, 3.945e-7
0.244, -9.698e-7, -5.753e-7, 3.945e-7
0.243, -9.735e-7, -5.774e-7, 3.960e-7
0.242, -9.753e-7, -5.789e-7, 3.963e-7
0.241, -9.768e-7, -5.789e-7, 3.979e-7
0.240, -9.771e-7, -5.799e-7, 3.973e-7
0.239, -9.802e-7, -5.808e-7, 3.994e-7
0.238, -9.817e-7, -5.817e-7, 4.000e-7
0.237, -9.817e-7, -5.826e-7, 3.991e-7
0.236, -9.832e-7, -5.835e-7, 3.997e-7
0.235, -9.847e-7, -5.847e-7, 4.000e-7
0.234, -9.860e-7, -5.850e-7, 4.009e-7
0.233, -9.890e-7, -5.875e-7, 4.015e-7
0.232, -9.884e-7, -5.875e-7, 4.009e-7
0.231, -9.912e-7, -5.890e-7, 4.021e-7
0.230, -9.924e-7, -5.896e-7, 4.028e-7
0.229, -9.939e-7, -5.893e-7, 4.046e-7
0.228, -9.951e-7, -5.911e-7, 4.040e-7
0.227, -9.973e-7, -5.927e-7, 4.046e-7
0.226, -9.982e-7, -5.933e-7, 4.049e-7
0.225, -1.000e-6, -5.945e-7, 4.055e-7
0.224, -1.002e-6, -5.963e-7, 4.061e-7
0.223, -1.004e-6, -5.963e-7, 4.073e-7
0.222, -1.008e-6, -5.963e-7, 4.116e-7
0.221, -1.007e-6, -5.985e-7, 4.089e-7
0.220, -1.008e-6, -5.991e-7, 4.086e-7
0.219, -1.010e-6, -6.009e-7, 4.092e-7
0.218, -1.010e-6, -5.994e-7, 4.104e-7
0.217, -1.013e-6, -6.024e-7, 4.107e-7
0.216, -1.011e-6, -6.027e-7, 4.086e-7
0.215, -1.016e-6, -6.040e-7, 4.122e-7
0.214, -1.017e-6, -6.030e-7, 4.137e-7
0.213, -1.019e-6, -6.067e-7, 4.119e-7
0.212, -1.023e-6, -6.082e-7, 4.147e-7
0.211, -1.021e-6, -6.082e-7, 4.131e-7
0.210, -1.022e-6, -6.082e-7, 4.140e-7
0.209, -1.027e-6, -6.110e-7, 4.165e-7
0.208, -1.027e-6, -6.107e-7, 4.165e-7
0.207, -1.029e-6, -6.128e-7, 4.165e-7
0.206, -1.032e-6, -6.131e-7, 4.186e-7
0.205, -1.031e-6, -6.143e-7, 4.168e-7
0.204, -1.033e-6, -6.153e-7, 4.180e-7
0.203, -1.034e-6, -6.162e-7, 4.183e-7
0.202, -1.038e-6, -6.174e-7, 4.202e-7
0.201, -1.041e-6, -6.189e-7, 4.220e-7
0.200, -1.039e-6, -6.183e-7, 4.205e-7
0.199, -1.044e-6, -6.214e-7, 4.223e-7
0.198, -1.045e-6, -6.223e-7, 4.226e-7
0.197, -1.046e-6, -6.232e-7, 4.229e-7
0.196, -1.047e-6, -6.235e-7, 4.232e-7
0.195, -1.050e-6, -6.256e-7, 4.244e-7
0.194, -1.051e-6, -6.259e-7, 4.250e-7
0.193, -1.052e-6, -6.268e-7, 4.253e-7
0.192, -1.053e-6, -6.275e-7, 4.256e-7
0.191, -1.056e-6, -6.293e-7, 4.272e-7
0.190, -1.057e-6, -6.305e-7, 4.263e-7
0.189, -1.060e-6, -6.314e-7, 4.281e-7
0.188, -1.061e-6, -6.317e-7, 4.293e-7
0.187, -1.061e-6, -6.330e-7, 4.278e-7
0.186, -1.063e-6, -6.336e-7, 4.296e-7
0.185, -1.065e-6, -6.345e-7, 4.308e-7
0.184, -1.067e-6, -6.351e-7, 4.314e-7
0.183, -1.068e-6, -6.366e-7, 4.317e-7
0.182, -1.070e-6, -6.375e-7, 4.327e-7
0.181, -1.071e-6, -6.384e-7, 4.327e-7
0.180, -1.075e-6, -6.403e-7, 4.345e-7
0.179, -1.076e-6, -6.403e-7, 4.354e-7
0.178, -1.076e-6, -6.406e-7, 4.354e-7
0.177, -1.079e-6, -6.430e-7, 4.357e-7
0.176, -1.081e-6, -6.439e-7, 4.375e-7
0.175, -1.083e-6, -6.455e-7, 4.372e-7
0.174, -1.084e-6, -6.473e-7, 4.369e-7
0.173, -1.085e-6, -6.473e-7, 4.382e-7
0.172, -1.088e-6, -6.476e-7, 4.403e-7
0.171, -1.088e-6, -6.488e-7, 4.397e-7
0.170, -1.091e-6, -6.506e-7, 4.406e-7
0.169, -1.094e-6, -6.531e-7, 4.412e-7
0.168, -1.094e-6, -6.528e-7, 4.409e-7
0.167, -1.095e-6, -6.528e-7, 4.424e-7
0.166, -1.098e-6, -6.549e-7, 4.430e-7
0.165, -1.099e-6, -6.555e-7, 4.433e-7
0.164, -1.101e-6, -6.558e-7, 4.452e-7
0.163, -1.101e-6, -6.564e-7, 4.449e-7
0.162, -1.105e-6, -6.586e-7, 4.464e-7
0.161, -1.106e-6, -6.589e-7, 4.470e-7
0.160, -1.108e-6, -6.610e-7, 4.473e-7
0.159, -1.111e-6, -6.607e-7, 4.501e-7
0.158, -1.110e-6, -6.613e-7, 4.488e-7
0.157, -1.114e-6, -6.641e-7, 4.494e-7
0.156, -1.117e-6, -6.647e-7, 4.522e-7
0.155, -1.118e-6, -6.647e-7, 4.534e-7
0.154, -1.117e-6, -6.659e-7, 4.513e-7
0.153, -1.122e-6, -6.683e-7, 4.534e-7
0.152, -1.122e-6, -6.677e-7, 4.543e-7
0.151, -1.124e-6, -6.693e-7, 4.546e-7
0.150, -1.126e-6, -6.702e-7, 4.555e-7
0.149, -1.128e-6, -6.708e-7, 4.574e-7
0.148, -1.127e-6, -6.717e-7, 4.552e-7
0.147, -1.132e-6, -6.738e-7, 4.583e-7
0.146, -1.133e-6, -6.726e-7, 4.607e-7
0.145, -1.132e-6, -6.735e-7, 4.589e-7
0.144, -1.135e-6, -6.760e-7, 4.595e-7
0.143, -1.138e-6, -6.760e-7, 4.620e-7
0.142, -1.139e-6, -6.784e-7, 4.604e-7
0.141, -1.141e-6, -6.784e-7, 4.626e-7
0.140, -1.142e-6, -6.790e-7, 4.626e-7
0.139, -1.145e-6, -6.799e-7, 4.647e-7
0.138, -1.145e-6, -6.806e-7, 4.644e-7
0.137, -1.148e-6, -6.824e-7, 4.653e-7
0.136, -1.149e-6, -6.839e-7, 4.653e-7
0.135, -1.149e-6, -6.824e-7, 4.665e-7
0.134, -1.153e-6, -6.848e-7, 4.687e-7
0.133, -1.153e-6, -6.851e-7, 4.674e-7
0.132, -1.155e-6, -6.867e-7, 4.681e-7
0.131, -1.157e-6, -6.867e-7, 4.702e-7
0.130, -1.157e-6, -6.891e-7, 4.684e-7
0.129, -1.161e-6, -6.897e-7, 4.714e-7
0.128, -1.161e-6, -6.897e-7, 4.711e-7
0.127, -1.164e-6, -6.928e-7, 4.711e-7
0.126, -1.164e-6, -6.915e-7, 4.726e-7
0.125, -1.165e-6, -6.918e-7, 4.736e-7
0.124, -1.166e-6, -6.922e-7, 4.742e-7
0.123, -1.170e-6, -6.943e-7, 4.757e-7
0.122, -1.171e-6, -6.949e-7, 4.763e-7
0.121, -1.169e-6, -6.946e-7, 4.748e-7
0.120, -1.175e-6, -6.967e-7, 4.778e-7
0.119, -1.175e-6, -6.967e-7, 4.784e-7
0.118, -1.176e-6, -6.983e-7, 4.781e-7
0.117, -1.177e-6, -6.986e-7, 4.781e-7
0.116, -1.181e-6, -6.995e-7, 4.815e-7
0.115, -1.181e-6, -7.010e-7, 4.800e-7
0.114, -1.184e-6, -7.019e-7, 4.818e-7
0.113, -1.184e-6, -7.013e-7, 4.824e-7
0.112, -1.186e-6, -7.031e-7, 4.833e-7
0.111, -1.188e-6, -7.031e-7, 4.845e-7
0.110, -1.188e-6, -7.028e-7, 4.848e-7
0.109, -1.188e-6, -7.037e-7, 4.839e-7
0.108, -1.193e-6, -7.062e-7, 4.867e-7
0.107, -1.192e-6, -7.053e-7, 4.864e-7
0.106, -1.193e-6, -7.059e-7, 4.870e-7
0.105, -1.196e-6, -7.068e-7, 4.894e-7
0.104, -1.197e-6, -7.071e-7, 4.897e-7
0.103, -1.198e-6, -7.086e-7, 4.897e-7
0.102, -1.200e-6, -7.092e-7, 4.906e-7
0.101, -1.200e-6, -7.089e-7, 4.913e-7
0.100, -1.200e-6, -7.095e-7, 4.909e-7
0.099, -1.204e-6, -7.114e-7, 4.922e-7
0.098, -1.205e-6, -7.111e-7, 4.940e-7
0.097, -1.207e-6, -7.126e-7, 4.943e-7
0.096, -1.206e-6, -7.126e-7, 4.937e-7
0.095, -1.207e-6, -7.117e-7, 4.952e-7
0.094, -1.210e-6, -7.144e-7, 4.952e-7
0.093, -1.210e-6, -7.141e-7, 4.958e-7
0.092, -1.213e-6, -7.150e-7, 4.980e-7
0.091, -1.212e-6, -7.144e-7, 4.980e-7
0.090, -1.216e-6, -7.156e-7, 5.001e-7
0.089, -1.214e-6, -7.147e-7, 4.989e-7
0.088, -1.217e-6, -7.169e-7, 5.004e-7
0.087, -1.219e-6, -7.178e-7, 5.010e-7
0.086, -1.220e-6, -7.175e-7, 5.022e-7
0.085, -1.219e-6, -7.181e-7, 5.013e-7
0.084, -1.222e-6, -7.193e-7, 5.025e-7
0.083, -1.222e-6, -7.190e-7, 5.035e-7
0.082, -1.222e-6, -7.187e-7, 5.038e-7
0.081, -1.224e-6, -7.196e-7, 5.047e-7
0.080, -1.226e-6, -7.205e-7, 5.059e-7
0.079, -1.225e-6, -7.199e-7, 5.050e-7
0.078, -1.228e-6, -7.208e-7, 5.068e-7
0.077, -1.227e-6, -7.199e-7, 5.074e-7
0.076, -1.231e-6, -7.218e-7, 5.089e-7
0.075, -1.230e-6, -7.218e-7, 5.083e-7
0.074, -1.232e-6, -7.218e-7, 5.099e-7
0.073, -1.232e-6, -7.227e-7, 5.093e-7
0.072, -1.233e-6, -7.236e-7, 5.089e-7
0.071, -1.233e-6, -7.227e-7, 5.105e-7
0.070, -1.236e-6, -7.239e-7, 5.120e-7
0.069, -1.235e-6, -7.221e-7, 5.126e-7
0.068, -1.235e-6, -7.227e-7, 5.120e-7
0.067, -1.237e-6, -7.245e-7, 5.123e-7
0.066, -1.237e-6, -7.230e-7, 5.138e-7
0.065, -1.238e-6, -7.248e-7, 5.132e-7
0.064, -1.239e-6, -7.248e-7, 5.144e-7
0.063, -1.243e-6, -7.260e-7, 5.166e-7
0.062, -1.243e-6, -7.251e-7, 5.175e-7
0.061, -1.241e-6, -7.248e-7, 5.160e-7
0.060, -1.244e-6, -7.260e-7, 5.181e-7
0.059, -1.243e-6, -7.245e-7, 5.181e-7
0.058, -1.245e-6, -7.269e-7, 5.181e-7
0.057, -1.243e-6, -7.251e-7, 5.181e-7
0.056, -1.246e-6, -7.257e-7, 5.202e-7
0.055, -1.246e-6, -7.260e-7, 5.196e-7
0.054, -1.246e-6, -7.251e-7, 5.212e-7
0.053, -1.247e-6, -7.251e-7, 5.218e-7
0.052, -1.247e-6, -7.260e-7, 5.209e-7
0.051, -1.247e-6, -7.248e-7, 5.218e-7
0.050, -1.247e-6, -7.236e-7, 5.236e-7
0.049, -1.247e-6, -7.254e-7, 5.215e-7
0.048, -1.249e-6, -7.254e-7, 5.239e-7
0.047, -1.250e-6, -7.251e-7, 5.245e-7
0.046, -1.251e-6, -7.260e-7, 5.254e-7
0.045, -1.251e-6, -7.248e-7, 5.260e-7
0.044, -1.250e-6, -7.242e-7, 5.254e-7
0.043, -1.252e-6, -7.263e-7, 5.257e-7
0.042, -1.253e-6, -7.254e-7, 5.273e-7
0.041, -1.253e-6, -7.251e-7, 5.276e-7
0.040, -1.253e-6, -7.254e-7, 5.279e-7
0.039, -1.253e-6, -7.254e-7, 5.276e-7
0.038, -1.253e-6, -7.248e-7, 5.282e-7
0.037, -1.253e-6, -7.245e-7, 5.285e-7
0.036, -1.255e-6, -7.245e-7, 5.306e-7
0.035, -1.253e-6, -7.242e-7, 5.288e-7
0.034, -1.254e-6, -7.245e-7, 5.297e-7
0.033, -1.255e-6, -7.251e-7, 5.303e-7
0.032, -1.254e-6, -7.233e-7, 5.306e-7
0.031, -1.254e-6, -7.233e-7, 5.306e-7
0.030, -1.256e-6, -7.233e-7, 5.331e-7
0.029, -1.255e-6, -7.230e-7, 5.318e-7
0.028, -1.256e-6, -7.233e-7, 5.328e-7
0.027, -1.254e-6, -7.205e-7, 5.334e-7
0.026, -1.255e-6, -7.214e-7, 5.340e-7
0.025, -1.256e-6, -7.233e-7, 5.331e-7
0.024, -1.256e-6, -7.218e-7, 5.346e-7
0.023, -1.254e-6, -7.202e-7, 5.340e-7
0.022, -1.256e-6, -7.211e-7, 5.346e-7
0.021, -1.255e-6, -7.205e-7, 5.340e-7
0.020, -1.255e-6, -7.187e-7, 5.364e-7
0.019, -1.256e-6, -7.202e-7, 5.361e-7
0.018, -1.256e-6, -7.205e-7, 5.352e-7
0.017, -1.252e-6, -7.175e-7, 5.349e-7
0.016, -1.255e-6, -7.199e-7, 5.355e-7
0.015, -1.255e-6, -7.184e-7, 5.364e-7
0.014, -1.255e-6, -7.184e-7, 5.370e-7
0.013, -1.255e-6, -7.172e-7, 5.382e-7
0.012, -1.256e-6, -7.178e-7, 5.385e-7
0.011, -1.254e-6, -7.166e-7, 5.373e-7
0.010, -1.254e-6, -7.169e-7, 5.370e-7
0.009, -1.255e-6, -7.166e-7, 5.385e-7
0.008, -1.252e-6, -7.138e-7, 5.379e-7
0.007, -1.254e-6, -7.163e-7, 5.379e-7
0.006, -1.253e-6, -7.132e-7, 5.395e-7
0.005, -1.251e-6, -7.129e-7, 5.379e-7
0.004, -1.253e-6, -7.135e-7, 5.392e-7
0.003, -1.254e-6, -7.132e-7, 5.404e-7
0.002, -1.252e-6, -7.120e-7, 5.398e-7
0.001, -1.252e-6, -7.126e-7, 5.398e-7
-0.000, -1.251e-6, -7.105e-7, 5.401e-7
-0.001, -1.249e-6, -7.099e-7, 5.392e-7
-0.002, -1.250e-6, -7.108e-7, 5.395e-7
-0.003, -1.251e-6, -7.102e-7, 5.407e-7
-0.004, -1.250e-6, -7.092e-7, 5.404e-7
-0.005, -1.250e-6, -7.102e-7, 5.395e-7
-0.006, -1.249e-6, -7.071e-7, 5.416e-7
-0.007, -1.248e-6, -7.074e-7, 5.404e-7
-0.008, -1.248e-6, -7.077e-7, 5.407e-7
-0.009, -1.248e-6, -7.062e-7, 5.419e-7
-0.010, -1.247e-6, -7.065e-7, 5.407e-7
-0.011, -1.247e-6, -7.071e-7, 5.404e-7
-0.012, -1.247e-6, -7.041e-7, 5.428e-7
-0.013, -1.245e-6, -7.034e-7, 5.413e-7
-0.014, -1.245e-6, -7.050e-7, 5.401e-7
-0.015, -1.246e-6, -7.031e-7, 5.428e-7
-0.016, -1.242e-6, -7.016e-7, 5.401e-7
-0.017, -1.242e-6, -7.010e-7, 5.407e-7
-0.018, -1.243e-6, -7.007e-7, 5.425e-7
-0.019, -1.242e-6, -7.004e-7, 5.419e-7
-0.020, -1.240e-6, -7.001e-7, 5.398e-7
-0.021, -1.240e-6, -6.989e-7, 5.416e-7
-0.022, -1.240e-6, -6.986e-7, 5.416e-7
-0.023, -1.239e-6, -6.986e-7, 5.407e-7
-0.024, -1.239e-6, -6.973e-7, 5.416e-7
-0.025, -1.237e-6, -6.967e-7, 5.398e-7
-0.026, -1.237e-6, -6.964e-7, 5.407e-7
-0.027, -1.235e-6, -6.934e-7, 5.416e-7
-0.028, -1.235e-6, -6.949e-7, 5.401e-7
-0.029, -1.235e-6, -6.946e-7, 5.407e-7
-0.030, -1.235e-6, -6.940e-7, 5.413e-7
-0.031, -1.233e-6, -6.918e-7, 5.407e-7
-0.032, -1.233e-6, -6.931e-7, 5.404e-7
-0.033, -1.234e-6, -6.912e-7, 5.428e-7
-0.034, -1.230e-6, -6.906e-7, 5.395e-7
-0.035, -1.233e-6, -6.909e-7, 5.416e-7
-0.036, -1.230e-6, -6.897e-7, 5.407e-7
-0.037, -1.229e-6, -6.891e-7, 5.404e-7
-0.038, -1.230e-6, -6.897e-7, 5.401e-7
-0.039, -1.230e-6, -6.885e-7, 5.416e-7
-0.040, -1.228e-6, -6.879e-7, 5.404e-7
-0.041, -1.227e-6, -6.873e-7, 5.401e-7
-0.042, -1.228e-6, -6.864e-7, 5.416e-7
-0.043, -1.226e-6, -6.857e-7, 5.398e-7
-0.044, -1.226e-6, -6.857e-7, 5.398e-7
-0.045, -1.226e-6, -6.839e-7, 5.416e-7
-0.046, -1.222e-6, -6.833e-7, 5.389e-7
-0.047, -1.222e-6, -6.839e-7, 5.385e-7
-0.048, -1.222e-6, -6.824e-7, 5.401e-7
-0.049, -1.220e-6, -6.821e-7, 5.379e-7
-0.050, -1.221e-6, -6.818e-7, 5.392e-7
