Feb. 28, 2018   14:23:11
Square Wave Voltammetry
File: c:\users\electrochemist\desktop\2018\28022018_unbuffered_9,2\48_e6_9,2_0118_ph7,70_4.txt
Data Source:  Experiment
Instrument Model:  CHI1040A
Header: 
Note: 

Init E (V) = 0.5
Final E (V) = -0.05
Incr E (V) = 0.001
Amplitude (V) = 0.1
Frequency (Hz) = 150
Quiet Time (sec) = 0
Sensitivity (A/V) = 1e-6

Difference:

Forward:
Ep = 0.332V
ip = -6.591e-8A
Ah = -4.230e-9VA

Reverse:

Potential/V, Diff(i/A), For(i/A), Rev(i/A)

0.499, -7.003e-7, -1.685e-7, 5.318e-7
0.498, -8.517e-7, -3.916e-7, 4.601e-7
0.497, -8.425e-7, -4.077e-7, 4.348e-7
0.496, -8.319e-7, -4.135e-7, 4.183e-7
0.495, -8.288e-7, -4.169e-7, 4.119e-7
0.494, -8.236e-7, -4.206e-7, 4.031e-7
0.493, -8.178e-7, -4.212e-7, 3.967e-7
0.492, -8.151e-7, -4.224e-7, 3.927e-7
0.491, -8.114e-7, -4.239e-7, 3.875e-7
0.490, -8.111e-7, -4.257e-7, 3.854e-7
0.489, -8.078e-7, -4.254e-7, 3.823e-7
0.488, -8.062e-7, -4.267e-7, 3.796e-7
0.487, -8.044e-7, -4.279e-7, 3.765e-7
0.486, -8.044e-7, -4.288e-7, 3.756e-7
0.485, -8.007e-7, -4.285e-7, 3.722e-7
0.484, -8.023e-7, -4.309e-7, 3.713e-7
0.483, -7.992e-7, -4.291e-7, 3.701e-7
0.482, -7.983e-7, -4.300e-7, 3.683e-7
0.481, -7.989e-7, -4.325e-7, 3.664e-7
0.480, -7.971e-7, -4.322e-7, 3.649e-7
0.479, -7.977e-7, -4.337e-7, 3.640e-7
0.478, -7.980e-7, -4.337e-7, 3.643e-7
0.477, -7.980e-7, -4.337e-7, 3.643e-7
0.476, -7.952e-7, -4.343e-7, 3.610e-7
0.475, -7.949e-7, -4.337e-7, 3.613e-7
0.474, -7.949e-7, -4.343e-7, 3.606e-7
0.473, -7.959e-7, -4.358e-7, 3.600e-7
0.472, -7.952e-7, -4.355e-7, 3.597e-7
0.471, -7.946e-7, -4.355e-7, 3.591e-7
0.470, -7.925e-7, -4.355e-7, 3.570e-7
0.469, -7.931e-7, -4.367e-7, 3.564e-7
0.468, -7.928e-7, -4.364e-7, 3.564e-7
0.467, -7.946e-7, -4.373e-7, 3.573e-7
0.466, -7.949e-7, -4.389e-7, 3.561e-7
0.465, -7.925e-7, -4.373e-7, 3.552e-7
0.464, -7.925e-7, -4.380e-7, 3.545e-7
0.463, -7.931e-7, -4.389e-7, 3.542e-7
0.462, -7.922e-7, -4.392e-7, 3.530e-7
0.461, -7.931e-7, -4.401e-7, 3.530e-7
0.460, -7.922e-7, -4.398e-7, 3.524e-7
0.459, -7.934e-7, -4.404e-7, 3.530e-7
0.458, -7.922e-7, -4.407e-7, 3.515e-7
0.457, -7.940e-7, -4.410e-7, 3.530e-7
0.456, -7.922e-7, -4.416e-7, 3.506e-7
0.455, -7.943e-7, -4.431e-7, 3.512e-7
0.454, -7.931e-7, -4.413e-7, 3.518e-7
0.453, -7.925e-7, -4.431e-7, 3.494e-7
0.452, -7.934e-7, -4.438e-7, 3.497e-7
0.451, -7.928e-7, -4.434e-7, 3.494e-7
0.450, -7.925e-7, -4.434e-7, 3.491e-7
0.449, -7.943e-7, -4.453e-7, 3.491e-7
0.448, -7.934e-7, -4.456e-7, 3.478e-7
0.447, -7.955e-7, -4.462e-7, 3.494e-7
0.446, -7.949e-7, -4.468e-7, 3.481e-7
0.445, -7.946e-7, -4.459e-7, 3.487e-7
0.444, -7.968e-7, -4.474e-7, 3.494e-7
0.443, -7.968e-7, -4.480e-7, 3.487e-7
0.442, -7.968e-7, -4.477e-7, 3.491e-7
0.441, -7.965e-7, -4.477e-7, 3.487e-7
0.440, -7.971e-7, -4.489e-7, 3.481e-7
0.439, -7.968e-7, -4.499e-7, 3.469e-7
0.438, -7.977e-7, -4.486e-7, 3.491e-7
0.437, -7.995e-7, -4.505e-7, 3.491e-7
0.436, -7.974e-7, -4.499e-7, 3.475e-7
0.435, -7.968e-7, -4.508e-7, 3.460e-7
0.434, -8.001e-7, -4.520e-7, 3.481e-7
0.433, -7.998e-7, -4.514e-7, 3.484e-7
0.432, -7.983e-7, -4.514e-7, 3.469e-7
0.431, -7.983e-7, -4.514e-7, 3.469e-7
0.430, -8.004e-7, -4.529e-7, 3.475e-7
0.429, -7.992e-7, -4.520e-7, 3.472e-7
0.428, -7.998e-7, -4.541e-7, 3.457e-7
0.427, -8.017e-7, -4.541e-7, 3.475e-7
0.426, -8.001e-7, -4.535e-7, 3.466e-7
0.425, -8.020e-7, -4.560e-7, 3.460e-7
0.424, -8.029e-7, -4.566e-7, 3.463e-7
0.423, -8.004e-7, -4.547e-7, 3.457e-7
0.422, -8.013e-7, -4.569e-7, 3.445e-7
0.421, -8.038e-7, -4.572e-7, 3.466e-7
0.420, -8.032e-7, -4.569e-7, 3.463e-7
0.419, -8.056e-7, -4.581e-7, 3.475e-7
0.418, -8.041e-7, -4.575e-7, 3.466e-7
0.417, -8.059e-7, -4.596e-7, 3.463e-7
0.416, -8.044e-7, -4.581e-7, 3.463e-7
0.415, -8.071e-7, -4.602e-7, 3.469e-7
0.414, -8.053e-7, -4.599e-7, 3.454e-7
0.413, -8.071e-7, -4.618e-7, 3.454e-7
0.412, -8.099e-7, -4.614e-7, 3.484e-7
0.411, -8.078e-7, -4.618e-7, 3.460e-7
0.410, -8.096e-7, -4.627e-7, 3.469e-7
0.409, -8.096e-7, -4.621e-7, 3.475e-7
0.408, -8.099e-7, -4.630e-7, 3.469e-7
0.407, -8.117e-7, -4.651e-7, 3.466e-7
0.406, -8.126e-7, -4.648e-7, 3.478e-7
0.405, -8.090e-7, -4.633e-7, 3.457e-7
0.404, -8.123e-7, -4.654e-7, 3.469e-7
0.403, -8.142e-7, -4.666e-7, 3.475e-7
0.402, -8.120e-7, -4.651e-7, 3.469e-7
0.401, -8.148e-7, -4.676e-7, 3.472e-7
0.400, -8.160e-7, -4.679e-7, 3.481e-7
0.399, -8.139e-7, -4.679e-7, 3.460e-7
0.398, -8.163e-7, -4.688e-7, 3.475e-7
0.397, -8.172e-7, -4.682e-7, 3.491e-7
0.396, -8.151e-7, -4.688e-7, 3.463e-7
0.395, -8.187e-7, -4.715e-7, 3.472e-7
0.394, -8.203e-7, -4.718e-7, 3.484e-7
0.393, -8.197e-7, -4.721e-7, 3.475e-7
0.392, -8.190e-7, -4.715e-7, 3.475e-7
0.391, -8.193e-7, -4.709e-7, 3.484e-7
0.390, -8.200e-7, -4.718e-7, 3.481e-7
0.389, -8.218e-7, -4.743e-7, 3.475e-7
0.388, -8.212e-7, -4.740e-7, 3.472e-7
0.387, -8.197e-7, -4.737e-7, 3.460e-7
0.386, -8.230e-7, -4.755e-7, 3.475e-7
0.385, -8.233e-7, -4.746e-7, 3.487e-7
0.384, -8.261e-7, -4.761e-7, 3.500e-7
0.383, -8.276e-7, -4.782e-7, 3.494e-7
0.382, -8.267e-7, -4.776e-7, 3.491e-7
0.381, -8.264e-7, -4.779e-7, 3.484e-7
0.380, -8.267e-7, -4.782e-7, 3.484e-7
0.379, -8.288e-7, -4.788e-7, 3.500e-7
0.378, -8.306e-7, -4.804e-7, 3.503e-7
0.377, -8.291e-7, -4.795e-7, 3.497e-7
0.376, -8.306e-7, -4.810e-7, 3.497e-7
0.375, -8.313e-7, -4.807e-7, 3.506e-7
0.374, -8.328e-7, -4.822e-7, 3.506e-7
0.373, -8.319e-7, -4.813e-7, 3.506e-7
0.372, -8.340e-7, -4.819e-7, 3.521e-7
0.371, -8.352e-7, -4.834e-7, 3.518e-7
0.370, -8.361e-7, -4.837e-7, 3.524e-7
0.369, -8.352e-7, -4.834e-7, 3.518e-7
0.368, -8.380e-7, -4.862e-7, 3.518e-7
0.367, -8.380e-7, -4.853e-7, 3.527e-7
0.366, -8.361e-7, -4.856e-7, 3.506e-7
0.365, -8.407e-7, -4.880e-7, 3.527e-7
0.364, -8.380e-7, -4.862e-7, 3.518e-7
0.363, -8.416e-7, -4.892e-7, 3.524e-7
0.362, -8.419e-7, -4.895e-7, 3.524e-7
0.361, -8.413e-7, -4.886e-7, 3.527e-7
0.360, -8.438e-7, -4.907e-7, 3.530e-7
0.359, -8.441e-7, -4.911e-7, 3.530e-7
0.358, -8.447e-7, -4.904e-7, 3.542e-7
0.357, -8.444e-7, -4.914e-7, 3.530e-7
0.356, -8.465e-7, -4.926e-7, 3.539e-7
0.355, -8.499e-7, -4.950e-7, 3.548e-7
0.354, -8.483e-7, -4.935e-7, 3.548e-7
0.353, -8.511e-7, -4.947e-7, 3.564e-7
0.352, -8.493e-7, -4.944e-7, 3.548e-7
0.351, -8.523e-7, -4.968e-7, 3.555e-7
0.350, -8.523e-7, -4.962e-7, 3.561e-7
0.349, -8.526e-7, -4.962e-7, 3.564e-7
0.348, -8.535e-7, -4.975e-7, 3.561e-7
0.347, -8.557e-7, -4.993e-7, 3.564e-7
0.346, -8.563e-7, -4.984e-7, 3.579e-7
0.345, -8.563e-7, -4.993e-7, 3.570e-7
0.344, -8.581e-7, -5.014e-7, 3.567e-7
0.343, -8.593e-7, -5.005e-7, 3.588e-7
0.342, -8.590e-7, -5.014e-7, 3.576e-7
0.341, -8.602e-7, -5.023e-7, 3.579e-7
0.340, -8.609e-7, -5.023e-7, 3.585e-7
0.339, -8.618e-7, -5.042e-7, 3.576e-7
0.338, -8.630e-7, -5.042e-7, 3.588e-7
0.337, -8.636e-7, -5.048e-7, 3.588e-7
0.336, -8.642e-7, -5.057e-7, 3.585e-7
0.335, -8.642e-7, -5.051e-7, 3.591e-7
0.334, -8.666e-7, -5.057e-7, 3.610e-7
0.333, -8.679e-7, -5.069e-7, 3.610e-7
0.332, -8.697e-7, -5.084e-7, 3.613e-7
0.331, -8.700e-7, -5.088e-7, 3.613e-7
0.330, -8.700e-7, -5.100e-7, 3.600e-7
0.329, -8.709e-7, -5.094e-7, 3.616e-7
0.328, -8.715e-7, -5.097e-7, 3.619e-7
0.327, -8.746e-7, -5.118e-7, 3.628e-7
0.326, -8.764e-7, -5.124e-7, 3.640e-7
0.325, -8.749e-7, -5.130e-7, 3.619e-7
0.324, -8.779e-7, -5.145e-7, 3.634e-7
0.323, -8.795e-7, -5.145e-7, 3.649e-7
0.322, -8.776e-7, -5.139e-7, 3.637e-7
0.321, -8.807e-7, -5.167e-7, 3.640e-7
0.320, -8.837e-7, -5.173e-7, 3.664e-7
0.319, -8.822e-7, -5.170e-7, 3.652e-7
0.318, -8.822e-7, -5.179e-7, 3.643e-7
0.317, -8.828e-7, -5.176e-7, 3.652e-7
0.316, -8.825e-7, -5.176e-7, 3.649e-7
0.315, -8.843e-7, -5.194e-7, 3.649e-7
0.314, -8.889e-7, -5.207e-7, 3.683e-7
0.313, -8.871e-7, -5.203e-7, 3.667e-7
0.312, -8.886e-7, -5.225e-7, 3.661e-7
0.311, -8.917e-7, -5.222e-7, 3.695e-7
0.310, -8.920e-7, -5.231e-7, 3.689e-7
0.309, -8.908e-7, -5.231e-7, 3.677e-7
0.308, -8.938e-7, -5.249e-7, 3.689e-7
0.307, -8.950e-7, -5.255e-7, 3.695e-7
0.306, -8.950e-7, -5.264e-7, 3.686e-7
0.305, -8.978e-7, -5.271e-7, 3.707e-7
0.304, -8.972e-7, -5.261e-7, 3.710e-7
0.303, -8.978e-7, -5.283e-7, 3.695e-7
0.302, -9.008e-7, -5.295e-7, 3.713e-7
0.301, -8.996e-7, -5.295e-7, 3.701e-7
0.300, -8.993e-7, -5.298e-7, 3.695e-7
0.299, -9.033e-7, -5.310e-7, 3.722e-7
0.298, -9.036e-7, -5.319e-7, 3.716e-7
0.297, -9.039e-7, -5.322e-7, 3.716e-7
0.296, -9.066e-7, -5.338e-7, 3.729e-7
0.295, -9.097e-7, -5.350e-7, 3.747e-7
0.294, -9.097e-7, -5.365e-7, 3.732e-7
0.293, -9.088e-7, -5.350e-7, 3.738e-7
0.292, -9.109e-7, -5.359e-7, 3.750e-7
0.291, -9.115e-7, -5.377e-7, 3.738e-7
0.290, -9.149e-7, -5.390e-7, 3.759e-7
0.289, -9.146e-7, -5.390e-7, 3.756e-7
0.288, -9.155e-7, -5.399e-7, 3.756e-7
0.287, -9.173e-7, -5.411e-7, 3.762e-7
0.286, -9.176e-7, -5.405e-7, 3.771e-7
0.285, -9.197e-7, -5.426e-7, 3.771e-7
0.284, -9.201e-7, -5.429e-7, 3.771e-7
0.283, -9.201e-7, -5.429e-7, 3.771e-7
0.282, -9.225e-7, -5.454e-7, 3.771e-7
0.281, -9.268e-7, -5.460e-7, 3.808e-7
0.280, -9.243e-7, -5.445e-7, 3.799e-7
0.279, -9.265e-7, -5.469e-7, 3.796e-7
0.278, -9.304e-7, -5.478e-7, 3.826e-7
0.277, -9.283e-7, -5.475e-7, 3.808e-7
0.276, -9.301e-7, -5.499e-7, 3.802e-7
0.275, -9.332e-7, -5.503e-7, 3.829e-7
0.274, -9.332e-7, -5.515e-7, 3.817e-7
0.273, -9.350e-7, -5.524e-7, 3.826e-7
0.272, -9.371e-7, -5.533e-7, 3.838e-7
0.271, -9.371e-7, -5.542e-7, 3.829e-7
0.270, -9.402e-7, -5.557e-7, 3.844e-7
0.269, -9.411e-7, -5.551e-7, 3.860e-7
0.268, -9.393e-7, -5.551e-7, 3.841e-7
0.267, -9.423e-7, -5.582e-7, 3.841e-7
0.266, -9.448e-7, -5.567e-7, 3.881e-7
0.265, -9.448e-7, -5.588e-7, 3.860e-7
0.264, -9.451e-7, -5.591e-7, 3.860e-7
0.263, -9.466e-7, -5.591e-7, 3.875e-7
0.262, -9.490e-7, -5.615e-7, 3.875e-7
0.261, -9.506e-7, -5.622e-7, 3.884e-7
0.260, -9.503e-7, -5.615e-7, 3.887e-7
0.259, -9.524e-7, -5.634e-7, 3.890e-7
0.258, -9.548e-7, -5.649e-7, 3.899e-7
0.257, -9.545e-7, -5.640e-7, 3.906e-7
0.256, -9.573e-7, -5.661e-7, 3.912e-7
0.255, -9.582e-7, -5.680e-7, 3.902e-7
0.254, -9.616e-7, -5.683e-7, 3.933e-7
0.253, -9.591e-7, -5.676e-7, 3.915e-7
0.252, -9.628e-7, -5.716e-7, 3.912e-7
0.251, -9.640e-7, -5.701e-7, 3.939e-7
0.250, -9.628e-7, -5.713e-7, 3.915e-7
0.249, -9.683e-7, -5.741e-7, 3.942e-7
0.248, -9.692e-7, -5.744e-7, 3.948e-7
0.247, -9.704e-7, -5.750e-7, 3.954e-7
0.246, -9.719e-7, -5.759e-7, 3.960e-7
0.245, -9.725e-7, -5.759e-7, 3.967e-7
0.244, -9.756e-7, -5.780e-7, 3.976e-7
0.243, -9.768e-7, -5.799e-7, 3.970e-7
0.242, -9.774e-7, -5.792e-7, 3.982e-7
0.241, -9.774e-7, -5.799e-7, 3.976e-7
0.240, -9.808e-7, -5.826e-7, 3.982e-7
0.239, -9.817e-7, -5.814e-7, 4.003e-7
0.238, -9.811e-7, -5.823e-7, 3.988e-7
0.237, -9.841e-7, -5.838e-7, 4.003e-7
0.236, -9.872e-7, -5.847e-7, 4.025e-7
0.235, -9.878e-7, -5.863e-7, 4.015e-7
0.234, -9.902e-7, -5.884e-7, 4.018e-7
0.233, -9.896e-7, -5.878e-7, 4.018e-7
0.232, -9.924e-7, -5.890e-7, 4.034e-7
0.231, -9.921e-7, -5.893e-7, 4.028e-7
0.230, -9.939e-7, -5.890e-7, 4.049e-7
0.229, -9.945e-7, -5.911e-7, 4.034e-7
0.228, -9.988e-7, -5.954e-7, 4.034e-7
0.227, -1.002e-6, -5.948e-7, 4.073e-7
0.226, -1.001e-6, -5.951e-7, 4.058e-7
0.225, -1.005e-6, -5.966e-7, 4.082e-7
0.224, -1.005e-6, -5.963e-7, 4.082e-7
0.223, -1.005e-6, -5.976e-7, 4.073e-7
0.222, -1.011e-6, -6.018e-7, 4.092e-7
0.221, -1.009e-6, -6.000e-7, 4.095e-7
0.220, -1.010e-6, -6.012e-7, 4.089e-7
0.219, -1.011e-6, -6.021e-7, 4.092e-7
0.218, -1.013e-6, -6.018e-7, 4.116e-7
0.217, -1.013e-6, -6.030e-7, 4.104e-7
0.216, -1.019e-6, -6.064e-7, 4.122e-7
0.215, -1.019e-6, -6.049e-7, 4.137e-7
0.214, -1.017e-6, -6.055e-7, 4.116e-7
0.213, -1.022e-6, -6.091e-7, 4.131e-7
0.212, -1.025e-6, -6.082e-7, 4.168e-7
0.211, -1.025e-6, -6.101e-7, 4.147e-7
0.210, -1.028e-6, -6.131e-7, 4.153e-7
0.209, -1.029e-6, -6.116e-7, 4.177e-7
0.208, -1.028e-6, -6.128e-7, 4.156e-7
0.207, -1.032e-6, -6.143e-7, 4.174e-7
0.206, -1.032e-6, -6.131e-7, 4.192e-7
0.205, -1.033e-6, -6.156e-7, 4.174e-7
0.204, -1.038e-6, -6.195e-7, 4.186e-7
0.203, -1.042e-6, -6.192e-7, 4.223e-7
0.202, -1.040e-6, -6.183e-7, 4.217e-7
0.201, -1.042e-6, -6.207e-7, 4.208e-7
0.200, -1.044e-6, -6.201e-7, 4.235e-7
0.199, -1.042e-6, -6.207e-7, 4.217e-7
0.198, -1.047e-6, -6.238e-7, 4.232e-7
0.197, -1.049e-6, -6.235e-7, 4.259e-7
0.196, -1.050e-6, -6.259e-7, 4.244e-7
0.195, -1.053e-6, -6.275e-7, 4.256e-7
0.194, -1.053e-6, -6.275e-7, 4.259e-7
0.193, -1.053e-6, -6.293e-7, 4.241e-7
0.192, -1.058e-6, -6.308e-7, 4.275e-7
0.191, -1.057e-6, -6.299e-7, 4.275e-7
0.190, -1.060e-6, -6.314e-7, 4.281e-7
0.189, -1.062e-6, -6.330e-7, 4.290e-7
0.188, -1.064e-6, -6.336e-7, 4.302e-7
0.187, -1.064e-6, -6.345e-7, 4.296e-7
0.186, -1.067e-6, -6.354e-7, 4.311e-7
0.185, -1.069e-6, -6.360e-7, 4.327e-7
0.184, -1.070e-6, -6.378e-7, 4.317e-7
0.183, -1.072e-6, -6.391e-7, 4.333e-7
0.182, -1.075e-6, -6.400e-7, 4.348e-7
0.181, -1.074e-6, -6.409e-7, 4.333e-7
0.180, -1.078e-6, -6.439e-7, 4.345e-7
0.179, -1.080e-6, -6.427e-7, 4.375e-7
0.178, -1.080e-6, -6.439e-7, 4.357e-7
0.177, -1.083e-6, -6.461e-7, 4.372e-7
0.176, -1.083e-6, -6.452e-7, 4.378e-7
0.175, -1.084e-6, -6.467e-7, 4.375e-7
0.174, -1.086e-6, -6.485e-7, 4.372e-7
0.173, -1.090e-6, -6.479e-7, 4.418e-7
0.172, -1.090e-6, -6.497e-7, 4.406e-7
0.171, -1.093e-6, -6.522e-7, 4.409e-7
0.170, -1.095e-6, -6.510e-7, 4.436e-7
0.169, -1.095e-6, -6.534e-7, 4.415e-7
0.168, -1.098e-6, -6.540e-7, 4.443e-7
0.167, -1.100e-6, -6.543e-7, 4.455e-7
0.166, -1.099e-6, -6.564e-7, 4.430e-7
0.165, -1.104e-6, -6.577e-7, 4.461e-7
0.164, -1.103e-6, -6.568e-7, 4.467e-7
0.163, -1.105e-6, -6.583e-7, 4.467e-7
0.162, -1.109e-6, -6.619e-7, 4.473e-7
0.161, -1.108e-6, -6.595e-7, 4.488e-7
0.160, -1.111e-6, -6.622e-7, 4.488e-7
0.159, -1.113e-6, -6.638e-7, 4.488e-7
0.158, -1.115e-6, -6.632e-7, 4.516e-7
0.157, -1.114e-6, -6.650e-7, 4.494e-7
0.156, -1.118e-6, -6.659e-7, 4.522e-7
0.155, -1.117e-6, -6.653e-7, 4.522e-7
0.154, -1.121e-6, -6.674e-7, 4.537e-7
0.153, -1.125e-6, -6.696e-7, 4.552e-7
0.152, -1.123e-6, -6.690e-7, 4.543e-7
0.151, -1.126e-6, -6.708e-7, 4.549e-7
0.150, -1.130e-6, -6.729e-7, 4.574e-7
0.149, -1.131e-6, -6.732e-7, 4.577e-7
0.148, -1.132e-6, -6.741e-7, 4.580e-7
0.147, -1.136e-6, -6.751e-7, 4.607e-7
0.146, -1.135e-6, -6.760e-7, 4.595e-7
0.145, -1.135e-6, -6.751e-7, 4.598e-7
0.144, -1.137e-6, -6.772e-7, 4.601e-7
0.143, -1.139e-6, -6.778e-7, 4.610e-7
0.142, -1.141e-6, -6.790e-7, 4.623e-7
0.141, -1.146e-6, -6.818e-7, 4.641e-7
0.140, -1.145e-6, -6.806e-7, 4.644e-7
0.139, -1.147e-6, -6.824e-7, 4.647e-7
0.138, -1.148e-6, -6.839e-7, 4.644e-7
0.137, -1.151e-6, -6.833e-7, 4.674e-7
0.136, -1.151e-6, -6.845e-7, 4.662e-7
0.135, -1.155e-6, -6.864e-7, 4.687e-7
0.134, -1.156e-6, -6.857e-7, 4.705e-7
0.133, -1.156e-6, -6.870e-7, 4.687e-7
0.132, -1.160e-6, -6.888e-7, 4.714e-7
0.131, -1.160e-6, -6.882e-7, 4.717e-7
0.130, -1.162e-6, -6.900e-7, 4.717e-7
0.129, -1.164e-6, -6.915e-7, 4.726e-7
0.128, -1.164e-6, -6.906e-7, 4.739e-7
0.127, -1.164e-6, -6.925e-7, 4.720e-7
0.126, -1.169e-6, -6.943e-7, 4.745e-7
0.125, -1.169e-6, -6.943e-7, 4.751e-7
0.124, -1.171e-6, -6.967e-7, 4.742e-7
0.123, -1.173e-6, -6.958e-7, 4.772e-7
0.122, -1.175e-6, -6.970e-7, 4.781e-7
0.121, -1.175e-6, -6.976e-7, 4.778e-7
0.120, -1.177e-6, -6.973e-7, 4.793e-7
0.119, -1.177e-6, -6.983e-7, 4.784e-7
0.118, -1.178e-6, -7.001e-7, 4.781e-7
0.117, -1.182e-6, -7.004e-7, 4.812e-7
0.116, -1.182e-6, -7.001e-7, 4.818e-7
0.115, -1.181e-6, -7.010e-7, 4.800e-7
0.114, -1.185e-6, -7.022e-7, 4.830e-7
0.113, -1.185e-6, -7.022e-7, 4.830e-7
0.112, -1.189e-6, -7.050e-7, 4.842e-7
0.111, -1.190e-6, -7.044e-7, 4.855e-7
0.110, -1.193e-6, -7.050e-7, 4.876e-7
0.109, -1.193e-6, -7.068e-7, 4.861e-7
0.108, -1.194e-6, -7.080e-7, 4.864e-7
0.107, -1.194e-6, -7.065e-7, 4.876e-7
0.106, -1.197e-6, -7.083e-7, 4.888e-7
0.105, -1.199e-6, -7.095e-7, 4.897e-7
0.104, -1.198e-6, -7.080e-7, 4.900e-7
0.103, -1.203e-6, -7.114e-7, 4.913e-7
0.102, -1.202e-6, -7.111e-7, 4.909e-7
0.101, -1.205e-6, -7.105e-7, 4.943e-7
0.100, -1.206e-6, -7.135e-7, 4.928e-7
0.099, -1.208e-6, -7.129e-7, 4.946e-7
0.098, -1.208e-6, -7.129e-7, 4.955e-7
0.097, -1.207e-6, -7.129e-7, 4.943e-7
0.096, -1.211e-6, -7.150e-7, 4.964e-7
0.095, -1.211e-6, -7.150e-7, 4.955e-7
0.094, -1.212e-6, -7.144e-7, 4.977e-7
0.093, -1.215e-6, -7.166e-7, 4.983e-7
0.092, -1.214e-6, -7.150e-7, 4.986e-7
0.091, -1.216e-6, -7.163e-7, 4.995e-7
0.090, -1.220e-6, -7.187e-7, 5.013e-7
0.089, -1.218e-6, -7.169e-7, 5.013e-7
0.088, -1.219e-6, -7.178e-7, 5.013e-7
0.087, -1.222e-6, -7.193e-7, 5.028e-7
0.086, -1.221e-6, -7.187e-7, 5.019e-7
0.085, -1.223e-6, -7.190e-7, 5.044e-7
0.084, -1.224e-6, -7.211e-7, 5.032e-7
0.083, -1.224e-6, -7.196e-7, 5.044e-7
0.082, -1.226e-6, -7.211e-7, 5.044e-7
0.081, -1.228e-6, -7.214e-7, 5.068e-7
0.080, -1.228e-6, -7.205e-7, 5.071e-7
0.079, -1.229e-6, -7.224e-7, 5.068e-7
0.078, -1.231e-6, -7.230e-7, 5.080e-7
0.077, -1.230e-6, -7.205e-7, 5.096e-7
0.076, -1.230e-6, -7.214e-7, 5.089e-7
0.075, -1.233e-6, -7.233e-7, 5.102e-7
0.074, -1.235e-6, -7.233e-7, 5.117e-7
0.073, -1.235e-6, -7.233e-7, 5.117e-7
0.072, -1.236e-6, -7.239e-7, 5.123e-7
0.071, -1.236e-6, -7.230e-7, 5.126e-7
0.070, -1.238e-6, -7.251e-7, 5.126e-7
0.069, -1.238e-6, -7.248e-7, 5.132e-7
0.068, -1.240e-6, -7.254e-7, 5.144e-7
0.067, -1.240e-6, -7.257e-7, 5.144e-7
0.066, -1.241e-6, -7.257e-7, 5.154e-7
0.065, -1.240e-6, -7.248e-7, 5.157e-7
0.064, -1.243e-6, -7.260e-7, 5.166e-7
0.063, -1.244e-6, -7.257e-7, 5.187e-7
0.062, -1.244e-6, -7.251e-7, 5.184e-7
0.061, -1.244e-6, -7.260e-7, 5.175e-7
0.060, -1.245e-6, -7.254e-7, 5.193e-7
0.059, -1.247e-6, -7.266e-7, 5.199e-7
0.058, -1.247e-6, -7.269e-7, 5.202e-7
0.057, -1.247e-6, -7.260e-7, 5.209e-7
0.056, -1.247e-6, -7.266e-7, 5.205e-7
0.055, -1.248e-6, -7.279e-7, 5.202e-7
0.054, -1.248e-6, -7.263e-7, 5.218e-7
0.053, -1.248e-6, -7.266e-7, 5.218e-7
0.052, -1.250e-6, -7.260e-7, 5.236e-7
0.051, -1.251e-6, -7.276e-7, 5.233e-7
0.050, -1.250e-6, -7.257e-7, 5.242e-7
0.049, -1.252e-6, -7.282e-7, 5.242e-7
0.048, -1.252e-6, -7.269e-7, 5.254e-7
0.047, -1.253e-6, -7.266e-7, 5.263e-7
0.046, -1.253e-6, -7.266e-7, 5.266e-7
0.045, -1.254e-6, -7.260e-7, 5.282e-7
0.044, -1.254e-6, -7.260e-7, 5.276e-7
0.043, -1.254e-6, -7.269e-7, 5.270e-7
0.042, -1.254e-6, -7.263e-7, 5.273e-7
0.041, -1.255e-6, -7.257e-7, 5.288e-7
0.040, -1.255e-6, -7.269e-7, 5.285e-7
0.039, -1.255e-6, -7.260e-7, 5.294e-7
0.038, -1.256e-6, -7.248e-7, 5.312e-7
0.037, -1.256e-6, -7.254e-7, 5.303e-7
0.036, -1.257e-6, -7.251e-7, 5.315e-7
0.035, -1.256e-6, -7.254e-7, 5.306e-7
0.034, -1.256e-6, -7.248e-7, 5.309e-7
0.033, -1.256e-6, -7.245e-7, 5.312e-7
0.032, -1.254e-6, -7.227e-7, 5.309e-7
0.031, -1.255e-6, -7.224e-7, 5.324e-7
0.030, -1.256e-6, -7.239e-7, 5.318e-7
0.029, -1.258e-6, -7.236e-7, 5.346e-7
0.028, -1.257e-6, -7.245e-7, 5.328e-7
0.027, -1.255e-6, -7.227e-7, 5.321e-7
0.026, -1.257e-6, -7.224e-7, 5.343e-7
0.025, -1.257e-6, -7.221e-7, 5.346e-7
0.024, -1.256e-6, -7.221e-7, 5.343e-7
0.023, -1.256e-6, -7.211e-7, 5.349e-7
0.022, -1.258e-6, -7.211e-7, 5.367e-7
0.021, -1.257e-6, -7.205e-7, 5.361e-7
0.020, -1.256e-6, -7.202e-7, 5.358e-7
0.019, -1.256e-6, -7.208e-7, 5.352e-7
0.018, -1.256e-6, -7.193e-7, 5.367e-7
0.017, -1.257e-6, -7.196e-7, 5.376e-7
0.016, -1.257e-6, -7.199e-7, 5.370e-7
0.015, -1.257e-6, -7.187e-7, 5.382e-7
0.014, -1.256e-6, -7.187e-7, 5.376e-7
0.013, -1.256e-6, -7.178e-7, 5.382e-7
0.012, -1.256e-6, -7.175e-7, 5.385e-7
0.011, -1.256e-6, -7.178e-7, 5.385e-7
0.010, -1.254e-6, -7.160e-7, 5.379e-7
0.009, -1.257e-6, -7.160e-7, 5.407e-7
0.008, -1.255e-6, -7.147e-7, 5.401e-7
0.007, -1.256e-6, -7.153e-7, 5.404e-7
0.006, -1.255e-6, -7.150e-7, 5.395e-7
0.005, -1.254e-6, -7.141e-7, 5.398e-7
0.004, -1.252e-6, -7.123e-7, 5.398e-7
0.003, -1.254e-6, -7.126e-7, 5.413e-7
0.002, -1.255e-6, -7.135e-7, 5.410e-7
0.001, -1.251e-6, -7.120e-7, 5.395e-7
-0.000, -1.250e-6, -7.105e-7, 5.392e-7
-0.001, -1.253e-6, -7.123e-7, 5.407e-7
-0.002, -1.252e-6, -7.120e-7, 5.404e-7
-0.003, -1.250e-6, -7.092e-7, 5.410e-7
-0.004, -1.250e-6, -7.089e-7, 5.407e-7
-0.005, -1.251e-6, -7.105e-7, 5.407e-7
-0.006, -1.249e-6, -7.083e-7, 5.410e-7
-0.007, -1.249e-6, -7.077e-7, 5.410e-7
-0.008, -1.249e-6, -7.077e-7, 5.416e-7
-0.009, -1.248e-6, -7.053e-7, 5.425e-7
-0.010, -1.248e-6, -7.065e-7, 5.413e-7
-0.011, -1.248e-6, -7.062e-7, 5.419e-7
-0.012, -1.246e-6, -7.050e-7, 5.410e-7
-0.013, -1.246e-6, -7.050e-7, 5.413e-7
-0.014, -1.244e-6, -7.028e-7, 5.410e-7
-0.015, -1.246e-6, -7.028e-7, 5.431e-7
-0.016, -1.243e-6, -7.019e-7, 5.413e-7
-0.017, -1.242e-6, -7.004e-7, 5.419e-7
-0.018, -1.243e-6, -7.007e-7, 5.419e-7
-0.019, -1.241e-6, -7.007e-7, 5.407e-7
-0.020, -1.241e-6, -7.004e-7, 5.410e-7
-0.021, -1.237e-6, -6.967e-7, 5.404e-7
-0.022, -1.239e-6, -6.980e-7, 5.410e-7
-0.023, -1.240e-6, -6.980e-7, 5.419e-7
-0.024, -1.239e-6, -6.973e-7, 5.413e-7
-0.025, -1.237e-6, -6.955e-7, 5.416e-7
-0.026, -1.238e-6, -6.958e-7, 5.419e-7
-0.027, -1.238e-6, -6.964e-7, 5.413e-7
-0.028, -1.234e-6, -6.934e-7, 5.407e-7
-0.029, -1.236e-6, -6.943e-7, 5.413e-7
-0.030, -1.234e-6, -6.931e-7, 5.413e-7
-0.031, -1.234e-6, -6.922e-7, 5.416e-7
-0.032, -1.234e-6, -6.925e-7, 5.413e-7
-0.033, -1.231e-6, -6.903e-7, 5.410e-7
-0.034, -1.232e-6, -6.909e-7, 5.410e-7
-0.035, -1.230e-6, -6.894e-7, 5.410e-7
-0.036, -1.229e-6, -6.897e-7, 5.398e-7
-0.037, -1.232e-6, -6.900e-7, 5.422e-7
-0.038, -1.228e-6, -6.879e-7, 5.404e-7
-0.039, -1.227e-6, -6.864e-7, 5.410e-7
-0.040, -1.227e-6, -6.867e-7, 5.404e-7
-0.041, -1.227e-6, -6.867e-7, 5.404e-7
-0.042, -1.225e-6, -6.851e-7, 5.398e-7
-0.043, -1.226e-6, -6.845e-7, 5.413e-7
-0.044, -1.223e-6, -6.842e-7, 5.389e-7
-0.045, -1.223e-6, -6.827e-7, 5.407e-7
-0.046, -1.223e-6, -6.842e-7, 5.385e-7
-0.047, -1.221e-6, -6.818e-7, 5.392e-7
-0.048, -1.222e-6, -6.812e-7, 5.404e-7
-0.049, -1.220e-6, -6.821e-7, 5.379e-7
-0.050, -1.219e-6, -6.806e-7, 5.385e-7
