Mar. 20, 2018   15:29:07
Square Wave Voltammetry
File: c:\users\electrochemist\desktop\2018\20032018_unbufarray_unpap\49_g0_ph8,00_1.txt
Data Source:  Experiment
Instrument Model:  CHI1040A
Header: 
Note: 

Init E (V) = 0.7
Final E (V) = -0.4
Incr E (V) = 0.001
Amplitude (V) = 0.1
Frequency (Hz) = 152
Quiet Time (sec) = 2
Sensitivity (A/V) = 1e-6

Difference:

Forward:

Reverse:

Potential/V, Diff(i/A), For(i/A), Rev(i/A)

0.699, -9.693e-6, -4.404e-7, 9.253e-6
0.698, -1.391e-5, -5.668e-6, 8.242e-6
0.697, -1.415e-5, -6.039e-6, 8.113e-6
0.696, -1.415e-5, -6.090e-6, 8.060e-6
0.695, -1.413e-5, -6.095e-6, 8.032e-6
0.694, -1.409e-5, -6.089e-6, 8.006e-6
0.693, -1.408e-5, -6.096e-6, 7.981e-6
0.692, -1.405e-5, -6.085e-6, 7.965e-6
0.691, -1.403e-5, -6.078e-6, 7.955e-6
0.690, -1.401e-5, -6.084e-6, 7.931e-6
0.689, -1.400e-5, -6.080e-6, 7.918e-6
0.688, -1.398e-5, -6.070e-6, 7.906e-6
0.687, -1.397e-5, -6.076e-6, 7.889e-6
0.686, -1.394e-5, -6.068e-6, 7.877e-6
0.685, -1.392e-5, -6.057e-6, 7.864e-6
0.684, -1.392e-5, -6.067e-6, 7.848e-6
0.683, -1.389e-5, -6.056e-6, 7.838e-6
0.682, -1.387e-5, -6.049e-6, 7.821e-6
0.681, -1.386e-5, -6.049e-6, 7.809e-6
0.680, -1.385e-5, -6.048e-6, 7.800e-6
0.679, -1.382e-5, -6.036e-6, 7.782e-6
0.678, -1.381e-5, -6.037e-6, 7.768e-6
0.677, -1.380e-5, -6.037e-6, 7.763e-6
0.676, -1.377e-5, -6.022e-6, 7.747e-6
0.675, -1.375e-5, -6.024e-6, 7.729e-6
0.674, -1.374e-5, -6.021e-6, 7.723e-6
0.673, -1.373e-5, -6.016e-6, 7.711e-6
0.672, -1.370e-5, -6.009e-6, 7.691e-6
0.671, -1.370e-5, -6.012e-6, 7.690e-6
0.670, -1.368e-5, -6.006e-6, 7.674e-6
0.669, -1.366e-5, -6.007e-6, 7.653e-6
0.668, -1.364e-5, -5.997e-6, 7.647e-6
0.667, -1.362e-5, -5.989e-6, 7.631e-6
0.666, -1.360e-5, -5.982e-6, 7.617e-6
0.665, -1.359e-5, -5.983e-6, 7.610e-6
0.664, -1.358e-5, -5.980e-6, 7.596e-6
0.663, -1.358e-5, -5.984e-6, 7.594e-6
0.662, -1.357e-5, -5.986e-6, 7.584e-6
0.661, -1.356e-5, -5.981e-6, 7.580e-6
0.660, -1.353e-5, -5.974e-6, 7.561e-6
0.659, -1.353e-5, -5.981e-6, 7.550e-6
0.658, -1.352e-5, -5.971e-6, 7.550e-6
0.657, -1.350e-5, -5.970e-6, 7.531e-6
0.656, -1.350e-5, -5.974e-6, 7.527e-6
0.655, -1.349e-5, -5.970e-6, 7.525e-6
0.654, -1.347e-5, -5.968e-6, 7.506e-6
0.653, -1.346e-5, -5.968e-6, 7.496e-6
0.652, -1.347e-5, -5.966e-6, 7.500e-6
0.651, -1.344e-5, -5.964e-6, 7.478e-6
0.650, -1.343e-5, -5.963e-6, 7.465e-6
0.649, -1.342e-5, -5.955e-6, 7.462e-6
0.648, -1.340e-5, -5.953e-6, 7.445e-6
0.647, -1.339e-5, -5.955e-6, 7.439e-6
0.646, -1.338e-5, -5.950e-6, 7.432e-6
0.645, -1.337e-5, -5.949e-6, 7.419e-6
0.644, -1.337e-5, -5.955e-6, 7.414e-6
0.643, -1.334e-5, -5.942e-6, 7.401e-6
0.642, -1.333e-5, -5.942e-6, 7.393e-6
0.641, -1.333e-5, -5.946e-6, 7.381e-6
0.640, -1.331e-5, -5.936e-6, 7.377e-6
0.639, -1.330e-5, -5.940e-6, 7.365e-6
0.638, -1.329e-5, -5.942e-6, 7.352e-6
0.637, -1.329e-5, -5.937e-6, 7.355e-6
0.636, -1.328e-5, -5.939e-6, 7.343e-6
0.635, -1.328e-5, -5.942e-6, 7.334e-6
0.634, -1.327e-5, -5.935e-6, 7.331e-6
0.633, -1.326e-5, -5.938e-6, 7.320e-6
0.632, -1.325e-5, -5.941e-6, 7.310e-6
0.631, -1.324e-5, -5.931e-6, 7.307e-6
0.630, -1.324e-5, -5.940e-6, 7.299e-6
0.629, -1.324e-5, -5.944e-6, 7.293e-6
0.628, -1.322e-5, -5.933e-6, 7.287e-6
0.627, -1.321e-5, -5.935e-6, 7.276e-6
0.626, -1.322e-5, -5.946e-6, 7.277e-6
0.625, -1.320e-5, -5.936e-6, 7.265e-6
0.624, -1.319e-5, -5.932e-6, 7.254e-6
0.623, -1.318e-5, -5.936e-6, 7.244e-6
0.622, -1.317e-5, -5.934e-6, 7.240e-6
0.621, -1.317e-5, -5.933e-6, 7.234e-6
0.620, -1.317e-5, -5.938e-6, 7.227e-6
0.619, -1.316e-5, -5.940e-6, 7.222e-6
0.618, -1.315e-5, -5.937e-6, 7.218e-6
0.617, -1.315e-5, -5.941e-6, 7.207e-6
0.616, -1.315e-5, -5.943e-6, 7.202e-6
0.615, -1.314e-5, -5.938e-6, 7.197e-6
0.614, -1.312e-5, -5.940e-6, 7.183e-6
0.613, -1.313e-5, -5.943e-6, 7.185e-6
0.612, -1.312e-5, -5.940e-6, 7.181e-6
0.611, -1.311e-5, -5.944e-6, 7.164e-6
0.610, -1.312e-5, -5.950e-6, 7.171e-6
0.609, -1.311e-5, -5.943e-6, 7.163e-6
0.608, -1.310e-5, -5.949e-6, 7.151e-6
0.607, -1.310e-5, -5.951e-6, 7.150e-6
0.606, -1.310e-5, -5.951e-6, 7.146e-6
0.605, -1.309e-5, -5.955e-6, 7.139e-6
0.604, -1.310e-5, -5.956e-6, 7.141e-6
0.603, -1.309e-5, -5.957e-6, 7.129e-6
0.602, -1.308e-5, -5.961e-6, 7.119e-6
0.601, -1.309e-5, -5.961e-6, 7.127e-6
0.600, -1.309e-5, -5.966e-6, 7.120e-6
0.599, -1.307e-5, -5.966e-6, 7.103e-6
0.598, -1.307e-5, -5.968e-6, 7.102e-6
0.597, -1.307e-5, -5.970e-6, 7.103e-6
0.596, -1.307e-5, -5.973e-6, 7.095e-6
0.595, -1.307e-5, -5.974e-6, 7.091e-6
0.594, -1.307e-5, -5.974e-6, 7.096e-6
0.593, -1.307e-5, -5.986e-6, 7.083e-6
0.592, -1.306e-5, -5.983e-6, 7.077e-6
0.591, -1.305e-5, -5.979e-6, 7.074e-6
0.590, -1.306e-5, -5.991e-6, 7.065e-6
0.589, -1.306e-5, -5.987e-6, 7.072e-6
0.588, -1.306e-5, -5.993e-6, 7.066e-6
0.587, -1.305e-5, -5.999e-6, 7.055e-6
0.586, -1.306e-5, -6.004e-6, 7.060e-6
0.585, -1.305e-5, -5.999e-6, 7.053e-6
0.584, -1.306e-5, -6.014e-6, 7.047e-6
0.583, -1.306e-5, -6.010e-6, 7.049e-6
0.582, -1.306e-5, -6.010e-6, 7.045e-6
0.581, -1.306e-5, -6.024e-6, 7.036e-6
0.580, -1.306e-5, -6.019e-6, 7.042e-6
0.579, -1.306e-5, -6.022e-6, 7.040e-6
0.578, -1.308e-5, -6.039e-6, 7.037e-6
0.577, -1.308e-5, -6.042e-6, 7.040e-6
0.576, -1.307e-5, -6.036e-6, 7.032e-6
0.575, -1.308e-5, -6.050e-6, 7.027e-6
0.574, -1.308e-5, -6.052e-6, 7.026e-6
0.573, -1.307e-5, -6.046e-6, 7.020e-6
0.572, -1.308e-5, -6.057e-6, 7.020e-6
0.571, -1.307e-5, -6.059e-6, 7.014e-6
0.570, -1.307e-5, -6.061e-6, 7.011e-6
0.569, -1.308e-5, -6.066e-6, 7.012e-6
0.568, -1.308e-5, -6.076e-6, 7.004e-6
0.567, -1.308e-5, -6.074e-6, 7.004e-6
0.566, -1.306e-5, -6.075e-6, 6.988e-6
0.565, -1.307e-5, -6.078e-6, 6.987e-6
0.564, -1.307e-5, -6.078e-6, 6.987e-6
0.563, -1.306e-5, -6.081e-6, 6.982e-6
0.562, -1.308e-5, -6.095e-6, 6.982e-6
0.561, -1.307e-5, -6.089e-6, 6.980e-6
0.560, -1.309e-5, -6.102e-6, 6.985e-6
0.559, -1.310e-5, -6.120e-6, 6.981e-6
0.558, -1.310e-5, -6.115e-6, 6.988e-6
0.557, -1.309e-5, -6.110e-6, 6.981e-6
0.556, -1.311e-5, -6.132e-6, 6.981e-6
0.555, -1.311e-5, -6.131e-6, 6.980e-6
0.554, -1.310e-5, -6.128e-6, 6.975e-6
0.553, -1.312e-5, -6.141e-6, 6.974e-6
0.552, -1.312e-5, -6.142e-6, 6.976e-6
0.551, -1.311e-5, -6.148e-6, 6.966e-6
0.550, -1.313e-5, -6.158e-6, 6.968e-6
0.549, -1.312e-5, -6.156e-6, 6.966e-6
0.548, -1.312e-5, -6.159e-6, 6.959e-6
0.547, -1.312e-5, -6.164e-6, 6.958e-6
0.546, -1.313e-5, -6.170e-6, 6.963e-6
0.545, -1.313e-5, -6.175e-6, 6.959e-6
0.544, -1.313e-5, -6.182e-6, 6.950e-6
0.543, -1.314e-5, -6.182e-6, 6.956e-6
0.542, -1.313e-5, -6.188e-6, 6.947e-6
0.541, -1.314e-5, -6.198e-6, 6.946e-6
0.540, -1.315e-5, -6.192e-6, 6.953e-6
0.539, -1.315e-5, -6.207e-6, 6.938e-6
0.538, -1.315e-5, -6.210e-6, 6.939e-6
0.537, -1.315e-5, -6.207e-6, 6.944e-6
0.536, -1.315e-5, -6.219e-6, 6.930e-6
0.535, -1.316e-5, -6.224e-6, 6.938e-6
0.534, -1.317e-5, -6.228e-6, 6.939e-6
0.533, -1.317e-5, -6.238e-6, 6.936e-6
0.532, -1.318e-5, -6.241e-6, 6.938e-6
0.531, -1.318e-5, -6.241e-6, 6.935e-6
0.530, -1.319e-5, -6.253e-6, 6.936e-6
0.529, -1.319e-5, -6.261e-6, 6.933e-6
0.528, -1.319e-5, -6.257e-6, 6.935e-6
0.527, -1.320e-5, -6.270e-6, 6.932e-6
0.526, -1.321e-5, -6.278e-6, 6.929e-6
0.525, -1.322e-5, -6.283e-6, 6.936e-6
0.524, -1.322e-5, -6.286e-6, 6.933e-6
0.523, -1.322e-5, -6.296e-6, 6.925e-6
0.522, -1.322e-5, -6.295e-6, 6.924e-6
0.521, -1.322e-5, -6.296e-6, 6.926e-6
0.520, -1.323e-5, -6.309e-6, 6.923e-6
0.519, -1.324e-5, -6.313e-6, 6.922e-6
0.518, -1.324e-5, -6.312e-6, 6.925e-6
0.517, -1.325e-5, -6.328e-6, 6.921e-6
0.516, -1.326e-5, -6.333e-6, 6.923e-6
0.515, -1.326e-5, -6.333e-6, 6.929e-6
0.514, -1.328e-5, -6.353e-6, 6.925e-6
0.513, -1.328e-5, -6.355e-6, 6.929e-6
0.512, -1.328e-5, -6.354e-6, 6.926e-6
0.511, -1.329e-5, -6.369e-6, 6.925e-6
0.510, -1.330e-5, -6.376e-6, 6.925e-6
0.509, -1.330e-5, -6.375e-6, 6.928e-6
0.508, -1.331e-5, -6.388e-6, 6.924e-6
0.507, -1.332e-5, -6.394e-6, 6.922e-6
0.506, -1.332e-5, -6.392e-6, 6.925e-6
0.505, -1.333e-5, -6.406e-6, 6.921e-6
0.504, -1.334e-5, -6.413e-6, 6.926e-6
0.503, -1.334e-5, -6.413e-6, 6.929e-6
0.502, -1.335e-5, -6.427e-6, 6.925e-6
0.501, -1.337e-5, -6.438e-6, 6.930e-6
0.500, -1.337e-5, -6.434e-6, 6.934e-6
0.499, -1.337e-5, -6.449e-6, 6.919e-6
0.498, -1.339e-5, -6.458e-6, 6.935e-6
0.497, -1.339e-5, -6.460e-6, 6.933e-6
0.496, -1.339e-5, -6.468e-6, 6.925e-6
0.495, -1.341e-5, -6.476e-6, 6.931e-6
0.494, -1.340e-5, -6.475e-6, 6.930e-6
0.493, -1.342e-5, -6.491e-6, 6.926e-6
0.492, -1.343e-5, -6.496e-6, 6.936e-6
0.491, -1.343e-5, -6.502e-6, 6.926e-6
0.490, -1.344e-5, -6.511e-6, 6.932e-6
0.489, -1.344e-5, -6.515e-6, 6.930e-6
0.488, -1.345e-5, -6.520e-6, 6.927e-6
0.487, -1.346e-5, -6.527e-6, 6.929e-6
0.486, -1.347e-5, -6.533e-6, 6.933e-6
0.485, -1.347e-5, -6.538e-6, 6.933e-6
0.484, -1.349e-5, -6.559e-6, 6.936e-6
0.483, -1.349e-5, -6.558e-6, 6.936e-6
0.482, -1.351e-5, -6.566e-6, 6.941e-6
0.481, -1.352e-5, -6.577e-6, 6.938e-6
0.480, -1.352e-5, -6.579e-6, 6.941e-6
0.479, -1.353e-5, -6.589e-6, 6.939e-6
0.478, -1.353e-5, -6.597e-6, 6.937e-6
0.477, -1.355e-5, -6.606e-6, 6.948e-6
0.476, -1.357e-5, -6.617e-6, 6.954e-6
0.475, -1.357e-5, -6.626e-6, 6.942e-6
0.474, -1.357e-5, -6.627e-6, 6.947e-6
0.473, -1.358e-5, -6.633e-6, 6.950e-6
0.472, -1.360e-5, -6.650e-6, 6.949e-6
0.471, -1.360e-5, -6.651e-6, 6.946e-6
0.470, -1.361e-5, -6.655e-6, 6.953e-6
0.469, -1.363e-5, -6.668e-6, 6.960e-6
0.468, -1.363e-5, -6.676e-6, 6.949e-6
0.467, -1.363e-5, -6.679e-6, 6.954e-6
0.466, -1.365e-5, -6.690e-6, 6.956e-6
0.465, -1.366e-5, -6.701e-6, 6.957e-6
0.464, -1.365e-5, -6.699e-6, 6.950e-6
0.463, -1.366e-5, -6.706e-6, 6.955e-6
0.462, -1.367e-5, -6.716e-6, 6.950e-6
0.461, -1.368e-5, -6.721e-6, 6.956e-6
0.460, -1.368e-5, -6.725e-6, 6.951e-6
0.459, -1.369e-5, -6.742e-6, 6.951e-6
0.458, -1.372e-5, -6.751e-6, 6.970e-6
0.457, -1.373e-5, -6.758e-6, 6.969e-6
0.456, -1.374e-5, -6.773e-6, 6.964e-6
0.455, -1.374e-5, -6.773e-6, 6.970e-6
0.454, -1.374e-5, -6.774e-6, 6.968e-6
0.453, -1.376e-5, -6.795e-6, 6.968e-6
0.452, -1.377e-5, -6.794e-6, 6.980e-6
0.451, -1.378e-5, -6.806e-6, 6.977e-6
0.450, -1.380e-5, -6.821e-6, 6.978e-6
0.449, -1.380e-5, -6.823e-6, 6.981e-6
0.448, -1.380e-5, -6.826e-6, 6.979e-6
0.447, -1.383e-5, -6.844e-6, 6.983e-6
0.446, -1.383e-5, -6.849e-6, 6.986e-6
0.445, -1.383e-5, -6.852e-6, 6.983e-6
0.444, -1.385e-5, -6.863e-6, 6.985e-6
0.443, -1.385e-5, -6.868e-6, 6.981e-6
0.442, -1.385e-5, -6.869e-6, 6.980e-6
0.441, -1.386e-5, -6.878e-6, 6.984e-6
0.440, -1.388e-5, -6.887e-6, 6.989e-6
0.439, -1.388e-5, -6.897e-6, 6.980e-6
0.438, -1.388e-5, -6.899e-6, 6.981e-6
0.437, -1.390e-5, -6.909e-6, 6.990e-6
0.436, -1.390e-5, -6.918e-6, 6.984e-6
0.435, -1.391e-5, -6.923e-6, 6.988e-6
0.434, -1.392e-5, -6.929e-6, 6.986e-6
0.433, -1.393e-5, -6.941e-6, 6.992e-6
0.432, -1.395e-5, -6.953e-6, 6.996e-6
0.431, -1.396e-5, -6.957e-6, 7.003e-6
0.430, -1.396e-5, -6.970e-6, 6.993e-6
0.429, -1.397e-5, -6.974e-6, 7.000e-6
0.428, -1.399e-5, -6.982e-6, 7.007e-6
0.427, -1.399e-5, -6.992e-6, 6.996e-6
0.426, -1.401e-5, -7.001e-6, 7.006e-6
0.425, -1.401e-5, -7.005e-6, 7.009e-6
0.424, -1.403e-5, -7.017e-6, 7.015e-6
0.423, -1.403e-5, -7.022e-6, 7.010e-6
0.422, -1.404e-5, -7.033e-6, 7.011e-6
0.421, -1.406e-5, -7.043e-6, 7.018e-6
0.420, -1.405e-5, -7.042e-6, 7.012e-6
0.419, -1.407e-5, -7.051e-6, 7.015e-6
0.418, -1.408e-5, -7.061e-6, 7.021e-6
0.417, -1.409e-5, -7.071e-6, 7.015e-6
0.416, -1.409e-5, -7.076e-6, 7.015e-6
0.415, -1.411e-5, -7.082e-6, 7.031e-6
0.414, -1.412e-5, -7.100e-6, 7.019e-6
0.413, -1.413e-5, -7.102e-6, 7.027e-6
0.412, -1.415e-5, -7.112e-6, 7.038e-6
0.411, -1.414e-5, -7.122e-6, 7.022e-6
0.410, -1.416e-5, -7.128e-6, 7.029e-6
0.409, -1.417e-5, -7.133e-6, 7.039e-6
0.408, -1.418e-5, -7.147e-6, 7.030e-6
0.407, -1.420e-5, -7.154e-6, 7.041e-6
0.406, -1.419e-5, -7.154e-6, 7.040e-6
0.405, -1.421e-5, -7.174e-6, 7.035e-6
0.404, -1.423e-5, -7.179e-6, 7.049e-6
0.403, -1.422e-5, -7.181e-6, 7.041e-6
0.402, -1.425e-5, -7.198e-6, 7.048e-6
0.401, -1.425e-5, -7.200e-6, 7.050e-6
0.400, -1.426e-5, -7.207e-6, 7.057e-6
0.399, -1.428e-5, -7.229e-6, 7.051e-6
0.398, -1.429e-5, -7.233e-6, 7.062e-6
0.397, -1.430e-5, -7.235e-6, 7.065e-6
0.396, -1.431e-5, -7.255e-6, 7.057e-6
0.395, -1.433e-5, -7.260e-6, 7.065e-6
0.394, -1.432e-5, -7.255e-6, 7.065e-6
0.393, -1.434e-5, -7.276e-6, 7.064e-6
0.392, -1.436e-5, -7.285e-6, 7.070e-6
0.391, -1.436e-5, -7.287e-6, 7.073e-6
0.390, -1.437e-5, -7.296e-6, 7.072e-6
0.389, -1.439e-5, -7.312e-6, 7.082e-6
0.388, -1.440e-5, -7.314e-6, 7.082e-6
0.387, -1.440e-5, -7.326e-6, 7.071e-6
0.386, -1.442e-5, -7.332e-6, 7.085e-6
0.385, -1.442e-5, -7.338e-6, 7.079e-6
0.384, -1.443e-5, -7.345e-6, 7.084e-6
0.383, -1.445e-5, -7.357e-6, 7.089e-6
0.382, -1.445e-5, -7.365e-6, 7.087e-6
0.381, -1.447e-5, -7.379e-6, 7.095e-6
0.380, -1.449e-5, -7.388e-6, 7.100e-6
0.379, -1.449e-5, -7.394e-6, 7.100e-6
0.378, -1.450e-5, -7.404e-6, 7.100e-6
0.377, -1.451e-5, -7.411e-6, 7.103e-6
0.376, -1.452e-5, -7.420e-6, 7.105e-6
0.375, -1.453e-5, -7.427e-6, 7.108e-6
0.374, -1.455e-5, -7.437e-6, 7.113e-6
0.373, -1.457e-5, -7.450e-6, 7.115e-6
0.372, -1.457e-5, -7.451e-6, 7.116e-6
0.371, -1.459e-5, -7.469e-6, 7.117e-6
0.370, -1.461e-5, -7.477e-6, 7.129e-6
0.369, -1.461e-5, -7.483e-6, 7.123e-6
0.368, -1.461e-5, -7.490e-6, 7.123e-6
0.367, -1.463e-5, -7.504e-6, 7.130e-6
0.366, -1.463e-5, -7.505e-6, 7.124e-6
0.365, -1.465e-5, -7.519e-6, 7.129e-6
0.364, -1.467e-5, -7.525e-6, 7.141e-6
0.363, -1.466e-5, -7.533e-6, 7.128e-6
0.362, -1.468e-5, -7.544e-6, 7.134e-6
0.361, -1.467e-5, -7.543e-6, 7.131e-6
0.360, -1.468e-5, -7.549e-6, 7.131e-6
0.359, -1.469e-5, -7.563e-6, 7.130e-6
0.358, -1.470e-5, -7.560e-6, 7.137e-6
0.357, -1.471e-5, -7.574e-6, 7.138e-6
0.356, -1.475e-5, -7.600e-6, 7.145e-6
0.355, -1.475e-5, -7.595e-6, 7.154e-6
0.354, -1.476e-5, -7.609e-6, 7.151e-6
0.353, -1.478e-5, -7.626e-6, 7.150e-6
0.352, -1.478e-5, -7.620e-6, 7.160e-6
0.351, -1.479e-5, -7.632e-6, 7.153e-6
0.350, -1.480e-5, -7.644e-6, 7.156e-6
0.349, -1.481e-5, -7.645e-6, 7.170e-6
0.348, -1.483e-5, -7.664e-6, 7.166e-6
0.347, -1.483e-5, -7.673e-6, 7.162e-6
0.346, -1.484e-5, -7.670e-6, 7.170e-6
0.345, -1.485e-5, -7.678e-6, 7.170e-6
0.344, -1.487e-5, -7.700e-6, 7.174e-6
0.343, -1.488e-5, -7.698e-6, 7.178e-6
0.342, -1.488e-5, -7.709e-6, 7.169e-6
0.341, -1.490e-5, -7.719e-6, 7.177e-6
0.340, -1.490e-5, -7.720e-6, 7.178e-6
0.339, -1.491e-5, -7.733e-6, 7.176e-6
0.338, -1.493e-5, -7.746e-6, 7.188e-6
0.337, -1.494e-5, -7.751e-6, 7.186e-6
0.336, -1.494e-5, -7.760e-6, 7.178e-6
0.335, -1.495e-5, -7.763e-6, 7.184e-6
0.334, -1.495e-5, -7.771e-6, 7.182e-6
0.333, -1.496e-5, -7.777e-6, 7.188e-6
0.332, -1.498e-5, -7.788e-6, 7.191e-6
0.331, -1.498e-5, -7.793e-6, 7.187e-6
0.330, -1.500e-5, -7.805e-6, 7.193e-6
0.329, -1.502e-5, -7.820e-6, 7.198e-6
0.328, -1.502e-5, -7.820e-6, 7.201e-6
0.327, -1.503e-5, -7.830e-6, 7.199e-6
0.326, -1.503e-5, -7.835e-6, 7.199e-6
0.325, -1.506e-5, -7.850e-6, 7.207e-6
0.324, -1.506e-5, -7.854e-6, 7.208e-6
0.323, -1.507e-5, -7.864e-6, 7.210e-6
0.322, -1.510e-5, -7.880e-6, 7.219e-6
0.321, -1.510e-5, -7.882e-6, 7.218e-6
0.320, -1.511e-5, -7.894e-6, 7.217e-6
0.319, -1.513e-5, -7.905e-6, 7.222e-6
0.318, -1.513e-5, -7.911e-6, 7.224e-6
0.317, -1.514e-5, -7.920e-6, 7.216e-6
0.316, -1.515e-5, -7.928e-6, 7.226e-6
0.315, -1.516e-5, -7.928e-6, 7.228e-6
0.314, -1.516e-5, -7.938e-6, 7.224e-6
0.313, -1.518e-5, -7.950e-6, 7.232e-6
0.312, -1.519e-5, -7.956e-6, 7.231e-6
0.311, -1.519e-5, -7.966e-6, 7.225e-6
0.310, -1.521e-5, -7.976e-6, 7.237e-6
0.309, -1.522e-5, -7.981e-6, 7.240e-6
0.308, -1.523e-5, -7.991e-6, 7.240e-6
0.307, -1.524e-5, -7.999e-6, 7.240e-6
0.306, -1.525e-5, -8.008e-6, 7.246e-6
0.305, -1.526e-5, -8.019e-6, 7.242e-6
0.304, -1.526e-5, -8.021e-6, 7.243e-6
0.303, -1.527e-5, -8.024e-6, 7.247e-6
0.302, -1.528e-5, -8.037e-6, 7.244e-6
0.301, -1.530e-5, -8.046e-6, 7.254e-6
0.300, -1.531e-5, -8.053e-6, 7.257e-6
0.299, -1.532e-5, -8.069e-6, 7.250e-6
0.298, -1.533e-5, -8.070e-6, 7.260e-6
0.297, -1.535e-5, -8.079e-6, 7.267e-6
0.296, -1.536e-5, -8.097e-6, 7.262e-6
0.295, -1.537e-5, -8.105e-6, 7.266e-6
0.294, -1.538e-5, -8.108e-6, 7.268e-6
0.293, -1.540e-5, -8.123e-6, 7.274e-6
0.292, -1.540e-5, -8.125e-6, 7.277e-6
0.291, -1.541e-5, -8.134e-6, 7.274e-6
0.290, -1.543e-5, -8.149e-6, 7.277e-6
0.289, -1.544e-5, -8.153e-6, 7.282e-6
0.288, -1.544e-5, -8.158e-6, 7.282e-6
0.287, -1.546e-5, -8.173e-6, 7.286e-6
0.286, -1.547e-5, -8.179e-6, 7.287e-6
0.285, -1.548e-5, -8.186e-6, 7.291e-6
0.284, -1.549e-5, -8.197e-6, 7.290e-6
0.283, -1.550e-5, -8.207e-6, 7.290e-6
0.282, -1.551e-5, -8.209e-6, 7.299e-6
0.281, -1.551e-5, -8.221e-6, 7.294e-6
0.280, -1.554e-5, -8.235e-6, 7.302e-6
0.279, -1.555e-5, -8.241e-6, 7.304e-6
0.278, -1.556e-5, -8.248e-6, 7.307e-6
0.277, -1.557e-5, -8.263e-6, 7.308e-6
0.276, -1.558e-5, -8.268e-6, 7.317e-6
0.275, -1.559e-5, -8.273e-6, 7.312e-6
0.274, -1.561e-5, -8.294e-6, 7.320e-6
0.273, -1.562e-5, -8.295e-6, 7.325e-6
0.272, -1.563e-5, -8.302e-6, 7.323e-6
0.271, -1.565e-5, -8.321e-6, 7.332e-6
0.270, -1.566e-5, -8.323e-6, 7.335e-6
0.269, -1.567e-5, -8.335e-6, 7.335e-6
0.268, -1.568e-5, -8.348e-6, 7.334e-6
0.267, -1.569e-5, -8.352e-6, 7.341e-6
0.266, -1.569e-5, -8.355e-6, 7.339e-6
0.265, -1.571e-5, -8.372e-6, 7.342e-6
0.264, -1.573e-5, -8.379e-6, 7.350e-6
0.263, -1.573e-5, -8.386e-6, 7.346e-6
0.262, -1.574e-5, -8.396e-6, 7.346e-6
0.261, -1.576e-5, -8.406e-6, 7.356e-6
0.260, -1.577e-5, -8.415e-6, 7.355e-6
0.259, -1.577e-5, -8.424e-6, 7.348e-6
0.258, -1.579e-5, -8.425e-6, 7.365e-6
0.257, -1.579e-5, -8.435e-6, 7.354e-6
0.256, -1.580e-5, -8.447e-6, 7.358e-6
0.255, -1.582e-5, -8.451e-6, 7.368e-6
0.254, -1.582e-5, -8.460e-6, 7.358e-6
0.253, -1.586e-5, -8.480e-6, 7.376e-6
0.252, -1.587e-5, -8.486e-6, 7.385e-6
0.251, -1.587e-5, -8.497e-6, 7.373e-6
0.250, -1.589e-5, -8.504e-6, 7.383e-6
0.249, -1.590e-5, -8.509e-6, 7.389e-6
0.248, -1.591e-5, -8.522e-6, 7.386e-6
0.247, -1.592e-5, -8.533e-6, 7.391e-6
0.246, -1.593e-5, -8.538e-6, 7.395e-6
0.245, -1.594e-5, -8.550e-6, 7.394e-6
0.244, -1.596e-5, -8.559e-6, 7.402e-6
0.243, -1.597e-5, -8.565e-6, 7.404e-6
0.242, -1.598e-5, -8.580e-6, 7.404e-6
0.241, -1.600e-5, -8.591e-6, 7.410e-6
0.240, -1.600e-5, -8.587e-6, 7.412e-6
0.239, -1.601e-5, -8.603e-6, 7.411e-6
0.238, -1.602e-5, -8.612e-6, 7.410e-6
0.237, -1.604e-5, -8.616e-6, 7.420e-6
0.236, -1.605e-5, -8.630e-6, 7.422e-6
0.235, -1.606e-5, -8.642e-6, 7.421e-6
0.234, -1.608e-5, -8.648e-6, 7.429e-6
0.233, -1.608e-5, -8.655e-6, 7.425e-6
0.232, -1.609e-5, -8.669e-6, 7.426e-6
0.231, -1.610e-5, -8.670e-6, 7.431e-6
0.230, -1.611e-5, -8.676e-6, 7.433e-6
0.229, -1.613e-5, -8.692e-6, 7.437e-6
0.228, -1.614e-5, -8.702e-6, 7.442e-6
0.227, -1.616e-5, -8.710e-6, 7.448e-6
0.226, -1.617e-5, -8.725e-6, 7.449e-6
0.225, -1.619e-5, -8.733e-6, 7.452e-6
0.224, -1.619e-5, -8.738e-6, 7.454e-6
0.223, -1.621e-5, -8.752e-6, 7.457e-6
0.222, -1.622e-5, -8.761e-6, 7.463e-6
0.221, -1.624e-5, -8.766e-6, 7.471e-6
0.220, -1.625e-5, -8.782e-6, 7.470e-6
0.219, -1.627e-5, -8.793e-6, 7.476e-6
0.218, -1.628e-5, -8.797e-6, 7.483e-6
0.217, -1.629e-5, -8.808e-6, 7.481e-6
0.216, -1.630e-5, -8.822e-6, 7.481e-6
0.215, -1.631e-5, -8.818e-6, 7.487e-6
0.214, -1.631e-5, -8.831e-6, 7.483e-6
0.213, -1.634e-5, -8.849e-6, 7.494e-6
0.212, -1.635e-5, -8.848e-6, 7.500e-6
0.211, -1.636e-5, -8.862e-6, 7.496e-6
0.210, -1.639e-5, -8.878e-6, 7.509e-6
0.209, -1.639e-5, -8.881e-6, 7.511e-6
0.208, -1.640e-5, -8.891e-6, 7.506e-6
0.207, -1.642e-5, -8.903e-6, 7.521e-6
0.206, -1.644e-5, -8.913e-6, 7.523e-6
0.205, -1.645e-5, -8.923e-6, 7.523e-6
0.204, -1.647e-5, -8.934e-6, 7.531e-6
0.203, -1.647e-5, -8.940e-6, 7.529e-6
0.202, -1.648e-5, -8.951e-6, 7.530e-6
0.201, -1.651e-5, -8.963e-6, 7.543e-6
0.200, -1.651e-5, -8.972e-6, 7.540e-6
0.199, -1.652e-5, -8.983e-6, 7.538e-6
0.198, -1.654e-5, -8.989e-6, 7.553e-6
0.197, -1.655e-5, -8.998e-6, 7.555e-6
0.196, -1.657e-5, -9.014e-6, 7.551e-6
0.195, -1.659e-5, -9.020e-6, 7.565e-6
0.194, -1.660e-5, -9.029e-6, 7.575e-6
0.193, -1.662e-5, -9.046e-6, 7.573e-6
0.192, -1.663e-5, -9.052e-6, 7.578e-6
0.191, -1.664e-5, -9.061e-6, 7.581e-6
0.190, -1.666e-5, -9.077e-6, 7.583e-6
0.189, -1.667e-5, -9.079e-6, 7.587e-6
0.188, -1.668e-5, -9.088e-6, 7.590e-6
0.187, -1.669e-5, -9.103e-6, 7.590e-6
0.186, -1.671e-5, -9.107e-6, 7.602e-6
0.185, -1.672e-5, -9.117e-6, 7.601e-6
0.184, -1.673e-5, -9.129e-6, 7.601e-6
0.183, -1.675e-5, -9.142e-6, 7.610e-6
0.182, -1.676e-5, -9.146e-6, 7.611e-6
0.181, -1.677e-5, -9.158e-6, 7.611e-6
0.180, -1.678e-5, -9.163e-6, 7.619e-6
0.179, -1.679e-5, -9.172e-6, 7.623e-6
0.178, -1.681e-5, -9.185e-6, 7.628e-6
0.177, -1.683e-5, -9.198e-6, 7.630e-6
0.176, -1.684e-5, -9.205e-6, 7.640e-6
0.175, -1.686e-5, -9.216e-6, 7.642e-6
0.174, -1.687e-5, -9.229e-6, 7.644e-6
0.173, -1.689e-5, -9.236e-6, 7.652e-6
0.172, -1.690e-5, -9.248e-6, 7.657e-6
0.171, -1.692e-5, -9.260e-6, 7.657e-6
0.170, -1.693e-5, -9.265e-6, 7.669e-6
0.169, -1.695e-5, -9.275e-6, 7.673e-6
0.168, -1.696e-5, -9.290e-6, 7.671e-6
0.167, -1.697e-5, -9.296e-6, 7.677e-6
0.166, -1.699e-5, -9.302e-6, 7.683e-6
0.165, -1.701e-5, -9.319e-6, 7.686e-6
0.164, -1.701e-5, -9.320e-6, 7.692e-6
0.163, -1.702e-5, -9.331e-6, 7.690e-6
0.162, -1.704e-5, -9.346e-6, 7.695e-6
0.161, -1.706e-5, -9.350e-6, 7.705e-6
0.160, -1.706e-5, -9.358e-6, 7.703e-6
0.159, -1.708e-5, -9.370e-6, 7.707e-6
0.158, -1.709e-5, -9.377e-6, 7.715e-6
0.157, -1.709e-5, -9.386e-6, 7.702e-6
0.156, -1.711e-5, -9.394e-6, 7.713e-6
0.155, -1.712e-5, -9.399e-6, 7.716e-6
0.154, -1.712e-5, -9.407e-6, 7.717e-6
0.153, -1.714e-5, -9.421e-6, 7.722e-6
0.152, -1.716e-5, -9.425e-6, 7.730e-6
0.151, -1.718e-5, -9.442e-6, 7.733e-6
0.150, -1.719e-5, -9.450e-6, 7.741e-6
0.149, -1.721e-5, -9.458e-6, 7.749e-6
0.148, -1.721e-5, -9.467e-6, 7.746e-6
0.147, -1.723e-5, -9.480e-6, 7.749e-6
0.146, -1.725e-5, -9.486e-6, 7.764e-6
0.145, -1.725e-5, -9.497e-6, 7.757e-6
0.144, -1.727e-5, -9.504e-6, 7.766e-6
0.143, -1.728e-5, -9.512e-6, 7.772e-6
0.142, -1.729e-5, -9.523e-6, 7.770e-6
0.141, -1.731e-5, -9.530e-6, 7.775e-6
0.140, -1.733e-5, -9.539e-6, 7.788e-6
0.139, -1.733e-5, -9.546e-6, 7.782e-6
0.138, -1.734e-5, -9.553e-6, 7.786e-6
0.137, -1.735e-5, -9.561e-6, 7.791e-6
0.136, -1.736e-5, -9.570e-6, 7.792e-6
0.135, -1.737e-5, -9.578e-6, 7.792e-6
0.134, -1.738e-5, -9.586e-6, 7.795e-6
0.133, -1.740e-5, -9.592e-6, 7.804e-6
0.132, -1.741e-5, -9.603e-6, 7.805e-6
0.131, -1.742e-5, -9.610e-6, 7.806e-6
0.130, -1.743e-5, -9.620e-6, 7.812e-6
0.129, -1.744e-5, -9.627e-6, 7.813e-6
0.128, -1.745e-5, -9.631e-6, 7.819e-6
0.127, -1.746e-5, -9.641e-6, 7.823e-6
0.126, -1.747e-5, -9.649e-6, 7.819e-6
0.125, -1.748e-5, -9.657e-6, 7.826e-6
0.124, -1.750e-5, -9.663e-6, 7.837e-6
0.123, -1.750e-5, -9.674e-6, 7.831e-6
0.122, -1.752e-5, -9.680e-6, 7.837e-6
0.121, -1.753e-5, -9.685e-6, 7.847e-6
0.120, -1.753e-5, -9.696e-6, 7.836e-6
0.119, -1.755e-5, -9.703e-6, 7.849e-6
0.118, -1.757e-5, -9.707e-6, 7.860e-6
0.117, -1.757e-5, -9.719e-6, 7.851e-6
0.116, -1.759e-5, -9.725e-6, 7.862e-6
0.115, -1.759e-5, -9.730e-6, 7.863e-6
0.114, -1.760e-5, -9.740e-6, 7.862e-6
0.113, -1.761e-5, -9.745e-6, 7.868e-6
0.112, -1.762e-5, -9.751e-6, 7.872e-6
0.111, -1.763e-5, -9.759e-6, 7.869e-6
0.110, -1.764e-5, -9.766e-6, 7.872e-6
0.109, -1.765e-5, -9.769e-6, 7.881e-6
0.108, -1.766e-5, -9.779e-6, 7.883e-6
0.107, -1.767e-5, -9.786e-6, 7.880e-6
0.106, -1.768e-5, -9.788e-6, 7.889e-6
0.105, -1.769e-5, -9.797e-6, 7.889e-6
0.104, -1.770e-5, -9.806e-6, 7.896e-6
0.103, -1.771e-5, -9.809e-6, 7.896e-6
0.102, -1.771e-5, -9.818e-6, 7.896e-6
0.101, -1.773e-5, -9.824e-6, 7.901e-6
0.100, -1.774e-5, -9.829e-6, 7.907e-6
0.099, -1.774e-5, -9.836e-6, 7.904e-6
0.098, -1.776e-5, -9.843e-6, 7.915e-6
0.097, -1.776e-5, -9.847e-6, 7.914e-6
0.096, -1.776e-5, -9.852e-6, 7.912e-6
0.095, -1.778e-5, -9.859e-6, 7.921e-6
0.094, -1.778e-5, -9.864e-6, 7.918e-6
0.093, -1.779e-5, -9.869e-6, 7.922e-6
0.092, -1.781e-5, -9.876e-6, 7.930e-6
0.091, -1.780e-5, -9.881e-6, 7.922e-6
0.090, -1.781e-5, -9.885e-6, 7.925e-6
0.089, -1.782e-5, -9.889e-6, 7.933e-6
0.088, -1.783e-5, -9.894e-6, 7.931e-6
0.087, -1.783e-5, -9.898e-6, 7.929e-6
0.086, -1.783e-5, -9.903e-6, 7.930e-6
0.085, -1.785e-5, -9.909e-6, 7.939e-6
0.084, -1.785e-5, -9.912e-6, 7.936e-6
0.083, -1.785e-5, -9.916e-6, 7.938e-6
0.082, -1.786e-5, -9.920e-6, 7.944e-6
0.081, -1.787e-5, -9.924e-6, 7.942e-6
0.080, -1.787e-5, -9.929e-6, 7.940e-6
0.079, -1.788e-5, -9.931e-6, 7.950e-6
0.078, -1.787e-5, -9.936e-6, 7.936e-6
0.077, -1.788e-5, -9.938e-6, 7.941e-6
0.076, -1.790e-5, -9.942e-6, 7.953e-6
0.075, -1.789e-5, -9.946e-6, 7.940e-6
0.074, -1.790e-5, -9.949e-6, 7.948e-6
0.073, -1.791e-5, -9.952e-6, 7.954e-6
0.072, -1.790e-5, -9.955e-6, 7.948e-6
0.071, -1.790e-5, -9.958e-6, 7.946e-6
0.070, -1.791e-5, -9.960e-6, 7.953e-6
0.069, -1.792e-5, -9.963e-6, 7.952e-6
0.068, -1.792e-5, -9.966e-6, 7.953e-6
0.067, -1.793e-5, -9.968e-6, 7.959e-6
0.066, -1.793e-5, -9.971e-6, 7.959e-6
0.065, -1.792e-5, -9.974e-6, 7.949e-6
0.064, -1.794e-5, -9.976e-6, 7.960e-6
0.063, -1.793e-5, -9.978e-6, 7.957e-6
0.062, -1.793e-5, -9.980e-6, 7.950e-6
0.061, -1.794e-5, -9.981e-6, 7.959e-6
0.060, -1.794e-5, -9.982e-6, 7.953e-6
0.059, -1.793e-5, -9.984e-6, 7.947e-6
0.058, -1.794e-5, -9.985e-6, 7.959e-6
0.057, -1.794e-5, -9.986e-6, 7.954e-6
0.056, -1.793e-5, -9.988e-6, 7.947e-6
0.055, -1.795e-5, -9.989e-6, 7.958e-6
0.054, -1.793e-5, -9.990e-6, 7.938e-6
0.053, -1.793e-5, -9.991e-6, 7.938e-6
0.052, -1.794e-5, -9.991e-6, 7.951e-6
0.051, -1.793e-5, -9.992e-6, 7.943e-6
0.050, -1.793e-5, -9.993e-6, 7.942e-6
0.049, -1.794e-5, -9.993e-6, 7.947e-6
0.048, -1.793e-5, -9.994e-6, 7.938e-6
0.047, -1.794e-5, -9.994e-6, 7.944e-6
0.046, -1.794e-5, -9.994e-6, 7.945e-6
0.045, -1.793e-5, -9.994e-6, 7.937e-6
0.044, -1.793e-5, -9.994e-6, 7.940e-6
0.043, -1.793e-5, -9.994e-6, 7.939e-6
0.042, -1.793e-5, -9.994e-6, 7.936e-6
0.041, -1.793e-5, -9.994e-6, 7.939e-6
0.040, -1.793e-5, -9.994e-6, 7.936e-6
0.039, -1.793e-5, -9.994e-6, 7.933e-6
0.038, -1.792e-5, -9.994e-6, 7.930e-6
0.037, -1.792e-5, -9.994e-6, 7.929e-6
0.036, -1.792e-5, -9.994e-6, 7.928e-6
0.035, -1.791e-5, -9.994e-6, 7.919e-6
0.034, -1.792e-5, -9.994e-6, 7.924e-6
0.033, -1.791e-5, -9.994e-6, 7.918e-6
0.032, -1.791e-5, -9.994e-6, 7.916e-6
0.031, -1.791e-5, -9.994e-6, 7.916e-6
0.030, -1.790e-5, -9.994e-6, 7.910e-6
0.029, -1.790e-5, -9.994e-6, 7.906e-6
0.028, -1.790e-5, -9.994e-6, 7.909e-6
0.027, -1.790e-5, -9.994e-6, 7.903e-6
0.026, -1.789e-5, -9.994e-6, 7.898e-6
0.025, -1.789e-5, -9.994e-6, 7.900e-6
0.024, -1.789e-5, -9.994e-6, 7.898e-6
0.023, -1.788e-5, -9.994e-6, 7.888e-6
0.022, -1.788e-5, -9.994e-6, 7.889e-6
0.021, -1.788e-5, -9.994e-6, 7.890e-6
0.020, -1.788e-5, -9.994e-6, 7.882e-6
0.019, -1.787e-5, -9.994e-6, 7.878e-6
0.018, -1.788e-5, -9.994e-6, 7.883e-6
0.017, -1.787e-5, -9.994e-6, 7.871e-6
0.016, -1.787e-5, -9.994e-6, 7.874e-6
0.015, -1.787e-5, -9.994e-6, 7.872e-6
0.014, -1.785e-5, -9.994e-6, 7.858e-6
0.013, -1.786e-5, -9.994e-6, 7.866e-6
0.012, -1.786e-5, -9.994e-6, 7.867e-6
0.011, -1.784e-5, -9.994e-6, 7.847e-6
0.010, -1.785e-5, -9.994e-6, 7.852e-6
0.009, -1.785e-5, -9.994e-6, 7.852e-6
0.008, -1.783e-5, -9.994e-6, 7.837e-6
0.007, -1.783e-5, -9.994e-6, 7.840e-6
0.006, -1.783e-5, -9.994e-6, 7.839e-6
0.005, -1.782e-5, -9.994e-6, 7.824e-6
0.004, -1.783e-5, -9.994e-6, 7.832e-6
0.003, -1.782e-5, -9.994e-6, 7.828e-6
0.002, -1.781e-5, -9.994e-6, 7.817e-6
0.001, -1.781e-5, -9.994e-6, 7.818e-6
0.000, -1.781e-5, -9.994e-6, 7.816e-6
-0.001, -1.780e-5, -9.994e-6, 7.803e-6
-0.002, -1.780e-5, -9.994e-6, 7.801e-6
-0.003, -1.779e-5, -9.994e-6, 7.799e-6
-0.004, -1.778e-5, -9.994e-6, 7.791e-6
-0.005, -1.778e-5, -9.994e-6, 7.789e-6
-0.006, -1.778e-5, -9.994e-6, 7.789e-6
-0.007, -1.777e-5, -9.994e-6, 7.779e-6
-0.008, -1.777e-5, -9.994e-6, 7.775e-6
-0.009, -1.777e-5, -9.994e-6, 7.774e-6
-0.010, -1.776e-5, -9.994e-6, 7.764e-6
-0.011, -1.775e-5, -9.994e-6, 7.761e-6
-0.012, -1.775e-5, -9.994e-6, 7.759e-6
-0.013, -1.775e-5, -9.994e-6, 7.754e-6
-0.014, -1.774e-5, -9.994e-6, 7.750e-6
-0.015, -1.774e-5, -9.994e-6, 7.743e-6
-0.016, -1.773e-5, -9.994e-6, 7.735e-6
-0.017, -1.773e-5, -9.994e-6, 7.731e-6
-0.018, -1.772e-5, -9.994e-6, 7.726e-6
-0.019, -1.772e-5, -9.994e-6, 7.722e-6
-0.020, -1.771e-5, -9.994e-6, 7.720e-6
-0.021, -1.771e-5, -9.994e-6, 7.711e-6
-0.022, -1.770e-5, -9.994e-6, 7.706e-6
-0.023, -1.769e-5, -9.994e-6, 7.699e-6
-0.024, -1.769e-5, -9.994e-6, 7.694e-6
-0.025, -1.768e-5, -9.994e-6, 7.690e-6
-0.026, -1.768e-5, -9.994e-6, 7.681e-6
-0.027, -1.768e-5, -9.994e-6, 7.685e-6
-0.028, -1.767e-5, -9.994e-6, 7.675e-6
-0.029, -1.766e-5, -9.994e-6, 7.665e-6
-0.030, -1.766e-5, -9.994e-6, 7.670e-6
-0.031, -1.765e-5, -9.994e-6, 7.658e-6
-0.032, -1.764e-5, -9.994e-6, 7.649e-6
-0.033, -1.765e-5, -9.994e-6, 7.656e-6
-0.034, -1.763e-5, -9.994e-6, 7.633e-6
-0.035, -1.763e-5, -9.994e-6, 7.636e-6
-0.036, -1.763e-5, -9.994e-6, 7.637e-6
-0.037, -1.761e-5, -9.994e-6, 7.620e-6
-0.038, -1.761e-5, -9.994e-6, 7.613e-6
-0.039, -1.762e-5, -9.994e-6, 7.623e-6
-0.040, -1.760e-5, -9.994e-6, 7.607e-6
-0.041, -1.759e-5, -9.994e-6, 7.596e-6
-0.042, -1.760e-5, -9.994e-6, 7.602e-6
-0.043, -1.758e-5, -9.994e-6, 7.586e-6
-0.044, -1.758e-5, -9.994e-6, 7.581e-6
-0.045, -1.757e-5, -9.994e-6, 7.579e-6
-0.046, -1.757e-5, -9.994e-6, 7.574e-6
-0.047, -1.756e-5, -9.994e-6, 7.561e-6
-0.048, -1.755e-5, -9.994e-6, 7.555e-6
-0.049, -1.754e-5, -9.994e-6, 7.550e-6
-0.050, -1.753e-5, -9.994e-6, 7.538e-6
-0.051, -1.754e-5, -9.994e-6, 7.549e-6
-0.052, -1.753e-5, -9.994e-6, 7.536e-6
-0.053, -1.752e-5, -9.994e-6, 7.523e-6
-0.054, -1.752e-5, -9.994e-6, 7.528e-6
-0.055, -1.751e-5, -9.994e-6, 7.516e-6
-0.056, -1.750e-5, -9.994e-6, 7.507e-6
-0.057, -1.751e-5, -9.994e-6, 7.512e-6
-0.058, -1.749e-5, -9.994e-6, 7.497e-6
-0.059, -1.749e-5, -9.994e-6, 7.496e-6
-0.060, -1.748e-5, -9.994e-6, 7.490e-6
-0.061, -1.748e-5, -9.994e-6, 7.485e-6
-0.062, -1.747e-5, -9.994e-6, 7.478e-6
-0.063, -1.747e-5, -9.994e-6, 7.474e-6
-0.064, -1.746e-5, -9.994e-6, 7.465e-6
-0.065, -1.745e-5, -9.994e-6, 7.458e-6
-0.066, -1.744e-5, -9.994e-6, 7.451e-6
-0.067, -1.744e-5, -9.994e-6, 7.450e-6
-0.068, -1.743e-5, -9.994e-6, 7.440e-6
-0.069, -1.742e-5, -9.994e-6, 7.428e-6
-0.070, -1.742e-5, -9.994e-6, 7.429e-6
-0.071, -1.742e-5, -9.994e-6, 7.423e-6
-0.072, -1.740e-5, -9.994e-6, 7.410e-6
-0.073, -1.741e-5, -9.994e-6, 7.415e-6
-0.074, -1.739e-5, -9.994e-6, 7.398e-6
-0.075, -1.739e-5, -9.994e-6, 7.394e-6
-0.076, -1.739e-5, -9.994e-6, 7.397e-6
-0.077, -1.738e-5, -9.994e-6, 7.385e-6
-0.078, -1.737e-5, -9.994e-6, 7.380e-6
-0.079, -1.737e-5, -9.994e-6, 7.376e-6
-0.080, -1.736e-5, -9.994e-6, 7.366e-6
-0.081, -1.736e-5, -9.994e-6, 7.362e-6
-0.082, -1.735e-5, -9.994e-6, 7.357e-6
-0.083, -1.734e-5, -9.994e-6, 7.346e-6
-0.084, -1.734e-5, -9.994e-6, 7.346e-6
-0.085, -1.733e-5, -9.994e-6, 7.336e-6
-0.086, -1.732e-5, -9.994e-6, 7.326e-6
-0.087, -1.732e-5, -9.994e-6, 7.327e-6
-0.088, -1.732e-5, -9.994e-6, 7.323e-6
-0.089, -1.730e-5, -9.994e-6, 7.305e-6
-0.090, -1.730e-5, -9.994e-6, 7.308e-6
-0.091, -1.730e-5, -9.994e-6, 7.301e-6
-0.092, -1.728e-5, -9.994e-6, 7.286e-6
-0.093, -1.728e-5, -9.994e-6, 7.286e-6
-0.094, -1.728e-5, -9.994e-6, 7.285e-6
-0.095, -1.726e-5, -9.994e-6, 7.269e-6
-0.096, -1.726e-5, -9.994e-6, 7.271e-6
-0.097, -1.726e-5, -9.994e-6, 7.263e-6
-0.098, -1.724e-5, -9.994e-6, 7.250e-6
-0.099, -1.724e-5, -9.994e-6, 7.248e-6
-0.100, -1.724e-5, -9.994e-6, 7.246e-6
-0.101, -1.722e-5, -9.994e-6, 7.228e-6
-0.102, -1.722e-5, -9.994e-6, 7.229e-6
-0.103, -1.722e-5, -9.994e-6, 7.226e-6
-0.104, -1.721e-5, -9.994e-6, 7.213e-6
-0.105, -1.721e-5, -9.994e-6, 7.213e-6
-0.106, -1.720e-5, -9.994e-6, 7.207e-6
-0.107, -1.718e-5, -9.994e-6, 7.190e-6
-0.108, -1.719e-5, -9.994e-6, 7.195e-6
-0.109, -1.718e-5, -9.994e-6, 7.191e-6
-0.110, -1.717e-5, -9.994e-6, 7.178e-6
-0.111, -1.717e-5, -9.994e-6, 7.171e-6
-0.112, -1.717e-5, -9.994e-6, 7.173e-6
-0.113, -1.716e-5, -9.994e-6, 7.164e-6
-0.114, -1.715e-5, -9.994e-6, 7.153e-6
-0.115, -1.715e-5, -9.994e-6, 7.154e-6
-0.116, -1.714e-5, -9.994e-6, 7.144e-6
-0.117, -1.712e-5, -9.994e-6, 7.128e-6
-0.118, -1.713e-5, -9.994e-6, 7.132e-6
-0.119, -1.712e-5, -9.994e-6, 7.127e-6
-0.120, -1.710e-5, -9.994e-6, 7.109e-6
-0.121, -1.711e-5, -9.994e-6, 7.114e-6
-0.122, -1.710e-5, -9.994e-6, 7.101e-6
-0.123, -1.709e-5, -9.994e-6, 7.092e-6
-0.124, -1.709e-5, -9.994e-6, 7.096e-6
-0.125, -1.708e-5, -9.994e-6, 7.081e-6
-0.126, -1.707e-5, -9.994e-6, 7.079e-6
-0.127, -1.707e-5, -9.994e-6, 7.079e-6
-0.128, -1.706e-5, -9.994e-6, 7.064e-6
-0.129, -1.705e-5, -9.994e-6, 7.055e-6
-0.130, -1.705e-5, -9.994e-6, 7.054e-6
-0.131, -1.704e-5, -9.994e-6, 7.046e-6
-0.132, -1.703e-5, -9.994e-6, 7.039e-6
-0.133, -1.703e-5, -9.994e-6, 7.031e-6
-0.134, -1.702e-5, -9.994e-6, 7.027e-6
-0.135, -1.701e-5, -9.994e-6, 7.016e-6
-0.136, -1.701e-5, -9.994e-6, 7.014e-6
-0.137, -1.700e-5, -9.994e-6, 7.008e-6
-0.138, -1.699e-5, -9.994e-6, 6.998e-6
-0.139, -1.699e-5, -9.994e-6, 6.998e-6
-0.140, -1.698e-5, -9.994e-6, 6.988e-6
-0.141, -1.698e-5, -9.994e-6, 6.982e-6
-0.142, -1.697e-5, -9.994e-6, 6.979e-6
-0.143, -1.696e-5, -9.994e-6, 6.969e-6
-0.144, -1.695e-5, -9.994e-6, 6.956e-6
-0.145, -1.695e-5, -9.994e-6, 6.956e-6
-0.146, -1.694e-5, -9.994e-6, 6.942e-6
-0.147, -1.694e-5, -9.994e-6, 6.945e-6
-0.148, -1.693e-5, -9.994e-6, 6.939e-6
-0.149, -1.692e-5, -9.994e-6, 6.926e-6
-0.150, -1.692e-5, -9.994e-6, 6.922e-6
-0.151, -1.691e-5, -9.994e-6, 6.912e-6
-0.152, -1.689e-5, -9.994e-6, 6.899e-6
-0.153, -1.689e-5, -9.994e-6, 6.897e-6
-0.154, -1.689e-5, -9.994e-6, 6.898e-6
-0.155, -1.688e-5, -9.994e-6, 6.882e-6
-0.156, -1.687e-5, -9.994e-6, 6.878e-6
-0.157, -1.687e-5, -9.994e-6, 6.877e-6
-0.158, -1.686e-5, -9.994e-6, 6.865e-6
-0.159, -1.686e-5, -9.994e-6, 6.861e-6
-0.160, -1.685e-5, -9.994e-6, 6.855e-6
-0.161, -1.685e-5, -9.994e-6, 6.851e-6
-0.162, -1.684e-5, -9.994e-6, 6.841e-6
-0.163, -1.683e-5, -9.994e-6, 6.837e-6
-0.164, -1.683e-5, -9.994e-6, 6.832e-6
-0.165, -1.681e-5, -9.994e-6, 6.817e-6
-0.166, -1.681e-5, -9.994e-6, 6.815e-6
-0.167, -1.681e-5, -9.994e-6, 6.814e-6
-0.168, -1.679e-5, -9.994e-6, 6.797e-6
-0.169, -1.679e-5, -9.994e-6, 6.792e-6
-0.170, -1.678e-5, -9.994e-6, 6.790e-6
-0.171, -1.677e-5, -9.994e-6, 6.779e-6
-0.172, -1.677e-5, -9.994e-6, 6.775e-6
-0.173, -1.677e-5, -9.994e-6, 6.773e-6
-0.174, -1.675e-5, -9.994e-6, 6.759e-6
-0.175, -1.674e-5, -9.994e-6, 6.750e-6
-0.176, -1.675e-5, -9.994e-6, 6.752e-6
-0.177, -1.673e-5, -9.994e-6, 6.733e-6
-0.178, -1.673e-5, -9.994e-6, 6.731e-6
-0.179, -1.673e-5, -9.994e-6, 6.738e-6
-0.180, -1.671e-5, -9.994e-6, 6.716e-6
-0.181, -1.670e-5, -9.994e-6, 6.710e-6
-0.182, -1.670e-5, -9.994e-6, 6.709e-6
-0.183, -1.669e-5, -9.994e-6, 6.695e-6
-0.184, -1.669e-5, -9.994e-6, 6.695e-6
-0.185, -1.668e-5, -9.994e-6, 6.690e-6
-0.186, -1.667e-5, -9.994e-6, 6.680e-6
-0.187, -1.666e-5, -9.994e-6, 6.668e-6
-0.188, -1.666e-5, -9.994e-6, 6.668e-6
-0.189, -1.665e-5, -9.994e-6, 6.653e-6
-0.190, -1.665e-5, -9.994e-6, 6.656e-6
-0.191, -1.664e-5, -9.994e-6, 6.649e-6
-0.192, -1.663e-5, -9.994e-6, 6.635e-6
-0.193, -1.663e-5, -9.994e-6, 6.635e-6
-0.194, -1.662e-5, -9.994e-6, 6.629e-6
-0.195, -1.661e-5, -9.994e-6, 6.615e-6
-0.196, -1.661e-5, -9.994e-6, 6.617e-6
-0.197, -1.660e-5, -9.994e-6, 6.606e-6
-0.198, -1.658e-5, -9.994e-6, 6.588e-6
-0.199, -1.659e-5, -9.994e-6, 6.592e-6
-0.200, -1.658e-5, -9.994e-6, 6.590e-6
-0.201, -1.657e-5, -9.994e-6, 6.575e-6
-0.202, -1.657e-5, -9.994e-6, 6.572e-6
-0.203, -1.655e-5, -9.994e-6, 6.561e-6
-0.204, -1.655e-5, -9.994e-6, 6.553e-6
-0.205, -1.654e-5, -9.994e-6, 6.550e-6
-0.206, -1.654e-5, -9.994e-6, 6.543e-6
-0.207, -1.653e-5, -9.994e-6, 6.539e-6
-0.208, -1.653e-5, -9.994e-6, 6.532e-6
-0.209, -1.652e-5, -9.994e-6, 6.526e-6
-0.210, -1.651e-5, -9.994e-6, 6.515e-6
-0.211, -1.651e-5, -9.994e-6, 6.516e-6
-0.212, -1.651e-5, -9.994e-6, 6.515e-6
-0.213, -1.649e-5, -9.994e-6, 6.496e-6
-0.214, -1.649e-5, -9.994e-6, 6.491e-6
-0.215, -1.649e-5, -9.994e-6, 6.498e-6
-0.216, -1.647e-5, -9.994e-6, 6.477e-6
-0.217, -1.646e-5, -9.994e-6, 6.465e-6
-0.218, -1.645e-5, -9.994e-6, 6.458e-6
-0.219, -1.645e-5, -9.994e-6, 6.455e-6
-0.220, -1.644e-5, -9.994e-6, 6.450e-6
-0.221, -1.644e-5, -9.994e-6, 6.446e-6
-0.222, -1.643e-5, -9.994e-6, 6.434e-6
-0.223, -1.641e-5, -9.994e-6, 6.419e-6
-0.224, -1.641e-5, -9.994e-6, 6.420e-6
-0.225, -1.641e-5, -9.994e-6, 6.413e-6
-0.226, -1.639e-5, -9.994e-6, 6.398e-6
-0.227, -1.640e-5, -9.994e-6, 6.402e-6
-0.228, -1.639e-5, -9.994e-6, 6.393e-6
-0.229, -1.637e-5, -9.994e-6, 6.376e-6
-0.230, -1.637e-5, -9.994e-6, 6.377e-6
-0.231, -1.636e-5, -9.994e-6, 6.368e-6
-0.232, -1.635e-5, -9.994e-6, 6.354e-6
-0.233, -1.636e-5, -9.994e-6, 6.362e-6
-0.234, -1.634e-5, -9.994e-6, 6.347e-6
-0.235, -1.633e-5, -9.994e-6, 6.333e-6
-0.236, -1.633e-5, -9.994e-6, 6.340e-6
-0.237, -1.632e-5, -9.994e-6, 6.329e-6
-0.238, -1.632e-5, -9.994e-6, 6.322e-6
-0.239, -1.632e-5, -9.994e-6, 6.323e-6
-0.240, -1.630e-5, -9.994e-6, 6.305e-6
-0.241, -1.630e-5, -9.994e-6, 6.301e-6
-0.242, -1.629e-5, -9.994e-6, 6.294e-6
-0.243, -1.628e-5, -9.994e-6, 6.289e-6
-0.244, -1.627e-5, -9.994e-6, 6.280e-6
-0.245, -1.627e-5, -9.994e-6, 6.274e-6
-0.246, -1.627e-5, -9.994e-6, 6.271e-6
-0.247, -1.626e-5, -9.994e-6, 6.263e-6
-0.248, -1.625e-5, -9.994e-6, 6.253e-6
-0.249, -1.624e-5, -9.994e-6, 6.243e-6
-0.250, -1.623e-5, -9.994e-6, 6.239e-6
-0.251, -1.623e-5, -9.994e-6, 6.238e-6
-0.252, -1.621e-5, -9.994e-6, 6.218e-6
-0.253, -1.620e-5, -9.994e-6, 6.206e-6
-0.254, -1.621e-5, -9.994e-6, 6.214e-6
-0.255, -1.619e-5, -9.994e-6, 6.195e-6
-0.256, -1.619e-5, -9.994e-6, 6.200e-6
-0.257, -1.618e-5, -9.994e-6, 6.189e-6
-0.258, -1.617e-5, -9.994e-6, 6.175e-6
-0.259, -1.617e-5, -9.994e-6, 6.172e-6
-0.260, -1.616e-5, -9.994e-6, 6.169e-6
-0.261, -1.615e-5, -9.994e-6, 6.156e-6
-0.262, -1.615e-5, -9.994e-6, 6.151e-6
-0.263, -1.614e-5, -9.994e-6, 6.149e-6
-0.264, -1.614e-5, -9.994e-6, 6.142e-6
-0.265, -1.612e-5, -9.994e-6, 6.124e-6
-0.266, -1.612e-5, -9.994e-6, 6.128e-6
-0.267, -1.611e-5, -9.994e-6, 6.118e-6
-0.268, -1.611e-5, -9.994e-6, 6.113e-6
-0.269, -1.610e-5, -9.994e-6, 6.102e-6
-0.270, -1.609e-5, -9.994e-6, 6.100e-6
-0.271, -1.608e-5, -9.994e-6, 6.086e-6
-0.272, -1.607e-5, -9.994e-6, 6.076e-6
-0.273, -1.607e-5, -9.994e-6, 6.072e-6
-0.274, -1.605e-5, -9.994e-6, 6.060e-6
-0.275, -1.606e-5, -9.994e-6, 6.063e-6
-0.276, -1.605e-5, -9.994e-6, 6.054e-6
-0.277, -1.603e-5, -9.994e-6, 6.037e-6
-0.278, -1.603e-5, -9.994e-6, 6.033e-6
-0.279, -1.603e-5, -9.994e-6, 6.034e-6
-0.280, -1.601e-5, -9.994e-6, 6.016e-6
-0.281, -1.601e-5, -9.994e-6, 6.015e-6
-0.282, -1.601e-5, -9.994e-6, 6.016e-6
-0.283, -1.599e-5, -9.994e-6, 5.996e-6
-0.284, -1.598e-5, -9.994e-6, 5.985e-6
-0.285, -1.598e-5, -9.994e-6, 5.981e-6
-0.286, -1.597e-5, -9.994e-6, 5.975e-6
-0.287, -1.596e-5, -9.994e-6, 5.963e-6
-0.288, -1.596e-5, -9.994e-6, 5.965e-6
-0.289, -1.594e-5, -9.994e-6, 5.942e-6
-0.290, -1.594e-5, -9.994e-6, 5.942e-6
-0.291, -1.594e-5, -9.994e-6, 5.941e-6
-0.292, -1.592e-5, -9.994e-6, 5.929e-6
-0.293, -1.591e-5, -9.994e-6, 5.919e-6
-0.294, -1.592e-5, -9.994e-6, 5.922e-6
-0.295, -1.590e-5, -9.994e-6, 5.908e-6
-0.296, -1.590e-5, -9.994e-6, 5.907e-6
-0.297, -1.589e-5, -9.994e-6, 5.897e-6
-0.298, -1.588e-5, -9.994e-6, 5.886e-6
-0.299, -1.588e-5, -9.994e-6, 5.884e-6
-0.300, -1.586e-5, -9.994e-6, 5.870e-6
-0.301, -1.586e-5, -9.994e-6, 5.864e-6
-0.302, -1.585e-5, -9.994e-6, 5.859e-6
-0.303, -1.585e-5, -9.994e-6, 5.851e-6
-0.304, -1.584e-5, -9.994e-6, 5.847e-6
-0.305, -1.583e-5, -9.994e-6, 5.835e-6
-0.306, -1.582e-5, -9.994e-6, 5.823e-6
-0.307, -1.582e-5, -9.994e-6, 5.822e-6
-0.308, -1.581e-5, -9.994e-6, 5.813e-6
-0.309, -1.579e-5, -9.994e-6, 5.799e-6
-0.310, -1.579e-5, -9.994e-6, 5.792e-6
-0.311, -1.579e-5, -9.994e-6, 5.792e-6
-0.312, -1.576e-5, -9.994e-6, 5.765e-6
-0.313, -1.577e-5, -9.994e-6, 5.775e-6
-0.314, -1.576e-5, -9.994e-6, 5.762e-6
-0.315, -1.575e-5, -9.994e-6, 5.755e-6
-0.316, -1.574e-5, -9.994e-6, 5.749e-6
-0.317, -1.573e-5, -9.994e-6, 5.736e-6
-0.318, -1.573e-5, -9.994e-6, 5.740e-6
-0.319, -1.571e-5, -9.994e-6, 5.720e-6
-0.320, -1.570e-5, -9.994e-6, 5.707e-6
-0.321, -1.570e-5, -9.994e-6, 5.702e-6
-0.322, -1.570e-5, -9.994e-6, 5.701e-6
-0.323, -1.568e-5, -9.994e-6, 5.681e-6
-0.324, -1.567e-5, -9.994e-6, 5.676e-6
-0.325, -1.567e-5, -9.994e-6, 5.676e-6
-0.326, -1.565e-5, -9.994e-6, 5.661e-6
-0.327, -1.565e-5, -9.994e-6, 5.658e-6
-0.328, -1.564e-5, -9.994e-6, 5.648e-6
-0.329, -1.563e-5, -9.994e-6, 5.635e-6
-0.330, -1.562e-5, -9.994e-6, 5.628e-6
-0.331, -1.561e-5, -9.994e-6, 5.620e-6
-0.332, -1.561e-5, -9.994e-6, 5.611e-6
-0.333, -1.561e-5, -9.994e-6, 5.617e-6
-0.334, -1.560e-5, -9.994e-6, 5.602e-6
-0.335, -1.558e-5, -9.994e-6, 5.589e-6
-0.336, -1.557e-5, -9.994e-6, 5.581e-6
-0.337, -1.557e-5, -9.994e-6, 5.571e-6
-0.338, -1.555e-5, -9.994e-6, 5.555e-6
-0.339, -1.556e-5, -9.994e-6, 5.562e-6
-0.340, -1.554e-5, -9.994e-6, 5.543e-6
-0.341, -1.552e-5, -9.994e-6, 5.529e-6
-0.342, -1.553e-5, -9.994e-6, 5.531e-6
-0.343, -1.550e-5, -9.994e-6, 5.504e-6
-0.344, -1.550e-5, -9.994e-6, 5.510e-6
-0.345, -1.550e-5, -9.994e-6, 5.503e-6
-0.346, -1.549e-5, -9.994e-6, 5.496e-6
-0.347, -1.547e-5, -9.994e-6, 5.479e-6
-0.348, -1.547e-5, -9.994e-6, 5.479e-6
-0.349, -1.546e-5, -9.994e-6, 5.463e-6
-0.350, -1.545e-5, -9.994e-6, 5.454e-6
-0.351, -1.544e-5, -9.994e-6, 5.449e-6
-0.352, -1.542e-5, -9.994e-6, 5.430e-6
-0.353, -1.542e-5, -9.994e-6, 5.429e-6
-0.354, -1.541e-5, -9.994e-6, 5.420e-6
-0.355, -1.539e-5, -9.994e-6, 5.394e-6
-0.356, -1.539e-5, -9.994e-6, 5.398e-6
-0.357, -1.538e-5, -9.994e-6, 5.384e-6
-0.358, -1.537e-5, -9.994e-6, 5.380e-6
-0.359, -1.536e-5, -9.994e-6, 5.369e-6
-0.360, -1.535e-5, -9.994e-6, 5.351e-6
-0.361, -1.534e-5, -9.994e-6, 5.349e-6
-0.362, -1.533e-5, -9.994e-6, 5.337e-6
-0.363, -1.532e-5, -9.994e-6, 5.329e-6
-0.364, -1.532e-5, -9.994e-6, 5.321e-6
-0.365, -1.530e-5, -9.994e-6, 5.308e-6
-0.366, -1.530e-5, -9.994e-6, 5.308e-6
-0.367, -1.528e-5, -9.994e-6, 5.290e-6
-0.368, -1.527e-5, -9.994e-6, 5.280e-6
-0.369, -1.526e-5, -9.994e-6, 5.267e-6
-0.370, -1.525e-5, -9.994e-6, 5.260e-6
-0.371, -1.525e-5, -9.994e-6, 5.252e-6
-0.372, -1.524e-5, -9.994e-6, 5.242e-6
-0.373, -1.522e-5, -9.994e-6, 5.229e-6
-0.374, -1.521e-5, -9.994e-6, 5.215e-6
-0.375, -1.520e-5, -9.994e-6, 5.207e-6
-0.376, -1.519e-5, -9.994e-6, 5.198e-6
-0.377, -1.518e-5, -9.994e-6, 5.188e-6
-0.378, -1.517e-5, -9.994e-6, 5.171e-6
-0.379, -1.516e-5, -9.994e-6, 5.167e-6
-0.380, -1.515e-5, -9.994e-6, 5.156e-6
-0.381, -1.514e-5, -9.994e-6, 5.142e-6
-0.382, -1.513e-5, -9.994e-6, 5.138e-6
-0.383, -1.511e-5, -9.994e-6, 5.115e-6
-0.384, -1.511e-5, -9.994e-6, 5.114e-6
-0.385, -1.510e-5, -9.994e-6, 5.105e-6
-0.386, -1.508e-5, -9.994e-6, 5.083e-6
-0.387, -1.507e-5, -9.994e-6, 5.080e-6
-0.388, -1.506e-5, -9.994e-6, 5.068e-6
-0.389, -1.504e-5, -9.994e-6, 5.042e-6
-0.390, -1.503e-5, -9.994e-6, 5.039e-6
-0.391, -1.503e-5, -9.994e-6, 5.033e-6
-0.392, -1.500e-5, -9.994e-6, 5.009e-6
-0.393, -1.499e-5, -9.994e-6, 5.000e-6
-0.394, -1.500e-5, -9.994e-6, 5.003e-6
-0.395, -1.498e-5, -9.994e-6, 4.983e-6
-0.396, -1.497e-5, -9.994e-6, 4.978e-6
-0.397, -1.495e-5, -9.994e-6, 4.959e-6
-0.398, -1.494e-5, -9.994e-6, 4.950e-6
-0.399, -1.492e-5, -9.994e-6, 4.926e-6
-0.400, -1.491e-5, -9.994e-6, 4.915e-6
