Feb. 28, 2018   11:15:22
Square Wave Voltammetry
File: c:\users\electrochemist\desktop\2018\28022018_unbuffered_9,2\4_e6_9,2_0118_ph4,07_4.txt
Data Source:  Experiment
Instrument Model:  CHI1040A
Header: 
Note: 

Init E (V) = 0.5
Final E (V) = -0.05
Incr E (V) = 0.001
Amplitude (V) = 0.1
Frequency (Hz) = 150
Quiet Time (sec) = 0
Sensitivity (A/V) = 1e-6

Difference:

Forward:

Reverse:
Ep = 0.234V
ip = 1.614e-7A
Ah = 1.750e-8VA

Potential/V, Diff(i/A), For(i/A), Rev(i/A)

0.499, -7.974e-7, -1.944e-7, 6.029e-7
0.498, -1.020e-6, -4.935e-7, 5.263e-7
0.497, -1.017e-6, -5.124e-7, 5.044e-7
0.496, -1.009e-6, -5.176e-7, 4.916e-7
0.495, -1.007e-6, -5.237e-7, 4.833e-7
0.494, -1.005e-6, -5.268e-7, 4.781e-7
0.493, -1.002e-6, -5.283e-7, 4.736e-7
0.492, -9.988e-7, -5.313e-7, 4.675e-7
0.491, -1.004e-6, -5.365e-7, 4.678e-7
0.490, -1.002e-6, -5.374e-7, 4.647e-7
0.489, -9.988e-7, -5.393e-7, 4.595e-7
0.488, -1.002e-6, -5.417e-7, 4.598e-7
0.487, -1.003e-6, -5.435e-7, 4.592e-7
0.486, -1.005e-6, -5.484e-7, 4.568e-7
0.485, -1.002e-6, -5.475e-7, 4.546e-7
0.484, -1.005e-6, -5.499e-7, 4.552e-7
0.483, -1.008e-6, -5.536e-7, 4.540e-7
0.482, -1.008e-6, -5.545e-7, 4.531e-7
0.481, -1.007e-6, -5.536e-7, 4.531e-7
0.480, -1.014e-6, -5.603e-7, 4.540e-7
0.479, -1.013e-6, -5.612e-7, 4.516e-7
0.478, -1.015e-6, -5.618e-7, 4.528e-7
0.477, -1.017e-6, -5.646e-7, 4.528e-7
0.476, -1.019e-6, -5.658e-7, 4.531e-7
0.475, -1.018e-6, -5.670e-7, 4.513e-7
0.474, -1.022e-6, -5.698e-7, 4.525e-7
0.473, -1.021e-6, -5.707e-7, 4.504e-7
0.472, -1.021e-6, -5.716e-7, 4.498e-7
0.471, -1.027e-6, -5.765e-7, 4.501e-7
0.470, -1.029e-6, -5.777e-7, 4.516e-7
0.469, -1.028e-6, -5.768e-7, 4.510e-7
0.468, -1.031e-6, -5.780e-7, 4.525e-7
0.467, -1.033e-6, -5.795e-7, 4.537e-7
0.466, -1.037e-6, -5.829e-7, 4.543e-7
0.465, -1.039e-6, -5.853e-7, 4.534e-7
0.464, -1.038e-6, -5.856e-7, 4.519e-7
0.463, -1.044e-6, -5.890e-7, 4.546e-7
0.462, -1.045e-6, -5.918e-7, 4.531e-7
0.461, -1.046e-6, -5.911e-7, 4.552e-7
0.460, -1.049e-6, -5.942e-7, 4.543e-7
0.459, -1.052e-6, -5.975e-7, 4.540e-7
0.458, -1.055e-6, -5.988e-7, 4.559e-7
0.457, -1.056e-6, -6.003e-7, 4.562e-7
0.456, -1.058e-6, -6.030e-7, 4.552e-7
0.455, -1.061e-6, -6.030e-7, 4.580e-7
0.454, -1.065e-6, -6.052e-7, 4.595e-7
0.453, -1.065e-6, -6.095e-7, 4.559e-7
0.452, -1.070e-6, -6.104e-7, 4.595e-7
0.451, -1.070e-6, -6.119e-7, 4.583e-7
0.450, -1.072e-6, -6.146e-7, 4.577e-7
0.449, -1.078e-6, -6.162e-7, 4.617e-7
0.448, -1.080e-6, -6.186e-7, 4.617e-7
0.447, -1.081e-6, -6.198e-7, 4.617e-7
0.446, -1.086e-6, -6.238e-7, 4.626e-7
0.445, -1.087e-6, -6.244e-7, 4.629e-7
0.444, -1.093e-6, -6.293e-7, 4.641e-7
0.443, -1.091e-6, -6.275e-7, 4.632e-7
0.442, -1.096e-6, -6.314e-7, 4.647e-7
0.441, -1.097e-6, -6.323e-7, 4.650e-7
0.440, -1.101e-6, -6.345e-7, 4.665e-7
0.439, -1.103e-6, -6.369e-7, 4.665e-7
0.438, -1.105e-6, -6.384e-7, 4.668e-7
0.437, -1.110e-6, -6.415e-7, 4.690e-7
0.436, -1.109e-6, -6.406e-7, 4.684e-7
0.435, -1.117e-6, -6.452e-7, 4.720e-7
0.434, -1.119e-6, -6.476e-7, 4.711e-7
0.433, -1.119e-6, -6.491e-7, 4.699e-7
0.432, -1.125e-6, -6.510e-7, 4.742e-7
0.431, -1.125e-6, -6.519e-7, 4.732e-7
0.430, -1.129e-6, -6.549e-7, 4.745e-7
0.429, -1.133e-6, -6.583e-7, 4.745e-7
0.428, -1.138e-6, -6.604e-7, 4.775e-7
0.427, -1.139e-6, -6.629e-7, 4.757e-7
0.426, -1.140e-6, -6.647e-7, 4.751e-7
0.425, -1.144e-6, -6.662e-7, 4.775e-7
0.424, -1.146e-6, -6.687e-7, 4.772e-7
0.423, -1.151e-6, -6.714e-7, 4.797e-7
0.422, -1.154e-6, -6.732e-7, 4.812e-7
0.421, -1.156e-6, -6.757e-7, 4.806e-7
0.420, -1.159e-6, -6.775e-7, 4.815e-7
0.419, -1.164e-6, -6.802e-7, 4.842e-7
0.418, -1.166e-6, -6.824e-7, 4.836e-7
0.417, -1.174e-6, -6.882e-7, 4.855e-7
0.416, -1.173e-6, -6.864e-7, 4.864e-7
0.415, -1.174e-6, -6.885e-7, 4.855e-7
0.414, -1.180e-6, -6.925e-7, 4.879e-7
0.413, -1.184e-6, -6.955e-7, 4.882e-7
0.412, -1.185e-6, -6.961e-7, 4.885e-7
0.411, -1.191e-6, -7.007e-7, 4.903e-7
0.410, -1.192e-6, -7.007e-7, 4.913e-7
0.409, -1.196e-6, -7.025e-7, 4.937e-7
0.408, -1.199e-6, -7.047e-7, 4.943e-7
0.407, -1.203e-6, -7.062e-7, 4.964e-7
0.406, -1.205e-6, -7.102e-7, 4.949e-7
0.405, -1.210e-6, -7.132e-7, 4.967e-7
0.404, -1.212e-6, -7.129e-7, 4.992e-7
0.403, -1.216e-6, -7.178e-7, 4.980e-7
0.402, -1.221e-6, -7.199e-7, 5.010e-7
0.401, -1.224e-6, -7.214e-7, 5.022e-7
0.400, -1.226e-6, -7.236e-7, 5.025e-7
0.399, -1.230e-6, -7.275e-7, 5.025e-7
0.398, -1.234e-6, -7.285e-7, 5.053e-7
0.397, -1.236e-6, -7.297e-7, 5.062e-7
0.396, -1.241e-6, -7.343e-7, 5.068e-7
0.395, -1.240e-6, -7.340e-7, 5.065e-7
0.394, -1.248e-6, -7.388e-7, 5.093e-7
0.393, -1.251e-6, -7.376e-7, 5.129e-7
0.392, -1.255e-6, -7.413e-7, 5.135e-7
0.391, -1.255e-6, -7.437e-7, 5.114e-7
0.390, -1.262e-6, -7.480e-7, 5.141e-7
0.389, -1.265e-6, -7.492e-7, 5.160e-7
0.388, -1.266e-6, -7.520e-7, 5.141e-7
0.387, -1.273e-6, -7.565e-7, 5.163e-7
0.386, -1.276e-6, -7.562e-7, 5.193e-7
0.385, -1.278e-6, -7.581e-7, 5.202e-7
0.384, -1.281e-6, -7.608e-7, 5.202e-7
0.383, -1.285e-6, -7.626e-7, 5.221e-7
0.382, -1.286e-6, -7.639e-7, 5.218e-7
0.381, -1.292e-6, -7.687e-7, 5.233e-7
0.380, -1.297e-6, -7.700e-7, 5.267e-7
0.379, -1.298e-6, -7.718e-7, 5.257e-7
0.378, -1.302e-6, -7.758e-7, 5.267e-7
0.377, -1.307e-6, -7.767e-7, 5.306e-7
0.376, -1.310e-6, -7.794e-7, 5.303e-7
0.375, -1.314e-6, -7.813e-7, 5.324e-7
0.374, -1.318e-6, -7.834e-7, 5.346e-7
0.373, -1.320e-6, -7.846e-7, 5.349e-7
0.372, -1.323e-6, -7.883e-7, 5.352e-7
0.371, -1.325e-6, -7.883e-7, 5.364e-7
0.370, -1.327e-6, -7.889e-7, 5.382e-7
0.369, -1.329e-6, -7.904e-7, 5.389e-7
0.368, -1.337e-6, -7.947e-7, 5.422e-7
0.367, -1.340e-6, -7.996e-7, 5.407e-7
0.366, -1.343e-6, -7.990e-7, 5.444e-7
0.365, -1.347e-6, -8.008e-7, 5.459e-7
0.364, -1.347e-6, -8.011e-7, 5.456e-7
0.363, -1.354e-6, -8.051e-7, 5.486e-7
0.362, -1.357e-6, -8.075e-7, 5.492e-7
0.361, -1.359e-6, -8.090e-7, 5.501e-7
0.360, -1.363e-6, -8.124e-7, 5.501e-7
0.359, -1.365e-6, -8.121e-7, 5.526e-7
0.358, -1.370e-6, -8.154e-7, 5.547e-7
0.357, -1.373e-6, -8.179e-7, 5.547e-7
0.356, -1.376e-6, -8.185e-7, 5.572e-7
0.355, -1.380e-6, -8.231e-7, 5.572e-7
0.354, -1.380e-6, -8.218e-7, 5.584e-7
0.353, -1.386e-6, -8.252e-7, 5.608e-7
0.352, -1.386e-6, -8.270e-7, 5.593e-7
0.351, -1.391e-6, -8.279e-7, 5.633e-7
0.350, -1.397e-6, -8.307e-7, 5.660e-7
0.349, -1.397e-6, -8.322e-7, 5.651e-7
0.348, -1.401e-6, -8.325e-7, 5.682e-7
0.347, -1.403e-6, -8.337e-7, 5.688e-7
0.346, -1.405e-6, -8.347e-7, 5.706e-7
0.345, -1.407e-6, -8.353e-7, 5.718e-7
0.344, -1.412e-6, -8.374e-7, 5.746e-7
0.343, -1.413e-6, -8.402e-7, 5.730e-7
0.342, -1.417e-6, -8.411e-7, 5.755e-7
0.341, -1.419e-6, -8.417e-7, 5.770e-7
0.340, -1.423e-6, -8.456e-7, 5.776e-7
0.339, -1.423e-6, -8.453e-7, 5.776e-7
0.338, -1.429e-6, -8.475e-7, 5.816e-7
0.337, -1.431e-6, -8.496e-7, 5.819e-7
0.336, -1.434e-6, -8.505e-7, 5.831e-7
0.335, -1.437e-6, -8.502e-7, 5.865e-7
0.334, -1.436e-6, -8.508e-7, 5.855e-7
0.333, -1.441e-6, -8.533e-7, 5.877e-7
0.332, -1.445e-6, -8.557e-7, 5.889e-7
0.331, -1.448e-6, -8.566e-7, 5.916e-7
0.330, -1.452e-6, -8.603e-7, 5.913e-7
0.329, -1.452e-6, -8.569e-7, 5.950e-7
0.328, -1.455e-6, -8.597e-7, 5.953e-7
0.327, -1.455e-6, -8.618e-7, 5.935e-7
0.326, -1.459e-6, -8.600e-7, 5.993e-7
0.325, -1.463e-6, -8.621e-7, 6.005e-7
0.324, -1.465e-6, -8.636e-7, 6.011e-7
0.323, -1.465e-6, -8.643e-7, 6.008e-7
0.322, -1.468e-6, -8.652e-7, 6.032e-7
0.321, -1.468e-6, -8.652e-7, 6.032e-7
0.320, -1.471e-6, -8.658e-7, 6.054e-7
0.319, -1.471e-6, -8.658e-7, 6.057e-7
0.318, -1.477e-6, -8.685e-7, 6.087e-7
0.317, -1.477e-6, -8.673e-7, 6.100e-7
0.316, -1.480e-6, -8.698e-7, 6.100e-7
0.315, -1.482e-6, -8.688e-7, 6.133e-7
0.314, -1.485e-6, -8.716e-7, 6.136e-7
0.313, -1.487e-6, -8.731e-7, 6.142e-7
0.312, -1.492e-6, -8.740e-7, 6.176e-7
0.311, -1.488e-6, -8.704e-7, 6.173e-7
0.310, -1.489e-6, -8.725e-7, 6.161e-7
0.309, -1.493e-6, -8.740e-7, 6.191e-7
0.308, -1.494e-6, -8.722e-7, 6.216e-7
0.307, -1.496e-6, -8.743e-7, 6.222e-7
0.306, -1.498e-6, -8.743e-7, 6.237e-7
0.305, -1.499e-6, -8.722e-7, 6.267e-7
0.304, -1.497e-6, -8.728e-7, 6.243e-7
0.303, -1.498e-6, -8.737e-7, 6.246e-7
0.302, -1.501e-6, -8.734e-7, 6.274e-7
0.301, -1.504e-6, -8.743e-7, 6.295e-7
0.300, -1.506e-6, -8.749e-7, 6.307e-7
0.299, -1.504e-6, -8.734e-7, 6.304e-7
0.298, -1.506e-6, -8.749e-7, 6.313e-7
0.297, -1.508e-6, -8.734e-7, 6.350e-7
0.296, -1.510e-6, -8.725e-7, 6.371e-7
0.295, -1.512e-6, -8.759e-7, 6.359e-7
0.294, -1.512e-6, -8.743e-7, 6.380e-7
0.293, -1.513e-6, -8.734e-7, 6.393e-7
0.292, -1.514e-6, -8.746e-7, 6.389e-7
0.291, -1.514e-6, -8.743e-7, 6.393e-7
0.290, -1.517e-6, -8.731e-7, 6.438e-7
0.289, -1.517e-6, -8.734e-7, 6.432e-7
0.288, -1.516e-6, -8.728e-7, 6.432e-7
0.287, -1.514e-6, -8.698e-7, 6.444e-7
0.286, -1.517e-6, -8.716e-7, 6.454e-7
0.285, -1.515e-6, -8.691e-7, 6.460e-7
0.284, -1.519e-6, -8.710e-7, 6.478e-7
0.283, -1.518e-6, -8.710e-7, 6.472e-7
0.282, -1.520e-6, -8.719e-7, 6.481e-7
0.281, -1.517e-6, -8.673e-7, 6.496e-7
0.280, -1.520e-6, -8.691e-7, 6.512e-7
0.279, -1.520e-6, -8.682e-7, 6.518e-7
0.278, -1.521e-6, -8.679e-7, 6.527e-7
0.277, -1.520e-6, -8.679e-7, 6.524e-7
0.276, -1.519e-6, -8.658e-7, 6.536e-7
0.275, -1.519e-6, -8.649e-7, 6.542e-7
0.274, -1.524e-6, -8.673e-7, 6.563e-7
0.273, -1.522e-6, -8.646e-7, 6.576e-7
0.272, -1.522e-6, -8.624e-7, 6.597e-7
0.271, -1.522e-6, -8.643e-7, 6.582e-7
0.270, -1.520e-6, -8.618e-7, 6.585e-7
0.269, -1.520e-6, -8.588e-7, 6.612e-7
0.268, -1.521e-6, -8.597e-7, 6.615e-7
0.267, -1.520e-6, -8.588e-7, 6.615e-7
0.266, -1.518e-6, -8.569e-7, 6.615e-7
0.265, -1.520e-6, -8.591e-7, 6.612e-7
0.264, -1.521e-6, -8.557e-7, 6.649e-7
0.263, -1.517e-6, -8.536e-7, 6.637e-7
0.262, -1.516e-6, -8.521e-7, 6.643e-7
0.261, -1.517e-6, -8.517e-7, 6.652e-7
0.260, -1.516e-6, -8.517e-7, 6.646e-7
0.259, -1.512e-6, -8.490e-7, 6.634e-7
0.258, -1.518e-6, -8.496e-7, 6.679e-7
0.257, -1.514e-6, -8.478e-7, 6.664e-7
0.256, -1.514e-6, -8.481e-7, 6.658e-7
0.255, -1.513e-6, -8.447e-7, 6.685e-7
0.254, -1.510e-6, -8.420e-7, 6.679e-7
0.253, -1.511e-6, -8.438e-7, 6.670e-7
0.252, -1.509e-6, -8.389e-7, 6.704e-7
0.251, -1.508e-6, -8.392e-7, 6.685e-7
0.250, -1.507e-6, -8.386e-7, 6.689e-7
0.249, -1.506e-6, -8.365e-7, 6.698e-7
0.248, -1.504e-6, -8.347e-7, 6.692e-7
0.247, -1.505e-6, -8.350e-7, 6.698e-7
0.246, -1.506e-6, -8.337e-7, 6.719e-7
0.245, -1.501e-6, -8.313e-7, 6.698e-7
0.244, -1.501e-6, -8.325e-7, 6.685e-7
0.243, -1.499e-6, -8.283e-7, 6.704e-7
0.242, -1.498e-6, -8.276e-7, 6.704e-7
0.241, -1.498e-6, -8.270e-7, 6.713e-7
0.240, -1.495e-6, -8.246e-7, 6.707e-7
0.239, -1.493e-6, -8.225e-7, 6.710e-7
0.238, -1.493e-6, -8.206e-7, 6.722e-7
0.237, -1.492e-6, -8.188e-7, 6.734e-7
0.236, -1.490e-6, -8.185e-7, 6.716e-7
0.235, -1.489e-6, -8.182e-7, 6.713e-7
0.234, -1.490e-6, -8.148e-7, 6.750e-7
0.233, -1.486e-6, -8.142e-7, 6.713e-7
0.232, -1.481e-6, -8.124e-7, 6.685e-7
0.231, -1.484e-6, -8.109e-7, 6.728e-7
0.230, -1.480e-6, -8.081e-7, 6.716e-7
0.229, -1.479e-6, -8.069e-7, 6.719e-7
0.228, -1.477e-6, -8.063e-7, 6.710e-7
0.227, -1.473e-6, -8.026e-7, 6.707e-7
0.226, -1.472e-6, -8.017e-7, 6.707e-7
0.225, -1.469e-6, -8.008e-7, 6.679e-7
0.224, -1.468e-6, -8.005e-7, 6.676e-7
0.223, -1.470e-6, -7.993e-7, 6.707e-7
0.222, -1.465e-6, -7.950e-7, 6.698e-7
0.221, -1.462e-6, -7.941e-7, 6.682e-7
0.220, -1.464e-6, -7.953e-7, 6.682e-7
0.219, -1.459e-6, -7.910e-7, 6.676e-7
0.218, -1.456e-6, -7.883e-7, 6.679e-7
0.217, -1.453e-6, -7.874e-7, 6.658e-7
0.216, -1.452e-6, -7.858e-7, 6.664e-7
0.215, -1.450e-6, -7.843e-7, 6.655e-7
0.214, -1.450e-6, -7.846e-7, 6.658e-7
0.213, -1.446e-6, -7.794e-7, 6.670e-7
0.212, -1.439e-6, -7.776e-7, 6.618e-7
0.211, -1.444e-6, -7.791e-7, 6.646e-7
0.210, -1.438e-6, -7.736e-7, 6.646e-7
0.209, -1.433e-6, -7.721e-7, 6.612e-7
0.208, -1.434e-6, -7.733e-7, 6.609e-7
0.207, -1.433e-6, -7.700e-7, 6.634e-7
0.206, -1.431e-6, -7.687e-7, 6.621e-7
0.205, -1.430e-6, -7.691e-7, 6.606e-7
0.204, -1.424e-6, -7.645e-7, 6.597e-7
0.203, -1.421e-6, -7.651e-7, 6.554e-7
0.202, -1.419e-6, -7.633e-7, 6.560e-7
0.201, -1.419e-6, -7.596e-7, 6.597e-7
0.200, -1.413e-6, -7.584e-7, 6.542e-7
0.199, -1.413e-6, -7.602e-7, 6.533e-7
0.198, -1.410e-6, -7.544e-7, 6.554e-7
0.197, -1.406e-6, -7.550e-7, 6.512e-7
0.196, -1.404e-6, -7.523e-7, 6.521e-7
0.195, -1.402e-6, -7.501e-7, 6.518e-7
0.194, -1.399e-6, -7.492e-7, 6.499e-7
0.193, -1.399e-6, -7.489e-7, 6.502e-7
0.192, -1.395e-6, -7.456e-7, 6.493e-7
0.191, -1.391e-6, -7.437e-7, 6.469e-7
0.190, -1.390e-6, -7.437e-7, 6.463e-7
0.189, -1.389e-6, -7.410e-7, 6.484e-7
0.188, -1.385e-6, -7.391e-7, 6.457e-7
0.187, -1.383e-6, -7.398e-7, 6.435e-7
0.186, -1.381e-6, -7.346e-7, 6.460e-7
0.185, -1.376e-6, -7.364e-7, 6.399e-7
0.184, -1.376e-6, -7.352e-7, 6.408e-7
0.183, -1.370e-6, -7.294e-7, 6.411e-7
0.182, -1.367e-6, -7.291e-7, 6.380e-7
0.181, -1.367e-6, -7.288e-7, 6.383e-7
0.180, -1.363e-6, -7.260e-7, 6.374e-7
0.179, -1.356e-6, -7.245e-7, 6.319e-7
0.178, -1.359e-6, -7.257e-7, 6.338e-7
0.177, -1.355e-6, -7.214e-7, 6.331e-7
0.176, -1.351e-6, -7.202e-7, 6.307e-7
0.175, -1.350e-6, -7.199e-7, 6.301e-7
0.174, -1.348e-6, -7.178e-7, 6.301e-7
0.173, -1.344e-6, -7.153e-7, 6.289e-7
0.172, -1.342e-6, -7.163e-7, 6.255e-7
0.171, -1.334e-6, -7.108e-7, 6.237e-7
0.170, -1.334e-6, -7.123e-7, 6.216e-7
0.169, -1.334e-6, -7.117e-7, 6.228e-7
0.168, -1.330e-6, -7.068e-7, 6.231e-7
0.167, -1.325e-6, -7.056e-7, 6.191e-7
0.166, -1.326e-6, -7.071e-7, 6.185e-7
0.165, -1.324e-6, -7.037e-7, 6.203e-7
0.164, -1.316e-6, -7.022e-7, 6.142e-7
0.163, -1.315e-6, -7.013e-7, 6.139e-7
0.162, -1.312e-6, -6.970e-7, 6.145e-7
0.161, -1.307e-6, -6.983e-7, 6.090e-7
0.160, -1.311e-6, -7.007e-7, 6.106e-7
0.159, -1.306e-6, -6.952e-7, 6.112e-7
0.158, -1.300e-6, -6.940e-7, 6.063e-7
0.157, -1.299e-6, -6.937e-7, 6.057e-7
0.156, -1.299e-6, -6.915e-7, 6.078e-7
0.155, -1.292e-6, -6.903e-7, 6.017e-7
0.154, -1.290e-6, -6.885e-7, 6.011e-7
0.153, -1.289e-6, -6.876e-7, 6.014e-7
0.152, -1.284e-6, -6.860e-7, 5.978e-7
0.151, -1.285e-6, -6.860e-7, 5.990e-7
0.150, -1.280e-6, -6.815e-7, 5.981e-7
0.149, -1.278e-6, -6.842e-7, 5.935e-7
0.148, -1.277e-6, -6.827e-7, 5.941e-7
0.147, -1.273e-6, -6.775e-7, 5.950e-7
0.146, -1.268e-6, -6.772e-7, 5.904e-7
0.145, -1.268e-6, -6.784e-7, 5.895e-7
0.144, -1.263e-6, -6.732e-7, 5.895e-7
0.143, -1.260e-6, -6.732e-7, 5.865e-7
0.142, -1.258e-6, -6.729e-7, 5.849e-7
0.141, -1.258e-6, -6.702e-7, 5.874e-7
0.140, -1.251e-6, -6.699e-7, 5.816e-7
0.139, -1.252e-6, -6.711e-7, 5.807e-7
0.138, -1.248e-6, -6.677e-7, 5.804e-7
0.137, -1.244e-6, -6.662e-7, 5.773e-7
0.136, -1.243e-6, -6.665e-7, 5.767e-7
0.135, -1.240e-6, -6.616e-7, 5.779e-7
0.134, -1.236e-6, -6.635e-7, 5.727e-7
0.133, -1.233e-6, -6.604e-7, 5.724e-7
0.132, -1.232e-6, -6.586e-7, 5.733e-7
0.131, -1.227e-6, -6.586e-7, 5.688e-7
0.130, -1.227e-6, -6.580e-7, 5.688e-7
0.129, -1.224e-6, -6.549e-7, 5.694e-7
0.128, -1.219e-6, -6.546e-7, 5.642e-7
0.127, -1.220e-6, -6.558e-7, 5.642e-7
0.126, -1.215e-6, -6.500e-7, 5.654e-7
0.125, -1.213e-6, -6.519e-7, 5.614e-7
0.124, -1.212e-6, -6.513e-7, 5.605e-7
0.123, -1.208e-6, -6.488e-7, 5.596e-7
0.122, -1.205e-6, -6.476e-7, 5.572e-7
0.121, -1.203e-6, -6.473e-7, 5.556e-7
0.120, -1.202e-6, -6.445e-7, 5.578e-7
0.119, -1.197e-6, -6.449e-7, 5.526e-7
0.118, -1.196e-6, -6.433e-7, 5.529e-7
0.117, -1.194e-6, -6.403e-7, 5.535e-7
0.116, -1.192e-6, -6.424e-7, 5.498e-7
0.115, -1.191e-6, -6.406e-7, 5.505e-7
0.114, -1.187e-6, -6.375e-7, 5.498e-7
0.113, -1.180e-6, -6.366e-7, 5.437e-7
0.112, -1.183e-6, -6.372e-7, 5.456e-7
0.111, -1.181e-6, -6.342e-7, 5.465e-7
0.110, -1.176e-6, -6.342e-7, 5.416e-7
0.109, -1.174e-6, -6.330e-7, 5.413e-7
0.108, -1.173e-6, -6.305e-7, 5.428e-7
0.107, -1.167e-6, -6.305e-7, 5.367e-7
0.106, -1.168e-6, -6.299e-7, 5.376e-7
0.105, -1.165e-6, -6.268e-7, 5.379e-7
0.104, -1.160e-6, -6.265e-7, 5.334e-7
0.103, -1.162e-6, -6.278e-7, 5.346e-7
0.102, -1.158e-6, -6.244e-7, 5.334e-7
0.101, -1.153e-6, -6.238e-7, 5.288e-7
0.100, -1.155e-6, -6.247e-7, 5.303e-7
0.099, -1.153e-6, -6.220e-7, 5.306e-7
0.098, -1.147e-6, -6.195e-7, 5.276e-7
0.097, -1.147e-6, -6.214e-7, 5.254e-7
0.096, -1.145e-6, -6.168e-7, 5.279e-7
0.095, -1.142e-6, -6.165e-7, 5.257e-7
0.094, -1.141e-6, -6.177e-7, 5.233e-7
0.093, -1.140e-6, -6.153e-7, 5.248e-7
0.092, -1.136e-6, -6.149e-7, 5.215e-7
0.091, -1.133e-6, -6.125e-7, 5.202e-7
0.090, -1.132e-6, -6.113e-7, 5.212e-7
0.089, -1.130e-6, -6.107e-7, 5.193e-7
0.088, -1.131e-6, -6.113e-7, 5.199e-7
0.087, -1.122e-6, -6.067e-7, 5.151e-7
0.086, -1.121e-6, -6.070e-7, 5.141e-7
0.085, -1.120e-6, -6.076e-7, 5.126e-7
0.084, -1.119e-6, -6.043e-7, 5.147e-7
0.083, -1.118e-6, -6.064e-7, 5.114e-7
0.082, -1.118e-6, -6.049e-7, 5.129e-7
0.081, -1.115e-6, -6.027e-7, 5.120e-7
0.080, -1.110e-6, -6.006e-7, 5.096e-7
0.079, -1.112e-6, -6.024e-7, 5.099e-7
0.078, -1.105e-6, -5.994e-7, 5.059e-7
0.077, -1.104e-6, -5.994e-7, 5.044e-7
0.076, -1.105e-6, -5.991e-7, 5.056e-7
0.075, -1.100e-6, -5.951e-7, 5.047e-7
0.074, -1.098e-6, -5.951e-7, 5.032e-7
0.073, -1.100e-6, -5.951e-7, 5.053e-7
0.072, -1.096e-6, -5.942e-7, 5.013e-7
0.071, -1.091e-6, -5.918e-7, 4.995e-7
0.070, -1.093e-6, -5.908e-7, 5.022e-7
0.069, -1.089e-6, -5.893e-7, 5.001e-7
0.068, -1.086e-6, -5.896e-7, 4.967e-7
0.067, -1.089e-6, -5.899e-7, 4.989e-7
0.066, -1.085e-6, -5.881e-7, 4.967e-7
0.065, -1.082e-6, -5.866e-7, 4.952e-7
0.064, -1.080e-6, -5.863e-7, 4.937e-7
0.063, -1.079e-6, -5.841e-7, 4.952e-7
0.062, -1.077e-6, -5.844e-7, 4.922e-7
0.061, -1.077e-6, -5.829e-7, 4.943e-7
0.060, -1.071e-6, -5.802e-7, 4.909e-7
0.059, -1.070e-6, -5.805e-7, 4.900e-7
0.058, -1.069e-6, -5.795e-7, 4.897e-7
0.057, -1.070e-6, -5.789e-7, 4.906e-7
0.056, -1.065e-6, -5.771e-7, 4.879e-7
0.055, -1.065e-6, -5.765e-7, 4.882e-7
0.054, -1.062e-6, -5.750e-7, 4.870e-7
0.053, -1.061e-6, -5.744e-7, 4.864e-7
0.052, -1.060e-6, -5.744e-7, 4.861e-7
0.051, -1.058e-6, -5.734e-7, 4.848e-7
0.050, -1.052e-6, -5.698e-7, 4.821e-7
0.049, -1.053e-6, -5.686e-7, 4.845e-7
0.048, -1.052e-6, -5.689e-7, 4.836e-7
0.047, -1.050e-6, -5.692e-7, 4.809e-7
0.046, -1.052e-6, -5.695e-7, 4.827e-7
0.045, -1.048e-6, -5.664e-7, 4.812e-7
0.044, -1.044e-6, -5.655e-7, 4.784e-7
0.043, -1.045e-6, -5.661e-7, 4.793e-7
0.042, -1.043e-6, -5.640e-7, 4.793e-7
0.041, -1.041e-6, -5.631e-7, 4.778e-7
0.040, -1.040e-6, -5.625e-7, 4.775e-7
0.039, -1.036e-6, -5.600e-7, 4.763e-7
0.038, -1.036e-6, -5.612e-7, 4.751e-7
0.037, -1.036e-6, -5.597e-7, 4.760e-7
0.036, -1.034e-6, -5.582e-7, 4.754e-7
0.035, -1.031e-6, -5.585e-7, 4.729e-7
0.034, -1.030e-6, -5.576e-7, 4.726e-7
0.033, -1.027e-6, -5.548e-7, 4.726e-7
0.032, -1.026e-6, -5.548e-7, 4.714e-7
0.031, -1.026e-6, -5.530e-7, 4.726e-7
0.030, -1.024e-6, -5.527e-7, 4.714e-7
0.029, -1.021e-6, -5.512e-7, 4.699e-7
0.028, -1.020e-6, -5.503e-7, 4.702e-7
0.027, -1.018e-6, -5.496e-7, 4.684e-7
0.026, -1.019e-6, -5.506e-7, 4.687e-7
0.025, -1.017e-6, -5.493e-7, 4.681e-7
0.024, -1.018e-6, -5.484e-7, 4.693e-7
0.023, -1.014e-6, -5.472e-7, 4.665e-7
0.022, -1.009e-6, -5.442e-7, 4.653e-7
0.021, -1.009e-6, -5.448e-7, 4.644e-7
0.020, -1.011e-6, -5.445e-7, 4.662e-7
0.019, -1.008e-6, -5.423e-7, 4.659e-7
0.018, -1.007e-6, -5.432e-7, 4.635e-7
0.017, -1.004e-6, -5.414e-7, 4.626e-7
0.016, -1.002e-6, -5.405e-7, 4.620e-7
0.015, -1.000e-6, -5.390e-7, 4.613e-7
0.014, -9.991e-7, -5.396e-7, 4.595e-7
0.013, -9.979e-7, -5.387e-7, 4.592e-7
0.012, -9.970e-7, -5.362e-7, 4.607e-7
0.011, -9.936e-7, -5.368e-7, 4.568e-7
0.010, -9.933e-7, -5.344e-7, 4.589e-7
0.009, -9.912e-7, -5.338e-7, 4.574e-7
0.008, -9.924e-7, -5.332e-7, 4.592e-7
0.007, -9.912e-7, -5.338e-7, 4.574e-7
0.006, -9.890e-7, -5.316e-7, 4.574e-7
0.005, -9.875e-7, -5.310e-7, 4.565e-7
0.004, -9.860e-7, -5.304e-7, 4.555e-7
0.003, -9.835e-7, -5.286e-7, 4.549e-7
0.002, -9.829e-7, -5.292e-7, 4.537e-7
0.001, -9.802e-7, -5.255e-7, 4.546e-7
-0.000, -9.783e-7, -5.271e-7, 4.513e-7
-0.001, -9.768e-7, -5.252e-7, 4.516e-7
-0.002, -9.774e-7, -5.252e-7, 4.522e-7
-0.003, -9.759e-7, -5.234e-7, 4.525e-7
-0.004, -9.750e-7, -5.237e-7, 4.513e-7
-0.005, -9.735e-7, -5.228e-7, 4.507e-7
-0.006, -9.713e-7, -5.216e-7, 4.497e-7
-0.007, -9.680e-7, -5.203e-7, 4.476e-7
-0.008, -9.689e-7, -5.194e-7, 4.494e-7
-0.009, -9.661e-7, -5.176e-7, 4.485e-7
-0.010, -9.655e-7, -5.176e-7, 4.479e-7
-0.011, -9.652e-7, -5.173e-7, 4.479e-7
-0.012, -9.622e-7, -5.164e-7, 4.458e-7
-0.013, -9.606e-7, -5.155e-7, 4.452e-7
-0.014, -9.612e-7, -5.161e-7, 4.452e-7
-0.015, -9.582e-7, -5.146e-7, 4.436e-7
-0.016, -9.585e-7, -5.130e-7, 4.455e-7
-0.017, -9.558e-7, -5.121e-7, 4.436e-7
-0.018, -9.551e-7, -5.124e-7, 4.427e-7
-0.019, -9.542e-7, -5.118e-7, 4.424e-7
-0.020, -9.512e-7, -5.097e-7, 4.415e-7
-0.021, -9.524e-7, -5.097e-7, 4.427e-7
-0.022, -9.475e-7, -5.081e-7, 4.394e-7
-0.023, -9.487e-7, -5.075e-7, 4.412e-7
-0.024, -9.454e-7, -5.051e-7, 4.403e-7
-0.025, -9.457e-7, -5.069e-7, 4.388e-7
-0.026, -9.445e-7, -5.033e-7, 4.412e-7
-0.027, -9.420e-7, -5.039e-7, 4.382e-7
-0.028, -9.411e-7, -5.033e-7, 4.378e-7
-0.029, -9.393e-7, -5.023e-7, 4.369e-7
-0.030, -9.387e-7, -5.020e-7, 4.366e-7
-0.031, -9.390e-7, -5.020e-7, 4.369e-7
-0.032, -9.356e-7, -4.999e-7, 4.357e-7
-0.033, -9.347e-7, -4.993e-7, 4.354e-7
-0.034, -9.329e-7, -4.987e-7, 4.342e-7
-0.035, -9.307e-7, -4.965e-7, 4.342e-7
-0.036, -9.313e-7, -4.975e-7, 4.339e-7
-0.037, -9.292e-7, -4.969e-7, 4.324e-7
-0.038, -9.286e-7, -4.962e-7, 4.324e-7
-0.039, -9.274e-7, -4.962e-7, 4.311e-7
-0.040, -9.286e-7, -4.962e-7, 4.324e-7
-0.041, -9.246e-7, -4.947e-7, 4.299e-7
-0.042, -9.249e-7, -4.938e-7, 4.311e-7
-0.043, -9.228e-7, -4.935e-7, 4.293e-7
-0.044, -9.225e-7, -4.923e-7, 4.302e-7
-0.045, -9.207e-7, -4.914e-7, 4.293e-7
-0.046, -9.182e-7, -4.898e-7, 4.284e-7
-0.047, -9.179e-7, -4.889e-7, 4.290e-7
-0.048, -9.152e-7, -4.892e-7, 4.259e-7
-0.049, -9.133e-7, -4.886e-7, 4.247e-7
-0.050, -9.136e-7, -4.883e-7, 4.253e-7
