Feb. 28, 2018   11:15:27
Square Wave Voltammetry
File: c:\users\electrochemist\desktop\2018\28022018_unbuffered_9,2\4_e6_9,2_0118_ph4,07_5.txt
Data Source:  Experiment
Instrument Model:  CHI1040A
Header: 
Note: 

Init E (V) = 0.5
Final E (V) = -0.05
Incr E (V) = 0.001
Amplitude (V) = 0.1
Frequency (Hz) = 150
Quiet Time (sec) = 0
Sensitivity (A/V) = 1e-6

Difference:

Forward:

Reverse:
Ep = 0.236V
ip = 1.363e-7A
Ah = 1.513e-8VA

Potential/V, Diff(i/A), For(i/A), Rev(i/A)

0.499, -7.983e-7, -1.957e-7, 6.026e-7
0.498, -1.018e-6, -4.929e-7, 5.248e-7
0.497, -1.017e-6, -5.133e-7, 5.035e-7
0.496, -1.010e-6, -5.182e-7, 4.916e-7
0.495, -1.008e-6, -5.237e-7, 4.839e-7
0.494, -1.005e-6, -5.271e-7, 4.784e-7
0.493, -1.002e-6, -5.295e-7, 4.723e-7
0.492, -1.002e-6, -5.341e-7, 4.678e-7
0.491, -1.002e-6, -5.347e-7, 4.675e-7
0.490, -1.001e-6, -5.374e-7, 4.632e-7
0.489, -1.002e-6, -5.414e-7, 4.607e-7
0.488, -1.003e-6, -5.435e-7, 4.592e-7
0.487, -1.005e-6, -5.445e-7, 4.601e-7
0.486, -1.001e-6, -5.469e-7, 4.543e-7
0.485, -1.007e-6, -5.487e-7, 4.580e-7
0.484, -1.005e-6, -5.499e-7, 4.552e-7
0.483, -1.007e-6, -5.530e-7, 4.543e-7
0.482, -1.009e-6, -5.551e-7, 4.537e-7
0.481, -1.012e-6, -5.570e-7, 4.549e-7
0.480, -1.010e-6, -5.585e-7, 4.519e-7
0.479, -1.012e-6, -5.603e-7, 4.513e-7
0.478, -1.011e-6, -5.603e-7, 4.504e-7
0.477, -1.014e-6, -5.631e-7, 4.510e-7
0.476, -1.020e-6, -5.673e-7, 4.531e-7
0.475, -1.018e-6, -5.667e-7, 4.516e-7
0.474, -1.020e-6, -5.686e-7, 4.516e-7
0.473, -1.021e-6, -5.713e-7, 4.501e-7
0.472, -1.024e-6, -5.722e-7, 4.516e-7
0.471, -1.024e-6, -5.741e-7, 4.504e-7
0.470, -1.028e-6, -5.756e-7, 4.522e-7
0.469, -1.031e-6, -5.780e-7, 4.528e-7
0.468, -1.032e-6, -5.799e-7, 4.522e-7
0.467, -1.032e-6, -5.808e-7, 4.513e-7
0.466, -1.037e-6, -5.838e-7, 4.531e-7
0.465, -1.038e-6, -5.860e-7, 4.516e-7
0.464, -1.044e-6, -5.899e-7, 4.540e-7
0.463, -1.043e-6, -5.884e-7, 4.549e-7
0.462, -1.045e-6, -5.918e-7, 4.534e-7
0.461, -1.047e-6, -5.921e-7, 4.549e-7
0.460, -1.047e-6, -5.924e-7, 4.546e-7
0.459, -1.052e-6, -5.972e-7, 4.549e-7
0.458, -1.054e-6, -5.997e-7, 4.546e-7
0.457, -1.056e-6, -5.991e-7, 4.565e-7
0.456, -1.058e-6, -6.027e-7, 4.549e-7
0.455, -1.063e-6, -6.061e-7, 4.574e-7
0.454, -1.063e-6, -6.052e-7, 4.577e-7
0.453, -1.066e-6, -6.088e-7, 4.574e-7
0.452, -1.069e-6, -6.088e-7, 4.598e-7
0.451, -1.071e-6, -6.110e-7, 4.601e-7
0.450, -1.074e-6, -6.159e-7, 4.577e-7
0.449, -1.075e-6, -6.168e-7, 4.583e-7
0.448, -1.076e-6, -6.162e-7, 4.601e-7
0.447, -1.078e-6, -6.177e-7, 4.607e-7
0.446, -1.085e-6, -6.226e-7, 4.623e-7
0.445, -1.088e-6, -6.256e-7, 4.620e-7
0.444, -1.088e-6, -6.272e-7, 4.607e-7
0.443, -1.092e-6, -6.293e-7, 4.632e-7
0.442, -1.095e-6, -6.299e-7, 4.647e-7
0.441, -1.097e-6, -6.320e-7, 4.647e-7
0.440, -1.101e-6, -6.351e-7, 4.656e-7
0.439, -1.104e-6, -6.363e-7, 4.675e-7
0.438, -1.107e-6, -6.391e-7, 4.675e-7
0.437, -1.107e-6, -6.403e-7, 4.671e-7
0.436, -1.112e-6, -6.427e-7, 4.693e-7
0.435, -1.114e-6, -6.455e-7, 4.690e-7
0.434, -1.114e-6, -6.458e-7, 4.681e-7
0.433, -1.117e-6, -6.473e-7, 4.702e-7
0.432, -1.124e-6, -6.519e-7, 4.720e-7
0.431, -1.127e-6, -6.540e-7, 4.732e-7
0.430, -1.127e-6, -6.543e-7, 4.729e-7
0.429, -1.132e-6, -6.592e-7, 4.732e-7
0.428, -1.137e-6, -6.616e-7, 4.757e-7
0.427, -1.139e-6, -6.616e-7, 4.772e-7
0.426, -1.141e-6, -6.641e-7, 4.772e-7
0.425, -1.145e-6, -6.665e-7, 4.784e-7
0.424, -1.145e-6, -6.668e-7, 4.784e-7
0.423, -1.151e-6, -6.732e-7, 4.781e-7
0.422, -1.153e-6, -6.717e-7, 4.812e-7
0.421, -1.155e-6, -6.751e-7, 4.800e-7
0.420, -1.160e-6, -6.775e-7, 4.821e-7
0.419, -1.164e-6, -6.799e-7, 4.845e-7
0.418, -1.166e-6, -6.827e-7, 4.836e-7
0.417, -1.168e-6, -6.848e-7, 4.836e-7
0.416, -1.171e-6, -6.851e-7, 4.858e-7
0.415, -1.176e-6, -6.873e-7, 4.885e-7
0.414, -1.179e-6, -6.925e-7, 4.861e-7
0.413, -1.181e-6, -6.937e-7, 4.876e-7
0.412, -1.183e-6, -6.946e-7, 4.888e-7
0.411, -1.191e-6, -7.004e-7, 4.906e-7
0.410, -1.195e-6, -7.013e-7, 4.937e-7
0.409, -1.196e-6, -7.044e-7, 4.916e-7
0.408, -1.201e-6, -7.074e-7, 4.937e-7
0.407, -1.202e-6, -7.077e-7, 4.940e-7
0.406, -1.205e-6, -7.098e-7, 4.949e-7
0.405, -1.211e-6, -7.144e-7, 4.971e-7
0.404, -1.215e-6, -7.147e-7, 5.001e-7
0.403, -1.215e-6, -7.169e-7, 4.977e-7
0.402, -1.220e-6, -7.196e-7, 5.007e-7
0.401, -1.223e-6, -7.211e-7, 5.022e-7
0.400, -1.224e-6, -7.227e-7, 5.016e-7
0.399, -1.230e-6, -7.272e-7, 5.025e-7
0.398, -1.233e-6, -7.275e-7, 5.056e-7
0.397, -1.234e-6, -7.294e-7, 5.044e-7
0.396, -1.240e-6, -7.346e-7, 5.053e-7
0.395, -1.246e-6, -7.355e-7, 5.102e-7
0.394, -1.247e-6, -7.382e-7, 5.093e-7
0.393, -1.251e-6, -7.401e-7, 5.105e-7
0.392, -1.250e-6, -7.398e-7, 5.105e-7
0.391, -1.257e-6, -7.446e-7, 5.126e-7
0.390, -1.260e-6, -7.468e-7, 5.129e-7
0.389, -1.266e-6, -7.489e-7, 5.169e-7
0.388, -1.268e-6, -7.517e-7, 5.160e-7
0.387, -1.271e-6, -7.541e-7, 5.169e-7
0.386, -1.275e-6, -7.562e-7, 5.187e-7
0.385, -1.277e-6, -7.584e-7, 5.187e-7
0.384, -1.285e-6, -7.654e-7, 5.199e-7
0.383, -1.284e-6, -7.605e-7, 5.233e-7
0.382, -1.287e-6, -7.657e-7, 5.212e-7
0.381, -1.291e-6, -7.669e-7, 5.245e-7
0.380, -1.294e-6, -7.669e-7, 5.270e-7
0.379, -1.296e-6, -7.727e-7, 5.236e-7
0.378, -1.303e-6, -7.764e-7, 5.270e-7
0.377, -1.307e-6, -7.755e-7, 5.312e-7
0.376, -1.309e-6, -7.785e-7, 5.303e-7
0.375, -1.314e-6, -7.825e-7, 5.315e-7
0.374, -1.316e-6, -7.806e-7, 5.349e-7
0.373, -1.318e-6, -7.858e-7, 5.324e-7
0.372, -1.323e-6, -7.886e-7, 5.349e-7
0.371, -1.327e-6, -7.877e-7, 5.389e-7
0.370, -1.328e-6, -7.904e-7, 5.376e-7
0.369, -1.333e-6, -7.944e-7, 5.382e-7
0.368, -1.337e-6, -7.956e-7, 5.416e-7
0.367, -1.337e-6, -7.962e-7, 5.410e-7
0.366, -1.344e-6, -8.008e-7, 5.431e-7
0.365, -1.347e-6, -8.008e-7, 5.462e-7
0.364, -1.348e-6, -8.029e-7, 5.453e-7
0.363, -1.354e-6, -8.069e-7, 5.474e-7
0.362, -1.356e-6, -8.057e-7, 5.498e-7
0.361, -1.357e-6, -8.072e-7, 5.501e-7
0.360, -1.363e-6, -8.127e-7, 5.501e-7
0.359, -1.364e-6, -8.124e-7, 5.517e-7
0.358, -1.365e-6, -8.133e-7, 5.520e-7
0.357, -1.372e-6, -8.173e-7, 5.550e-7
0.356, -1.374e-6, -8.173e-7, 5.569e-7
0.355, -1.374e-6, -8.191e-7, 5.553e-7
0.354, -1.385e-6, -8.258e-7, 5.593e-7
0.353, -1.382e-6, -8.209e-7, 5.611e-7
0.352, -1.386e-6, -8.252e-7, 5.608e-7
0.351, -1.392e-6, -8.282e-7, 5.639e-7
0.350, -1.394e-6, -8.286e-7, 5.657e-7
0.349, -1.396e-6, -8.319e-7, 5.645e-7
0.348, -1.398e-6, -8.316e-7, 5.660e-7
0.347, -1.402e-6, -8.325e-7, 5.694e-7
0.346, -1.406e-6, -8.365e-7, 5.694e-7
0.345, -1.409e-6, -8.380e-7, 5.706e-7
0.344, -1.409e-6, -8.365e-7, 5.727e-7
0.343, -1.413e-6, -8.395e-7, 5.740e-7
0.342, -1.418e-6, -8.411e-7, 5.770e-7
0.341, -1.423e-6, -8.441e-7, 5.788e-7
0.340, -1.422e-6, -8.453e-7, 5.767e-7
0.339, -1.426e-6, -8.472e-7, 5.791e-7
0.338, -1.429e-6, -8.459e-7, 5.828e-7
0.337, -1.427e-6, -8.478e-7, 5.794e-7
0.336, -1.435e-6, -8.496e-7, 5.855e-7
0.335, -1.436e-6, -8.490e-7, 5.871e-7
0.334, -1.436e-6, -8.521e-7, 5.837e-7
0.333, -1.442e-6, -8.539e-7, 5.883e-7
0.332, -1.441e-6, -8.521e-7, 5.892e-7
0.331, -1.444e-6, -8.548e-7, 5.892e-7
0.330, -1.450e-6, -8.594e-7, 5.910e-7
0.329, -1.454e-6, -8.579e-7, 5.959e-7
0.328, -1.453e-6, -8.591e-7, 5.941e-7
0.327, -1.458e-6, -8.618e-7, 5.962e-7
0.326, -1.460e-6, -8.609e-7, 5.987e-7
0.325, -1.458e-6, -8.603e-7, 5.974e-7
0.324, -1.464e-6, -8.646e-7, 5.990e-7
0.323, -1.468e-6, -8.649e-7, 6.036e-7
0.322, -1.466e-6, -8.646e-7, 6.014e-7
0.321, -1.469e-6, -8.649e-7, 6.042e-7
0.320, -1.474e-6, -8.664e-7, 6.075e-7
0.319, -1.471e-6, -8.667e-7, 6.045e-7
0.318, -1.478e-6, -8.694e-7, 6.081e-7
0.317, -1.479e-6, -8.685e-7, 6.103e-7
0.316, -1.480e-6, -8.691e-7, 6.106e-7
0.315, -1.482e-6, -8.704e-7, 6.118e-7
0.314, -1.482e-6, -8.685e-7, 6.139e-7
0.313, -1.483e-6, -8.701e-7, 6.127e-7
0.312, -1.487e-6, -8.713e-7, 6.155e-7
0.311, -1.489e-6, -8.704e-7, 6.191e-7
0.310, -1.490e-6, -8.725e-7, 6.173e-7
0.309, -1.495e-6, -8.734e-7, 6.216e-7
0.308, -1.493e-6, -8.722e-7, 6.212e-7
0.307, -1.493e-6, -8.728e-7, 6.197e-7
0.306, -1.498e-6, -8.752e-7, 6.231e-7
0.305, -1.501e-6, -8.734e-7, 6.277e-7
0.304, -1.499e-6, -8.752e-7, 6.240e-7
0.303, -1.501e-6, -8.740e-7, 6.274e-7
0.302, -1.502e-6, -8.731e-7, 6.292e-7
0.301, -1.504e-6, -8.755e-7, 6.280e-7
0.300, -1.508e-6, -8.765e-7, 6.313e-7
0.299, -1.505e-6, -8.731e-7, 6.316e-7
0.298, -1.504e-6, -8.731e-7, 6.310e-7
0.297, -1.507e-6, -8.737e-7, 6.338e-7
0.296, -1.507e-6, -8.728e-7, 6.344e-7
0.295, -1.511e-6, -8.743e-7, 6.368e-7
0.294, -1.512e-6, -8.755e-7, 6.368e-7
0.293, -1.512e-6, -8.725e-7, 6.399e-7
0.292, -1.511e-6, -8.734e-7, 6.380e-7
0.291, -1.515e-6, -8.752e-7, 6.402e-7
0.290, -1.514e-6, -8.734e-7, 6.408e-7
0.289, -1.515e-6, -8.728e-7, 6.423e-7
0.288, -1.515e-6, -8.725e-7, 6.426e-7
0.287, -1.517e-6, -8.710e-7, 6.457e-7
0.286, -1.514e-6, -8.725e-7, 6.414e-7
0.285, -1.518e-6, -8.728e-7, 6.454e-7
0.284, -1.519e-6, -8.691e-7, 6.499e-7
0.283, -1.516e-6, -8.710e-7, 6.451e-7
0.282, -1.520e-6, -8.716e-7, 6.484e-7
0.281, -1.519e-6, -8.682e-7, 6.512e-7
0.280, -1.519e-6, -8.694e-7, 6.493e-7
0.279, -1.522e-6, -8.701e-7, 6.515e-7
0.278, -1.519e-6, -8.676e-7, 6.512e-7
0.277, -1.520e-6, -8.670e-7, 6.530e-7
0.276, -1.521e-6, -8.673e-7, 6.533e-7
0.275, -1.521e-6, -8.630e-7, 6.576e-7
0.274, -1.519e-6, -8.643e-7, 6.551e-7
0.273, -1.524e-6, -8.655e-7, 6.585e-7
0.272, -1.524e-6, -8.627e-7, 6.609e-7
0.271, -1.519e-6, -8.624e-7, 6.563e-7
0.270, -1.521e-6, -8.624e-7, 6.582e-7
0.269, -1.517e-6, -8.582e-7, 6.591e-7
0.268, -1.519e-6, -8.612e-7, 6.576e-7
0.267, -1.519e-6, -8.566e-7, 6.621e-7
0.266, -1.519e-6, -8.560e-7, 6.631e-7
0.265, -1.518e-6, -8.569e-7, 6.615e-7
0.264, -1.519e-6, -8.557e-7, 6.631e-7
0.263, -1.520e-6, -8.539e-7, 6.661e-7
0.262, -1.517e-6, -8.536e-7, 6.637e-7
0.261, -1.516e-6, -8.521e-7, 6.640e-7
0.260, -1.512e-6, -8.456e-7, 6.667e-7
0.259, -1.514e-6, -8.493e-7, 6.649e-7
0.258, -1.515e-6, -8.490e-7, 6.664e-7
0.257, -1.513e-6, -8.456e-7, 6.676e-7
0.256, -1.510e-6, -8.463e-7, 6.637e-7
0.255, -1.513e-6, -8.463e-7, 6.667e-7
0.254, -1.509e-6, -8.417e-7, 6.676e-7
0.253, -1.510e-6, -8.435e-7, 6.664e-7
0.252, -1.511e-6, -8.408e-7, 6.701e-7
0.251, -1.510e-6, -8.398e-7, 6.701e-7
0.250, -1.506e-6, -8.377e-7, 6.679e-7
0.249, -1.507e-6, -8.377e-7, 6.698e-7
0.248, -1.507e-6, -8.353e-7, 6.716e-7
0.247, -1.503e-6, -8.340e-7, 6.689e-7
0.246, -1.505e-6, -8.344e-7, 6.707e-7
0.245, -1.502e-6, -8.310e-7, 6.707e-7
0.244, -1.499e-6, -8.286e-7, 6.704e-7
0.243, -1.501e-6, -8.298e-7, 6.716e-7
0.242, -1.499e-6, -8.273e-7, 6.716e-7
0.241, -1.496e-6, -8.264e-7, 6.701e-7
0.240, -1.496e-6, -8.246e-7, 6.716e-7
0.239, -1.493e-6, -8.237e-7, 6.692e-7
0.238, -1.491e-6, -8.200e-7, 6.710e-7
0.237, -1.492e-6, -8.206e-7, 6.713e-7
0.236, -1.489e-6, -8.167e-7, 6.722e-7
0.235, -1.488e-6, -8.173e-7, 6.704e-7
0.234, -1.490e-6, -8.188e-7, 6.716e-7
0.233, -1.485e-6, -8.142e-7, 6.704e-7
0.232, -1.485e-6, -8.145e-7, 6.701e-7
0.231, -1.484e-6, -8.124e-7, 6.719e-7
0.230, -1.479e-6, -8.084e-7, 6.707e-7
0.229, -1.478e-6, -8.081e-7, 6.701e-7
0.228, -1.477e-6, -8.063e-7, 6.710e-7
0.227, -1.476e-6, -8.038e-7, 6.722e-7
0.226, -1.470e-6, -8.017e-7, 6.685e-7
0.225, -1.472e-6, -8.017e-7, 6.704e-7
0.224, -1.468e-6, -7.977e-7, 6.704e-7
0.223, -1.467e-6, -7.990e-7, 6.679e-7
0.222, -1.466e-6, -7.965e-7, 6.695e-7
0.221, -1.464e-6, -7.950e-7, 6.695e-7
0.220, -1.460e-6, -7.935e-7, 6.667e-7
0.219, -1.458e-6, -7.916e-7, 6.667e-7
0.218, -1.458e-6, -7.895e-7, 6.689e-7
0.217, -1.457e-6, -7.889e-7, 6.679e-7
0.216, -1.452e-6, -7.861e-7, 6.658e-7
0.215, -1.450e-6, -7.828e-7, 6.670e-7
0.214, -1.447e-6, -7.831e-7, 6.637e-7
0.213, -1.448e-6, -7.813e-7, 6.667e-7
0.212, -1.443e-6, -7.779e-7, 6.649e-7
0.211, -1.443e-6, -7.788e-7, 6.646e-7
0.210, -1.440e-6, -7.764e-7, 6.637e-7
0.209, -1.437e-6, -7.742e-7, 6.631e-7
0.208, -1.436e-6, -7.739e-7, 6.624e-7
0.207, -1.433e-6, -7.715e-7, 6.618e-7
0.206, -1.429e-6, -7.706e-7, 6.588e-7
0.205, -1.428e-6, -7.687e-7, 6.588e-7
0.204, -1.426e-6, -7.660e-7, 6.597e-7
0.203, -1.423e-6, -7.648e-7, 6.582e-7
0.202, -1.420e-6, -7.629e-7, 6.570e-7
0.201, -1.418e-6, -7.614e-7, 6.570e-7
0.200, -1.416e-6, -7.596e-7, 6.560e-7
0.199, -1.411e-6, -7.571e-7, 6.539e-7
0.198, -1.408e-6, -7.559e-7, 6.518e-7
0.197, -1.406e-6, -7.526e-7, 6.536e-7
0.196, -1.404e-6, -7.532e-7, 6.508e-7
0.195, -1.403e-6, -7.507e-7, 6.518e-7
0.194, -1.402e-6, -7.495e-7, 6.524e-7
0.193, -1.397e-6, -7.474e-7, 6.496e-7
0.192, -1.395e-6, -7.465e-7, 6.484e-7
0.191, -1.391e-6, -7.449e-7, 6.463e-7
0.190, -1.390e-6, -7.425e-7, 6.475e-7
0.189, -1.387e-6, -7.407e-7, 6.463e-7
0.188, -1.385e-6, -7.410e-7, 6.438e-7
0.187, -1.383e-6, -7.401e-7, 6.426e-7
0.186, -1.381e-6, -7.379e-7, 6.429e-7
0.185, -1.377e-6, -7.352e-7, 6.417e-7
0.184, -1.374e-6, -7.327e-7, 6.411e-7
0.183, -1.373e-6, -7.330e-7, 6.396e-7
0.182, -1.367e-6, -7.300e-7, 6.374e-7
0.181, -1.366e-6, -7.288e-7, 6.374e-7
0.180, -1.363e-6, -7.275e-7, 6.359e-7
0.179, -1.360e-6, -7.257e-7, 6.344e-7
0.178, -1.357e-6, -7.221e-7, 6.350e-7
0.177, -1.354e-6, -7.214e-7, 6.325e-7
0.176, -1.353e-6, -7.211e-7, 6.319e-7
0.175, -1.348e-6, -7.193e-7, 6.283e-7
0.174, -1.345e-6, -7.184e-7, 6.270e-7
0.173, -1.345e-6, -7.169e-7, 6.277e-7
0.172, -1.340e-6, -7.138e-7, 6.258e-7
0.171, -1.338e-6, -7.144e-7, 6.240e-7
0.170, -1.335e-6, -7.111e-7, 6.243e-7
0.169, -1.331e-6, -7.105e-7, 6.206e-7
0.168, -1.329e-6, -7.083e-7, 6.203e-7
0.167, -1.327e-6, -7.071e-7, 6.200e-7
0.166, -1.326e-6, -7.074e-7, 6.182e-7
0.165, -1.323e-6, -7.037e-7, 6.194e-7
0.164, -1.319e-6, -7.016e-7, 6.173e-7
0.163, -1.318e-6, -7.041e-7, 6.139e-7
0.162, -1.313e-6, -7.013e-7, 6.118e-7
0.161, -1.311e-6, -6.973e-7, 6.136e-7
0.160, -1.306e-6, -6.970e-7, 6.087e-7
0.159, -1.307e-6, -6.964e-7, 6.103e-7
0.158, -1.301e-6, -6.940e-7, 6.066e-7
0.157, -1.300e-6, -6.928e-7, 6.072e-7
0.156, -1.298e-6, -6.918e-7, 6.063e-7
0.155, -1.292e-6, -6.897e-7, 6.026e-7
0.154, -1.290e-6, -6.873e-7, 6.023e-7
0.153, -1.289e-6, -6.873e-7, 6.014e-7
0.152, -1.286e-6, -6.870e-7, 5.987e-7
0.151, -1.280e-6, -6.833e-7, 5.968e-7
0.150, -1.280e-6, -6.827e-7, 5.974e-7
0.149, -1.276e-6, -6.815e-7, 5.944e-7
0.148, -1.275e-6, -6.821e-7, 5.929e-7
0.147, -1.270e-6, -6.781e-7, 5.920e-7
0.146, -1.266e-6, -6.781e-7, 5.883e-7
0.145, -1.264e-6, -6.757e-7, 5.883e-7
0.144, -1.265e-6, -6.751e-7, 5.898e-7
0.143, -1.261e-6, -6.745e-7, 5.868e-7
0.142, -1.259e-6, -6.732e-7, 5.855e-7
0.141, -1.257e-6, -6.720e-7, 5.849e-7
0.140, -1.251e-6, -6.702e-7, 5.813e-7
0.139, -1.251e-6, -6.696e-7, 5.816e-7
0.138, -1.246e-6, -6.674e-7, 5.785e-7
0.137, -1.246e-6, -6.671e-7, 5.785e-7
0.136, -1.244e-6, -6.671e-7, 5.773e-7
0.135, -1.238e-6, -6.641e-7, 5.743e-7
0.134, -1.237e-6, -6.616e-7, 5.755e-7
0.133, -1.234e-6, -6.613e-7, 5.724e-7
0.132, -1.232e-6, -6.598e-7, 5.724e-7
0.131, -1.227e-6, -6.580e-7, 5.688e-7
0.130, -1.227e-6, -6.577e-7, 5.697e-7
0.129, -1.226e-6, -6.586e-7, 5.678e-7
0.128, -1.220e-6, -6.552e-7, 5.648e-7
0.127, -1.219e-6, -6.540e-7, 5.651e-7
0.126, -1.214e-6, -6.513e-7, 5.627e-7
0.125, -1.211e-6, -6.507e-7, 5.599e-7
0.124, -1.210e-6, -6.510e-7, 5.593e-7
0.123, -1.209e-6, -6.494e-7, 5.596e-7
0.122, -1.205e-6, -6.482e-7, 5.572e-7
0.121, -1.204e-6, -6.470e-7, 5.575e-7
0.120, -1.205e-6, -6.479e-7, 5.569e-7
0.119, -1.200e-6, -6.449e-7, 5.550e-7
0.118, -1.197e-6, -6.439e-7, 5.532e-7
0.117, -1.194e-6, -6.424e-7, 5.514e-7
0.116, -1.191e-6, -6.406e-7, 5.501e-7
0.115, -1.188e-6, -6.397e-7, 5.480e-7
0.114, -1.185e-6, -6.372e-7, 5.480e-7
0.113, -1.186e-6, -6.387e-7, 5.468e-7
0.112, -1.182e-6, -6.360e-7, 5.462e-7
0.111, -1.177e-6, -6.339e-7, 5.428e-7
0.110, -1.174e-6, -6.326e-7, 5.413e-7
0.109, -1.175e-6, -6.333e-7, 5.413e-7
0.108, -1.172e-6, -6.320e-7, 5.401e-7
0.107, -1.168e-6, -6.320e-7, 5.361e-7
0.106, -1.168e-6, -6.290e-7, 5.395e-7
0.105, -1.165e-6, -6.278e-7, 5.370e-7
0.104, -1.162e-6, -6.281e-7, 5.337e-7
0.103, -1.158e-6, -6.256e-7, 5.328e-7
0.102, -1.155e-6, -6.238e-7, 5.315e-7
0.101, -1.156e-6, -6.244e-7, 5.312e-7
0.100, -1.156e-6, -6.238e-7, 5.324e-7
0.099, -1.149e-6, -6.201e-7, 5.291e-7
0.098, -1.149e-6, -6.195e-7, 5.294e-7
0.097, -1.147e-6, -6.192e-7, 5.276e-7
0.096, -1.142e-6, -6.177e-7, 5.245e-7
0.095, -1.142e-6, -6.186e-7, 5.230e-7
0.094, -1.139e-6, -6.159e-7, 5.230e-7
0.093, -1.139e-6, -6.156e-7, 5.230e-7
0.092, -1.137e-6, -6.146e-7, 5.224e-7
0.091, -1.131e-6, -6.104e-7, 5.205e-7
0.090, -1.132e-6, -6.122e-7, 5.199e-7
0.089, -1.128e-6, -6.101e-7, 5.181e-7
0.088, -1.129e-6, -6.101e-7, 5.190e-7
0.087, -1.126e-6, -6.085e-7, 5.172e-7
0.086, -1.121e-6, -6.070e-7, 5.141e-7
0.085, -1.120e-6, -6.055e-7, 5.144e-7
0.084, -1.120e-6, -6.055e-7, 5.141e-7
0.083, -1.117e-6, -6.046e-7, 5.126e-7
0.082, -1.113e-6, -6.027e-7, 5.099e-7
0.081, -1.112e-6, -6.015e-7, 5.105e-7
0.080, -1.110e-6, -6.015e-7, 5.089e-7
0.079, -1.109e-6, -6.018e-7, 5.068e-7
0.078, -1.107e-6, -5.994e-7, 5.074e-7
0.077, -1.100e-6, -5.960e-7, 5.038e-7
0.076, -1.103e-6, -5.972e-7, 5.056e-7
0.075, -1.101e-6, -5.957e-7, 5.056e-7
0.074, -1.097e-6, -5.954e-7, 5.016e-7
0.073, -1.097e-6, -5.930e-7, 5.038e-7
0.072, -1.095e-6, -5.921e-7, 5.028e-7
0.071, -1.090e-6, -5.908e-7, 4.995e-7
0.070, -1.090e-6, -5.915e-7, 4.989e-7
0.069, -1.088e-6, -5.890e-7, 4.995e-7
0.068, -1.087e-6, -5.896e-7, 4.970e-7
0.067, -1.087e-6, -5.884e-7, 4.983e-7
0.066, -1.081e-6, -5.860e-7, 4.955e-7
0.065, -1.083e-6, -5.875e-7, 4.952e-7
0.064, -1.081e-6, -5.853e-7, 4.955e-7
0.063, -1.076e-6, -5.838e-7, 4.925e-7
0.062, -1.076e-6, -5.832e-7, 4.928e-7
0.061, -1.074e-6, -5.820e-7, 4.916e-7
0.060, -1.071e-6, -5.799e-7, 4.916e-7
0.059, -1.070e-6, -5.799e-7, 4.903e-7
0.058, -1.069e-6, -5.786e-7, 4.906e-7
0.057, -1.068e-6, -5.786e-7, 4.891e-7
0.056, -1.066e-6, -5.783e-7, 4.873e-7
0.055, -1.065e-6, -5.774e-7, 4.879e-7
0.054, -1.059e-6, -5.734e-7, 4.855e-7
0.053, -1.058e-6, -5.734e-7, 4.848e-7
0.052, -1.059e-6, -5.741e-7, 4.845e-7
0.051, -1.056e-6, -5.710e-7, 4.845e-7
0.050, -1.054e-6, -5.707e-7, 4.833e-7
0.049, -1.052e-6, -5.698e-7, 4.824e-7
0.048, -1.050e-6, -5.695e-7, 4.809e-7
0.047, -1.049e-6, -5.689e-7, 4.806e-7
0.046, -1.048e-6, -5.676e-7, 4.800e-7
0.045, -1.047e-6, -5.667e-7, 4.806e-7
0.044, -1.046e-6, -5.673e-7, 4.787e-7
0.043, -1.046e-6, -5.661e-7, 4.800e-7
0.042, -1.043e-6, -5.634e-7, 4.800e-7
0.041, -1.040e-6, -5.628e-7, 4.775e-7
0.040, -1.040e-6, -5.625e-7, 4.778e-7
0.039, -1.038e-6, -5.603e-7, 4.775e-7
0.038, -1.036e-6, -5.606e-7, 4.751e-7
0.037, -1.034e-6, -5.594e-7, 4.748e-7
0.036, -1.031e-6, -5.570e-7, 4.745e-7
0.035, -1.029e-6, -5.567e-7, 4.726e-7
0.034, -1.029e-6, -5.567e-7, 4.723e-7
0.033, -1.029e-6, -5.554e-7, 4.732e-7
0.032, -1.027e-6, -5.557e-7, 4.708e-7
0.031, -1.024e-6, -5.539e-7, 4.705e-7
0.030, -1.022e-6, -5.527e-7, 4.690e-7
0.029, -1.019e-6, -5.512e-7, 4.678e-7
0.028, -1.018e-6, -5.496e-7, 4.687e-7
0.027, -1.018e-6, -5.493e-7, 4.684e-7
0.026, -1.017e-6, -5.509e-7, 4.665e-7
0.025, -1.013e-6, -5.466e-7, 4.662e-7
0.024, -1.010e-6, -5.451e-7, 4.647e-7
0.023, -1.011e-6, -5.454e-7, 4.653e-7
0.022, -1.010e-6, -5.451e-7, 4.653e-7
0.021, -1.009e-6, -5.432e-7, 4.662e-7
0.020, -1.005e-6, -5.417e-7, 4.635e-7
0.019, -1.007e-6, -5.432e-7, 4.638e-7
0.018, -1.004e-6, -5.411e-7, 4.626e-7
0.017, -1.002e-6, -5.396e-7, 4.623e-7
0.016, -1.003e-6, -5.402e-7, 4.629e-7
0.015, -1.000e-6, -5.390e-7, 4.610e-7
0.014, -9.966e-7, -5.374e-7, 4.592e-7
0.013, -9.982e-7, -5.368e-7, 4.613e-7
0.012, -9.948e-7, -5.362e-7, 4.586e-7
0.011, -9.939e-7, -5.347e-7, 4.592e-7
0.010, -9.930e-7, -5.341e-7, 4.589e-7
0.009, -9.896e-7, -5.326e-7, 4.571e-7
0.008, -9.872e-7, -5.323e-7, 4.549e-7
0.007, -9.893e-7, -5.316e-7, 4.577e-7
0.006, -9.878e-7, -5.298e-7, 4.580e-7
0.005, -9.841e-7, -5.298e-7, 4.543e-7
0.004, -9.841e-7, -5.280e-7, 4.562e-7
0.003, -9.823e-7, -5.286e-7, 4.537e-7
0.002, -9.811e-7, -5.280e-7, 4.531e-7
0.001, -9.802e-7, -5.261e-7, 4.540e-7
-0.000, -9.783e-7, -5.268e-7, 4.516e-7
-0.001, -9.762e-7, -5.246e-7, 4.516e-7
-0.002, -9.783e-7, -5.252e-7, 4.531e-7
-0.003, -9.719e-7, -5.222e-7, 4.497e-7
-0.004, -9.738e-7, -5.222e-7, 4.516e-7
-0.005, -9.713e-7, -5.219e-7, 4.494e-7
-0.006, -9.680e-7, -5.191e-7, 4.488e-7
-0.007, -9.674e-7, -5.194e-7, 4.479e-7
-0.008, -9.677e-7, -5.173e-7, 4.504e-7
-0.009, -9.652e-7, -5.173e-7, 4.479e-7
-0.010, -9.643e-7, -5.167e-7, 4.476e-7
-0.011, -9.652e-7, -5.170e-7, 4.482e-7
-0.012, -9.603e-7, -5.146e-7, 4.458e-7
-0.013, -9.606e-7, -5.146e-7, 4.461e-7
-0.014, -9.609e-7, -5.152e-7, 4.458e-7
-0.015, -9.570e-7, -5.133e-7, 4.436e-7
-0.016, -9.551e-7, -5.124e-7, 4.427e-7
-0.017, -9.555e-7, -5.112e-7, 4.443e-7
-0.018, -9.539e-7, -5.121e-7, 4.418e-7
-0.019, -9.539e-7, -5.109e-7, 4.430e-7
-0.020, -9.527e-7, -5.097e-7, 4.430e-7
-0.021, -9.503e-7, -5.084e-7, 4.418e-7
-0.022, -9.463e-7, -5.075e-7, 4.388e-7
-0.023, -9.518e-7, -5.091e-7, 4.427e-7
-0.024, -9.439e-7, -5.042e-7, 4.397e-7
-0.025, -9.445e-7, -5.066e-7, 4.378e-7
-0.026, -9.432e-7, -5.042e-7, 4.391e-7
-0.027, -9.420e-7, -5.042e-7, 4.378e-7
-0.028, -9.417e-7, -5.033e-7, 4.385e-7
-0.029, -9.384e-7, -5.020e-7, 4.363e-7
-0.030, -9.387e-7, -5.020e-7, 4.366e-7
-0.031, -9.347e-7, -5.011e-7, 4.336e-7
-0.032, -9.323e-7, -4.978e-7, 4.345e-7
-0.033, -9.326e-7, -4.990e-7, 4.336e-7
-0.034, -9.338e-7, -4.999e-7, 4.339e-7
-0.035, -9.313e-7, -4.987e-7, 4.327e-7
-0.036, -9.307e-7, -4.975e-7, 4.333e-7
-0.037, -9.286e-7, -4.962e-7, 4.324e-7
-0.038, -9.240e-7, -4.947e-7, 4.293e-7
-0.039, -9.258e-7, -4.941e-7, 4.317e-7
-0.040, -9.237e-7, -4.932e-7, 4.305e-7
-0.041, -9.231e-7, -4.935e-7, 4.296e-7
-0.042, -9.231e-7, -4.935e-7, 4.296e-7
-0.043, -9.191e-7, -4.911e-7, 4.281e-7
-0.044, -9.194e-7, -4.914e-7, 4.281e-7
-0.045, -9.191e-7, -4.914e-7, 4.278e-7
-0.046, -9.185e-7, -4.904e-7, 4.281e-7
-0.047, -9.152e-7, -4.868e-7, 4.284e-7
-0.048, -9.158e-7, -4.898e-7, 4.259e-7
-0.049, -9.130e-7, -4.889e-7, 4.241e-7
-0.050, -9.091e-7, -4.850e-7, 4.241e-7
