Feb. 28, 2018   11:15:08
Square Wave Voltammetry
File: c:\users\electrochemist\desktop\2018\28022018_unbuffered_9,2\4_e6_9,2_0118_ph4,07_1.txt
Data Source:  Experiment
Instrument Model:  CHI1040A
Header: 
Note: 

Init E (V) = 0.5
Final E (V) = -0.05
Incr E (V) = 0.001
Amplitude (V) = 0.1
Frequency (Hz) = 150
Quiet Time (sec) = 0
Sensitivity (A/V) = 1e-6

Difference:

Forward:

Reverse:

Potential/V, Diff(i/A), For(i/A), Rev(i/A)

0.499, -8.517e-7, -2.042e-7, 6.475e-7
0.498, -1.064e-6, -5.045e-7, 5.593e-7
0.497, -1.053e-6, -5.240e-7, 5.288e-7
0.496, -1.042e-6, -5.280e-7, 5.138e-7
0.495, -1.039e-6, -5.341e-7, 5.050e-7
0.494, -1.033e-6, -5.362e-7, 4.971e-7
0.493, -1.030e-6, -5.405e-7, 4.891e-7
0.492, -1.026e-6, -5.417e-7, 4.845e-7
0.491, -1.023e-6, -5.454e-7, 4.778e-7
0.490, -1.023e-6, -5.460e-7, 4.769e-7
0.489, -1.025e-6, -5.493e-7, 4.754e-7
0.488, -1.024e-6, -5.521e-7, 4.717e-7
0.487, -1.022e-6, -5.521e-7, 4.699e-7
0.486, -1.024e-6, -5.548e-7, 4.687e-7
0.485, -1.023e-6, -5.567e-7, 4.665e-7
0.484, -1.023e-6, -5.591e-7, 4.635e-7
0.483, -1.025e-6, -5.597e-7, 4.650e-7
0.482, -1.026e-6, -5.625e-7, 4.638e-7
0.481, -1.027e-6, -5.649e-7, 4.620e-7
0.480, -1.025e-6, -5.649e-7, 4.601e-7
0.479, -1.026e-6, -5.649e-7, 4.613e-7
0.478, -1.027e-6, -5.667e-7, 4.604e-7
0.477, -1.031e-6, -5.704e-7, 4.610e-7
0.476, -1.032e-6, -5.713e-7, 4.604e-7
0.475, -1.032e-6, -5.737e-7, 4.586e-7
0.474, -1.034e-6, -5.750e-7, 4.595e-7
0.473, -1.034e-6, -5.750e-7, 4.592e-7
0.472, -1.037e-6, -5.786e-7, 4.580e-7
0.471, -1.039e-6, -5.811e-7, 4.583e-7
0.470, -1.041e-6, -5.820e-7, 4.589e-7
0.469, -1.040e-6, -5.826e-7, 4.577e-7
0.468, -1.043e-6, -5.844e-7, 4.583e-7
0.467, -1.045e-6, -5.866e-7, 4.580e-7
0.466, -1.046e-6, -5.875e-7, 4.586e-7
0.465, -1.049e-6, -5.890e-7, 4.598e-7
0.464, -1.050e-6, -5.914e-7, 4.589e-7
0.463, -1.056e-6, -5.957e-7, 4.601e-7
0.462, -1.056e-6, -5.957e-7, 4.601e-7
0.461, -1.058e-6, -5.966e-7, 4.610e-7
0.460, -1.060e-6, -6.000e-7, 4.598e-7
0.459, -1.061e-6, -6.006e-7, 4.607e-7
0.458, -1.065e-6, -6.040e-7, 4.613e-7
0.457, -1.068e-6, -6.067e-7, 4.610e-7
0.456, -1.066e-6, -6.058e-7, 4.604e-7
0.455, -1.072e-6, -6.088e-7, 4.629e-7
0.454, -1.074e-6, -6.119e-7, 4.620e-7
0.453, -1.076e-6, -6.128e-7, 4.629e-7
0.452, -1.076e-6, -6.146e-7, 4.617e-7
0.451, -1.081e-6, -6.174e-7, 4.638e-7
0.450, -1.080e-6, -6.162e-7, 4.635e-7
0.449, -1.084e-6, -6.210e-7, 4.632e-7
0.448, -1.085e-6, -6.204e-7, 4.641e-7
0.447, -1.090e-6, -6.244e-7, 4.653e-7
0.446, -1.091e-6, -6.265e-7, 4.641e-7
0.445, -1.095e-6, -6.275e-7, 4.675e-7
0.444, -1.098e-6, -6.311e-7, 4.668e-7
0.443, -1.100e-6, -6.329e-7, 4.671e-7
0.442, -1.103e-6, -6.336e-7, 4.690e-7
0.441, -1.107e-6, -6.366e-7, 4.708e-7
0.440, -1.107e-6, -6.381e-7, 4.690e-7
0.439, -1.110e-6, -6.381e-7, 4.714e-7
0.438, -1.113e-6, -6.424e-7, 4.708e-7
0.437, -1.115e-6, -6.452e-7, 4.702e-7
0.436, -1.117e-6, -6.455e-7, 4.714e-7
0.435, -1.122e-6, -6.476e-7, 4.742e-7
0.434, -1.125e-6, -6.516e-7, 4.736e-7
0.433, -1.125e-6, -6.510e-7, 4.742e-7
0.432, -1.129e-6, -6.537e-7, 4.754e-7
0.431, -1.135e-6, -6.586e-7, 4.760e-7
0.430, -1.138e-6, -6.583e-7, 4.794e-7
0.429, -1.141e-6, -6.622e-7, 4.790e-7
0.428, -1.141e-6, -6.629e-7, 4.784e-7
0.427, -1.144e-6, -6.659e-7, 4.781e-7
0.426, -1.150e-6, -6.687e-7, 4.812e-7
0.425, -1.150e-6, -6.687e-7, 4.809e-7
0.424, -1.151e-6, -6.699e-7, 4.809e-7
0.423, -1.157e-6, -6.738e-7, 4.830e-7
0.422, -1.160e-6, -6.754e-7, 4.848e-7
0.421, -1.161e-6, -6.775e-7, 4.833e-7
0.420, -1.164e-6, -6.802e-7, 4.833e-7
0.419, -1.168e-6, -6.830e-7, 4.848e-7
0.418, -1.170e-6, -6.833e-7, 4.870e-7
0.417, -1.173e-6, -6.870e-7, 4.858e-7
0.416, -1.179e-6, -6.891e-7, 4.894e-7
0.415, -1.182e-6, -6.918e-7, 4.900e-7
0.414, -1.185e-6, -6.946e-7, 4.906e-7
0.413, -1.187e-6, -6.952e-7, 4.919e-7
0.412, -1.192e-6, -6.976e-7, 4.940e-7
0.411, -1.192e-6, -6.995e-7, 4.928e-7
0.410, -1.198e-6, -7.041e-7, 4.937e-7
0.409, -1.202e-6, -7.056e-7, 4.961e-7
0.408, -1.204e-6, -7.080e-7, 4.955e-7
0.407, -1.207e-6, -7.102e-7, 4.964e-7
0.406, -1.211e-6, -7.117e-7, 4.989e-7
0.405, -1.216e-6, -7.150e-7, 5.007e-7
0.404, -1.215e-6, -7.153e-7, 4.998e-7
0.403, -1.220e-6, -7.181e-7, 5.019e-7
0.402, -1.222e-6, -7.208e-7, 5.013e-7
0.401, -1.227e-6, -7.233e-7, 5.035e-7
0.400, -1.232e-6, -7.260e-7, 5.056e-7
0.399, -1.231e-6, -7.269e-7, 5.041e-7
0.398, -1.238e-6, -7.321e-7, 5.056e-7
0.397, -1.242e-6, -7.333e-7, 5.083e-7
0.396, -1.244e-6, -7.352e-7, 5.083e-7
0.395, -1.244e-6, -7.370e-7, 5.074e-7
0.394, -1.250e-6, -7.379e-7, 5.117e-7
0.393, -1.253e-6, -7.416e-7, 5.117e-7
0.392, -1.258e-6, -7.456e-7, 5.120e-7
0.391, -1.262e-6, -7.456e-7, 5.160e-7
0.390, -1.261e-6, -7.459e-7, 5.148e-7
0.389, -1.266e-6, -7.513e-7, 5.151e-7
0.388, -1.269e-6, -7.523e-7, 5.166e-7
0.387, -1.273e-6, -7.553e-7, 5.175e-7
0.386, -1.275e-6, -7.565e-7, 5.181e-7
0.385, -1.284e-6, -7.611e-7, 5.227e-7
0.384, -1.286e-6, -7.605e-7, 5.251e-7
0.383, -1.285e-6, -7.633e-7, 5.221e-7
0.382, -1.291e-6, -7.657e-7, 5.251e-7
0.381, -1.294e-6, -7.687e-7, 5.251e-7
0.380, -1.296e-6, -7.700e-7, 5.257e-7
0.379, -1.301e-6, -7.724e-7, 5.291e-7
0.378, -1.302e-6, -7.733e-7, 5.285e-7
0.377, -1.307e-6, -7.770e-7, 5.300e-7
0.376, -1.311e-6, -7.791e-7, 5.318e-7
0.375, -1.314e-6, -7.806e-7, 5.334e-7
0.374, -1.318e-6, -7.831e-7, 5.352e-7
0.373, -1.324e-6, -7.871e-7, 5.367e-7
0.372, -1.325e-6, -7.883e-7, 5.370e-7
0.371, -1.328e-6, -7.901e-7, 5.376e-7
0.370, -1.331e-6, -7.913e-7, 5.395e-7
0.369, -1.332e-6, -7.919e-7, 5.398e-7
0.368, -1.338e-6, -7.965e-7, 5.410e-7
0.367, -1.341e-6, -7.968e-7, 5.444e-7
0.366, -1.342e-6, -7.986e-7, 5.437e-7
0.365, -1.345e-6, -8.011e-7, 5.437e-7
0.364, -1.352e-6, -8.044e-7, 5.474e-7
0.363, -1.350e-6, -8.029e-7, 5.468e-7
0.362, -1.357e-6, -8.078e-7, 5.495e-7
0.361, -1.358e-6, -8.066e-7, 5.514e-7
0.360, -1.362e-6, -8.096e-7, 5.523e-7
0.359, -1.367e-6, -8.133e-7, 5.541e-7
0.358, -1.368e-6, -8.130e-7, 5.547e-7
0.357, -1.373e-6, -8.160e-7, 5.566e-7
0.356, -1.374e-6, -8.173e-7, 5.569e-7
0.355, -1.377e-6, -8.179e-7, 5.587e-7
0.354, -1.381e-6, -8.191e-7, 5.620e-7
0.353, -1.384e-6, -8.231e-7, 5.608e-7
0.352, -1.389e-6, -8.258e-7, 5.636e-7
0.351, -1.390e-6, -8.252e-7, 5.651e-7
0.350, -1.394e-6, -8.289e-7, 5.654e-7
0.349, -1.397e-6, -8.292e-7, 5.682e-7
0.348, -1.399e-6, -8.304e-7, 5.682e-7
0.347, -1.404e-6, -8.337e-7, 5.706e-7
0.346, -1.403e-6, -8.331e-7, 5.703e-7
0.345, -1.409e-6, -8.368e-7, 5.721e-7
0.344, -1.410e-6, -8.374e-7, 5.730e-7
0.343, -1.414e-6, -8.402e-7, 5.740e-7
0.342, -1.414e-6, -8.377e-7, 5.764e-7
0.341, -1.421e-6, -8.435e-7, 5.770e-7
0.340, -1.421e-6, -8.417e-7, 5.788e-7
0.339, -1.425e-6, -8.435e-7, 5.813e-7
0.338, -1.424e-6, -8.447e-7, 5.788e-7
0.337, -1.428e-6, -8.450e-7, 5.834e-7
0.336, -1.430e-6, -8.466e-7, 5.837e-7
0.335, -1.433e-6, -8.490e-7, 5.843e-7
0.334, -1.435e-6, -8.481e-7, 5.868e-7
0.333, -1.435e-6, -8.478e-7, 5.874e-7
0.332, -1.440e-6, -8.524e-7, 5.877e-7
0.331, -1.447e-6, -8.557e-7, 5.913e-7
0.330, -1.446e-6, -8.539e-7, 5.920e-7
0.329, -1.448e-6, -8.551e-7, 5.932e-7
0.328, -1.452e-6, -8.557e-7, 5.959e-7
0.327, -1.455e-6, -8.575e-7, 5.974e-7
0.326, -1.453e-6, -8.582e-7, 5.950e-7
0.325, -1.458e-6, -8.588e-7, 5.996e-7
0.324, -1.460e-6, -8.594e-7, 6.005e-7
0.323, -1.463e-6, -8.612e-7, 6.014e-7
0.322, -1.466e-6, -8.621e-7, 6.042e-7
0.321, -1.466e-6, -8.615e-7, 6.045e-7
0.320, -1.467e-6, -8.621e-7, 6.051e-7
0.319, -1.472e-6, -8.633e-7, 6.087e-7
0.318, -1.471e-6, -8.640e-7, 6.066e-7
0.317, -1.473e-6, -8.652e-7, 6.078e-7
0.316, -1.476e-6, -8.664e-7, 6.093e-7
0.315, -1.475e-6, -8.649e-7, 6.100e-7
0.314, -1.479e-6, -8.661e-7, 6.130e-7
0.313, -1.485e-6, -8.682e-7, 6.167e-7
0.312, -1.480e-6, -8.661e-7, 6.142e-7
0.311, -1.485e-6, -8.685e-7, 6.164e-7
0.310, -1.484e-6, -8.670e-7, 6.173e-7
0.309, -1.486e-6, -8.682e-7, 6.182e-7
0.308, -1.486e-6, -8.688e-7, 6.176e-7
0.307, -1.490e-6, -8.676e-7, 6.225e-7
0.306, -1.491e-6, -8.685e-7, 6.222e-7
0.305, -1.494e-6, -8.701e-7, 6.243e-7
0.304, -1.494e-6, -8.691e-7, 6.246e-7
0.303, -1.493e-6, -8.679e-7, 6.255e-7
0.302, -1.496e-6, -8.704e-7, 6.258e-7
0.301, -1.499e-6, -8.685e-7, 6.307e-7
0.300, -1.500e-6, -8.704e-7, 6.295e-7
0.299, -1.500e-6, -8.698e-7, 6.301e-7
0.298, -1.498e-6, -8.688e-7, 6.292e-7
0.297, -1.500e-6, -8.676e-7, 6.322e-7
0.296, -1.500e-6, -8.679e-7, 6.316e-7
0.295, -1.501e-6, -8.673e-7, 6.341e-7
0.294, -1.503e-6, -8.685e-7, 6.347e-7
0.293, -1.505e-6, -8.691e-7, 6.362e-7
0.292, -1.507e-6, -8.685e-7, 6.386e-7
0.291, -1.506e-6, -8.676e-7, 6.386e-7
0.290, -1.507e-6, -8.682e-7, 6.386e-7
0.289, -1.507e-6, -8.673e-7, 6.402e-7
0.288, -1.507e-6, -8.652e-7, 6.417e-7
0.287, -1.508e-6, -8.646e-7, 6.435e-7
0.286, -1.508e-6, -8.649e-7, 6.429e-7
0.285, -1.512e-6, -8.652e-7, 6.466e-7
0.284, -1.509e-6, -8.658e-7, 6.429e-7
0.283, -1.509e-6, -8.630e-7, 6.463e-7
0.282, -1.508e-6, -8.627e-7, 6.457e-7
0.281, -1.511e-6, -8.640e-7, 6.466e-7
0.280, -1.510e-6, -8.618e-7, 6.478e-7
0.279, -1.511e-6, -8.615e-7, 6.496e-7
0.278, -1.510e-6, -8.600e-7, 6.502e-7
0.277, -1.510e-6, -8.603e-7, 6.499e-7
0.276, -1.510e-6, -8.588e-7, 6.508e-7
0.275, -1.510e-6, -8.588e-7, 6.508e-7
0.274, -1.511e-6, -8.582e-7, 6.524e-7
0.273, -1.509e-6, -8.554e-7, 6.539e-7
0.272, -1.510e-6, -8.557e-7, 6.542e-7
0.271, -1.512e-6, -8.548e-7, 6.576e-7
0.270, -1.509e-6, -8.524e-7, 6.563e-7
0.269, -1.509e-6, -8.521e-7, 6.573e-7
0.268, -1.510e-6, -8.511e-7, 6.588e-7
0.267, -1.509e-6, -8.490e-7, 6.600e-7
0.266, -1.507e-6, -8.496e-7, 6.573e-7
0.265, -1.510e-6, -8.481e-7, 6.615e-7
0.264, -1.508e-6, -8.475e-7, 6.609e-7
0.263, -1.506e-6, -8.463e-7, 6.594e-7
0.262, -1.505e-6, -8.423e-7, 6.624e-7
0.261, -1.509e-6, -8.459e-7, 6.628e-7
0.260, -1.504e-6, -8.426e-7, 6.609e-7
0.259, -1.502e-6, -8.405e-7, 6.615e-7
0.258, -1.503e-6, -8.392e-7, 6.640e-7
0.257, -1.499e-6, -8.392e-7, 6.600e-7
0.256, -1.500e-6, -8.359e-7, 6.646e-7
0.255, -1.496e-6, -8.331e-7, 6.628e-7
0.254, -1.496e-6, -8.350e-7, 6.615e-7
0.253, -1.496e-6, -8.313e-7, 6.646e-7
0.252, -1.496e-6, -8.301e-7, 6.655e-7
0.251, -1.495e-6, -8.301e-7, 6.649e-7
0.250, -1.494e-6, -8.276e-7, 6.667e-7
0.249, -1.491e-6, -8.264e-7, 6.649e-7
0.248, -1.491e-6, -8.264e-7, 6.646e-7
0.247, -1.490e-6, -8.240e-7, 6.658e-7
0.246, -1.489e-6, -8.218e-7, 6.667e-7
0.245, -1.486e-6, -8.231e-7, 6.631e-7
0.244, -1.486e-6, -8.200e-7, 6.661e-7
0.243, -1.484e-6, -8.182e-7, 6.661e-7
0.242, -1.484e-6, -8.188e-7, 6.649e-7
0.241, -1.482e-6, -8.157e-7, 6.664e-7
0.240, -1.480e-6, -8.136e-7, 6.661e-7
0.239, -1.473e-6, -8.096e-7, 6.637e-7
0.238, -1.478e-6, -8.106e-7, 6.673e-7
0.237, -1.475e-6, -8.084e-7, 6.667e-7
0.236, -1.473e-6, -8.087e-7, 6.646e-7
0.235, -1.470e-6, -8.038e-7, 6.661e-7
0.234, -1.468e-6, -8.023e-7, 6.661e-7
0.233, -1.467e-6, -8.017e-7, 6.649e-7
0.232, -1.466e-6, -8.008e-7, 6.649e-7
0.231, -1.466e-6, -7.990e-7, 6.667e-7
0.230, -1.461e-6, -7.974e-7, 6.640e-7
0.229, -1.459e-6, -7.935e-7, 6.652e-7
0.228, -1.458e-6, -7.941e-7, 6.640e-7
0.227, -1.455e-6, -7.919e-7, 6.628e-7
0.226, -1.455e-6, -7.904e-7, 6.649e-7
0.225, -1.452e-6, -7.889e-7, 6.628e-7
0.224, -1.452e-6, -7.898e-7, 6.621e-7
0.223, -1.450e-6, -7.858e-7, 6.640e-7
0.222, -1.444e-6, -7.825e-7, 6.615e-7
0.221, -1.446e-6, -7.840e-7, 6.618e-7
0.220, -1.444e-6, -7.810e-7, 6.634e-7
0.219, -1.441e-6, -7.794e-7, 6.615e-7
0.218, -1.438e-6, -7.770e-7, 6.609e-7
0.217, -1.435e-6, -7.742e-7, 6.609e-7
0.216, -1.431e-6, -7.718e-7, 6.588e-7
0.215, -1.428e-6, -7.712e-7, 6.570e-7
0.214, -1.429e-6, -7.694e-7, 6.597e-7
0.213, -1.425e-6, -7.675e-7, 6.573e-7
0.212, -1.421e-6, -7.678e-7, 6.533e-7
0.211, -1.424e-6, -7.660e-7, 6.579e-7
0.210, -1.420e-6, -7.642e-7, 6.560e-7
0.209, -1.419e-6, -7.633e-7, 6.554e-7
0.208, -1.416e-6, -7.602e-7, 6.557e-7
0.207, -1.413e-6, -7.590e-7, 6.545e-7
0.206, -1.409e-6, -7.568e-7, 6.521e-7
0.205, -1.409e-6, -7.550e-7, 6.536e-7
0.204, -1.405e-6, -7.532e-7, 6.515e-7
0.203, -1.402e-6, -7.523e-7, 6.499e-7
0.202, -1.401e-6, -7.507e-7, 6.505e-7
0.201, -1.397e-6, -7.483e-7, 6.487e-7
0.200, -1.393e-6, -7.462e-7, 6.472e-7
0.199, -1.392e-6, -7.437e-7, 6.484e-7
0.198, -1.388e-6, -7.428e-7, 6.454e-7
0.197, -1.386e-6, -7.419e-7, 6.444e-7
0.196, -1.386e-6, -7.395e-7, 6.463e-7
0.195, -1.381e-6, -7.373e-7, 6.438e-7
0.194, -1.381e-6, -7.388e-7, 6.423e-7
0.193, -1.379e-6, -7.364e-7, 6.426e-7
0.192, -1.376e-6, -7.352e-7, 6.408e-7
0.191, -1.370e-6, -7.321e-7, 6.377e-7
0.190, -1.369e-6, -7.297e-7, 6.393e-7
0.189, -1.365e-6, -7.269e-7, 6.377e-7
0.188, -1.364e-6, -7.285e-7, 6.359e-7
0.187, -1.360e-6, -7.245e-7, 6.359e-7
0.186, -1.355e-6, -7.224e-7, 6.325e-7
0.185, -1.356e-6, -7.221e-7, 6.338e-7
0.184, -1.353e-6, -7.202e-7, 6.325e-7
0.183, -1.352e-6, -7.190e-7, 6.325e-7
0.182, -1.348e-6, -7.184e-7, 6.301e-7
0.181, -1.344e-6, -7.153e-7, 6.286e-7
0.180, -1.342e-6, -7.138e-7, 6.280e-7
0.179, -1.338e-6, -7.141e-7, 6.240e-7
0.178, -1.336e-6, -7.108e-7, 6.249e-7
0.177, -1.334e-6, -7.102e-7, 6.243e-7
0.176, -1.333e-6, -7.095e-7, 6.231e-7
0.175, -1.330e-6, -7.071e-7, 6.234e-7
0.174, -1.326e-6, -7.053e-7, 6.209e-7
0.173, -1.325e-6, -7.059e-7, 6.194e-7
0.172, -1.320e-6, -7.013e-7, 6.185e-7
0.171, -1.316e-6, -7.007e-7, 6.151e-7
0.170, -1.315e-6, -6.998e-7, 6.155e-7
0.169, -1.313e-6, -6.986e-7, 6.145e-7
0.168, -1.311e-6, -6.986e-7, 6.121e-7
0.167, -1.306e-6, -6.958e-7, 6.103e-7
0.166, -1.303e-6, -6.928e-7, 6.100e-7
0.165, -1.299e-6, -6.918e-7, 6.075e-7
0.164, -1.299e-6, -6.915e-7, 6.072e-7
0.163, -1.295e-6, -6.882e-7, 6.072e-7
0.162, -1.289e-6, -6.864e-7, 6.029e-7
0.161, -1.289e-6, -6.888e-7, 6.005e-7
0.160, -1.288e-6, -6.851e-7, 6.032e-7
0.159, -1.284e-6, -6.851e-7, 5.990e-7
0.158, -1.284e-6, -6.848e-7, 5.993e-7
0.157, -1.281e-6, -6.830e-7, 5.981e-7
0.156, -1.274e-6, -6.793e-7, 5.947e-7
0.155, -1.274e-6, -6.812e-7, 5.926e-7
0.154, -1.269e-6, -6.754e-7, 5.935e-7
0.153, -1.267e-6, -6.738e-7, 5.932e-7
0.152, -1.265e-6, -6.754e-7, 5.895e-7
0.151, -1.266e-6, -6.748e-7, 5.910e-7
0.150, -1.258e-6, -6.720e-7, 5.862e-7
0.149, -1.257e-6, -6.714e-7, 5.855e-7
0.148, -1.255e-6, -6.699e-7, 5.846e-7
0.147, -1.253e-6, -6.702e-7, 5.828e-7
0.146, -1.249e-6, -6.671e-7, 5.822e-7
0.145, -1.246e-6, -6.653e-7, 5.810e-7
0.144, -1.240e-6, -6.632e-7, 5.773e-7
0.143, -1.242e-6, -6.644e-7, 5.779e-7
0.142, -1.239e-6, -6.622e-7, 5.764e-7
0.141, -1.236e-6, -6.610e-7, 5.752e-7
0.140, -1.235e-6, -6.601e-7, 5.746e-7
0.139, -1.230e-6, -6.574e-7, 5.724e-7
0.138, -1.231e-6, -6.589e-7, 5.718e-7
0.137, -1.226e-6, -6.568e-7, 5.688e-7
0.136, -1.223e-6, -6.546e-7, 5.685e-7
0.135, -1.218e-6, -6.525e-7, 5.657e-7
0.134, -1.218e-6, -6.537e-7, 5.639e-7
0.133, -1.215e-6, -6.503e-7, 5.642e-7
0.132, -1.212e-6, -6.497e-7, 5.620e-7
0.131, -1.211e-6, -6.497e-7, 5.617e-7
0.130, -1.210e-6, -6.476e-7, 5.620e-7
0.129, -1.204e-6, -6.467e-7, 5.572e-7
0.128, -1.199e-6, -6.455e-7, 5.538e-7
0.127, -1.201e-6, -6.449e-7, 5.559e-7
0.126, -1.198e-6, -6.433e-7, 5.544e-7
0.125, -1.194e-6, -6.427e-7, 5.511e-7
0.124, -1.195e-6, -6.415e-7, 5.535e-7
0.123, -1.190e-6, -6.415e-7, 5.489e-7
0.122, -1.190e-6, -6.409e-7, 5.495e-7
0.121, -1.182e-6, -6.351e-7, 5.468e-7
0.120, -1.183e-6, -6.372e-7, 5.459e-7
0.119, -1.183e-6, -6.378e-7, 5.453e-7
0.118, -1.177e-6, -6.333e-7, 5.434e-7
0.117, -1.173e-6, -6.330e-7, 5.401e-7
0.116, -1.173e-6, -6.323e-7, 5.407e-7
0.115, -1.174e-6, -6.323e-7, 5.416e-7
0.114, -1.168e-6, -6.302e-7, 5.376e-7
0.113, -1.165e-6, -6.299e-7, 5.355e-7
0.112, -1.166e-6, -6.278e-7, 5.382e-7
0.111, -1.160e-6, -6.268e-7, 5.334e-7
0.110, -1.160e-6, -6.262e-7, 5.334e-7
0.109, -1.157e-6, -6.244e-7, 5.324e-7
0.108, -1.152e-6, -6.220e-7, 5.300e-7
0.107, -1.153e-6, -6.229e-7, 5.306e-7
0.106, -1.150e-6, -6.217e-7, 5.279e-7
0.105, -1.148e-6, -6.214e-7, 5.270e-7
0.104, -1.148e-6, -6.207e-7, 5.276e-7
0.103, -1.146e-6, -6.198e-7, 5.260e-7
0.102, -1.144e-6, -6.195e-7, 5.248e-7
0.101, -1.142e-6, -6.189e-7, 5.230e-7
0.100, -1.138e-6, -6.153e-7, 5.224e-7
0.099, -1.136e-6, -6.156e-7, 5.205e-7
0.098, -1.133e-6, -6.149e-7, 5.184e-7
0.097, -1.132e-6, -6.122e-7, 5.196e-7
0.096, -1.134e-6, -6.137e-7, 5.199e-7
0.095, -1.130e-6, -6.131e-7, 5.172e-7
0.094, -1.125e-6, -6.095e-7, 5.157e-7
0.093, -1.123e-6, -6.101e-7, 5.126e-7
0.092, -1.123e-6, -6.088e-7, 5.138e-7
0.091, -1.121e-6, -6.073e-7, 5.132e-7
0.090, -1.116e-6, -6.052e-7, 5.111e-7
0.089, -1.115e-6, -6.049e-7, 5.105e-7
0.088, -1.115e-6, -6.040e-7, 5.111e-7
0.087, -1.110e-6, -6.037e-7, 5.065e-7
0.086, -1.112e-6, -6.034e-7, 5.083e-7
0.085, -1.110e-6, -6.015e-7, 5.080e-7
0.084, -1.105e-6, -6.012e-7, 5.035e-7
0.083, -1.106e-6, -5.994e-7, 5.062e-7
0.082, -1.100e-6, -5.969e-7, 5.035e-7
0.081, -1.100e-6, -6.000e-7, 5.004e-7
0.080, -1.101e-6, -5.979e-7, 5.028e-7
0.079, -1.095e-6, -5.954e-7, 4.992e-7
0.078, -1.095e-6, -5.960e-7, 4.989e-7
0.077, -1.094e-6, -5.948e-7, 4.992e-7
0.076, -1.092e-6, -5.924e-7, 4.992e-7
0.075, -1.091e-6, -5.933e-7, 4.980e-7
0.074, -1.091e-6, -5.930e-7, 4.977e-7
0.073, -1.086e-6, -5.902e-7, 4.961e-7
0.072, -1.083e-6, -5.896e-7, 4.931e-7
0.071, -1.085e-6, -5.890e-7, 4.958e-7
0.070, -1.081e-6, -5.875e-7, 4.940e-7
0.069, -1.080e-6, -5.881e-7, 4.919e-7
0.068, -1.078e-6, -5.853e-7, 4.925e-7
0.067, -1.075e-6, -5.841e-7, 4.906e-7
0.066, -1.076e-6, -5.869e-7, 4.888e-7
0.065, -1.074e-6, -5.850e-7, 4.888e-7
0.064, -1.071e-6, -5.817e-7, 4.897e-7
0.063, -1.067e-6, -5.814e-7, 4.861e-7
0.062, -1.069e-6, -5.823e-7, 4.870e-7
0.061, -1.065e-6, -5.777e-7, 4.873e-7
0.060, -1.065e-6, -5.795e-7, 4.855e-7
0.059, -1.063e-6, -5.789e-7, 4.845e-7
0.058, -1.059e-6, -5.756e-7, 4.836e-7
0.057, -1.060e-6, -5.768e-7, 4.827e-7
0.056, -1.058e-6, -5.753e-7, 4.830e-7
0.055, -1.054e-6, -5.734e-7, 4.809e-7
0.054, -1.054e-6, -5.734e-7, 4.809e-7
0.053, -1.053e-6, -5.738e-7, 4.797e-7
0.052, -1.051e-6, -5.722e-7, 4.790e-7
0.051, -1.048e-6, -5.698e-7, 4.781e-7
0.050, -1.050e-6, -5.701e-7, 4.800e-7
0.049, -1.048e-6, -5.689e-7, 4.790e-7
0.048, -1.043e-6, -5.676e-7, 4.754e-7
0.047, -1.045e-6, -5.670e-7, 4.778e-7
0.046, -1.043e-6, -5.658e-7, 4.772e-7
0.045, -1.042e-6, -5.649e-7, 4.769e-7
0.044, -1.039e-6, -5.655e-7, 4.739e-7
0.043, -1.037e-6, -5.622e-7, 4.748e-7
0.042, -1.036e-6, -5.634e-7, 4.723e-7
0.041, -1.039e-6, -5.643e-7, 4.751e-7
0.040, -1.033e-6, -5.609e-7, 4.720e-7
0.039, -1.031e-6, -5.606e-7, 4.705e-7
0.038, -1.029e-6, -5.582e-7, 4.711e-7
0.037, -1.030e-6, -5.594e-7, 4.702e-7
0.036, -1.024e-6, -5.564e-7, 4.678e-7
0.035, -1.029e-6, -5.576e-7, 4.717e-7
0.034, -1.025e-6, -5.570e-7, 4.681e-7
0.033, -1.025e-6, -5.564e-7, 4.684e-7
0.032, -1.022e-6, -5.548e-7, 4.671e-7
0.031, -1.022e-6, -5.536e-7, 4.684e-7
0.030, -1.017e-6, -5.533e-7, 4.641e-7
0.029, -1.020e-6, -5.518e-7, 4.678e-7
0.028, -1.016e-6, -5.496e-7, 4.662e-7
0.027, -1.015e-6, -5.487e-7, 4.662e-7
0.026, -1.014e-6, -5.499e-7, 4.641e-7
0.025, -1.013e-6, -5.484e-7, 4.650e-7
0.024, -1.011e-6, -5.490e-7, 4.623e-7
0.023, -1.009e-6, -5.457e-7, 4.629e-7
0.022, -1.010e-6, -5.460e-7, 4.638e-7
0.021, -1.006e-6, -5.460e-7, 4.604e-7
0.020, -1.008e-6, -5.448e-7, 4.632e-7
0.019, -1.003e-6, -5.429e-7, 4.601e-7
0.018, -1.004e-6, -5.435e-7, 4.601e-7
0.017, -1.003e-6, -5.426e-7, 4.601e-7
0.016, -9.985e-7, -5.393e-7, 4.592e-7
0.015, -1.001e-6, -5.411e-7, 4.595e-7
0.014, -9.988e-7, -5.399e-7, 4.589e-7
0.013, -9.948e-7, -5.368e-7, 4.580e-7
0.012, -9.948e-7, -5.390e-7, 4.559e-7
0.011, -9.945e-7, -5.371e-7, 4.574e-7
0.010, -9.924e-7, -5.356e-7, 4.568e-7
0.009, -9.915e-7, -5.368e-7, 4.546e-7
0.008, -9.905e-7, -5.347e-7, 4.559e-7
0.007, -9.878e-7, -5.319e-7, 4.559e-7
0.006, -9.857e-7, -5.329e-7, 4.528e-7
0.005, -9.863e-7, -5.319e-7, 4.543e-7
0.004, -9.835e-7, -5.289e-7, 4.546e-7
0.003, -9.814e-7, -5.304e-7, 4.510e-7
0.002, -9.841e-7, -5.301e-7, 4.540e-7
0.001, -9.786e-7, -5.271e-7, 4.516e-7
-0.000, -9.783e-7, -5.283e-7, 4.501e-7
-0.001, -9.753e-7, -5.252e-7, 4.501e-7
-0.002, -9.759e-7, -5.255e-7, 4.504e-7
-0.003, -9.738e-7, -5.252e-7, 4.485e-7
-0.004, -9.747e-7, -5.249e-7, 4.497e-7
-0.005, -9.719e-7, -5.240e-7, 4.479e-7
-0.006, -9.719e-7, -5.243e-7, 4.476e-7
-0.007, -9.722e-7, -5.234e-7, 4.488e-7
-0.008, -9.661e-7, -5.197e-7, 4.464e-7
-0.009, -9.689e-7, -5.219e-7, 4.470e-7
-0.010, -9.670e-7, -5.203e-7, 4.467e-7
-0.011, -9.664e-7, -5.182e-7, 4.482e-7
-0.012, -9.625e-7, -5.179e-7, 4.446e-7
-0.013, -9.640e-7, -5.188e-7, 4.452e-7
-0.014, -9.594e-7, -5.158e-7, 4.436e-7
-0.015, -9.576e-7, -5.164e-7, 4.412e-7
-0.016, -9.600e-7, -5.149e-7, 4.452e-7
-0.017, -9.570e-7, -5.130e-7, 4.440e-7
-0.018, -9.548e-7, -5.142e-7, 4.406e-7
-0.019, -9.555e-7, -5.136e-7, 4.418e-7
-0.020, -9.545e-7, -5.115e-7, 4.430e-7
-0.021, -9.527e-7, -5.124e-7, 4.403e-7
-0.022, -9.518e-7, -5.100e-7, 4.418e-7
-0.023, -9.475e-7, -5.088e-7, 4.388e-7
-0.024, -9.481e-7, -5.106e-7, 4.375e-7
-0.025, -9.493e-7, -5.097e-7, 4.397e-7
-0.026, -9.435e-7, -5.066e-7, 4.369e-7
-0.027, -9.420e-7, -5.069e-7, 4.351e-7
-0.028, -9.426e-7, -5.054e-7, 4.372e-7
-0.029, -9.426e-7, -5.048e-7, 4.378e-7
-0.030, -9.396e-7, -5.054e-7, 4.342e-7
-0.031, -9.426e-7, -5.054e-7, 4.372e-7
-0.032, -9.393e-7, -5.030e-7, 4.363e-7
-0.033, -9.368e-7, -5.020e-7, 4.348e-7
-0.034, -9.362e-7, -5.023e-7, 4.339e-7
-0.035, -9.329e-7, -4.996e-7, 4.333e-7
-0.036, -9.316e-7, -5.008e-7, 4.308e-7
-0.037, -9.344e-7, -5.002e-7, 4.342e-7
-0.038, -9.313e-7, -4.987e-7, 4.327e-7
-0.039, -9.301e-7, -4.993e-7, 4.308e-7
-0.040, -9.271e-7, -4.962e-7, 4.308e-7
-0.041, -9.271e-7, -4.962e-7, 4.308e-7
-0.042, -9.280e-7, -4.978e-7, 4.302e-7
-0.043, -9.268e-7, -4.965e-7, 4.302e-7
-0.044, -9.234e-7, -4.938e-7, 4.296e-7
-0.045, -9.222e-7, -4.944e-7, 4.278e-7
-0.046, -9.210e-7, -4.923e-7, 4.287e-7
-0.047, -9.185e-7, -4.920e-7, 4.266e-7
-0.048, -9.182e-7, -4.929e-7, 4.253e-7
-0.049, -9.179e-7, -4.911e-7, 4.269e-7
-0.050, -9.136e-7, -4.889e-7, 4.247e-7
