Mar. 20, 2018   11:36:30
Square Wave Voltammetry
File: c:\users\electrochemist\desktop\2018\20032018_unbufarray_unpap\4_g4_ph4,04_3.txt
Data Source:  Experiment
Instrument Model:  CHI1040A
Header: 
Note: 

Init E (V) = 0.7
Final E (V) = -0.4
Incr E (V) = 0.001
Amplitude (V) = 0.1
Frequency (Hz) = 152
Quiet Time (sec) = 2
Sensitivity (A/V) = 1e-6

Difference:

Forward:

Reverse:

Potential/V, Diff(i/A), For(i/A), Rev(i/A)

0.699, -7.684e-7, -2.198e-7, 5.486e-7
0.698, -9.600e-7, -4.614e-7, 4.986e-7
0.697, -9.695e-7, -4.764e-7, 4.931e-7
0.696, -9.667e-7, -4.758e-7, 4.910e-7
0.695, -9.695e-7, -4.816e-7, 4.879e-7
0.694, -9.670e-7, -4.813e-7, 4.858e-7
0.693, -9.649e-7, -4.807e-7, 4.842e-7
0.692, -9.649e-7, -4.831e-7, 4.818e-7
0.691, -9.652e-7, -4.822e-7, 4.830e-7
0.690, -9.631e-7, -4.825e-7, 4.806e-7
0.689, -9.640e-7, -4.843e-7, 4.797e-7
0.688, -9.619e-7, -4.810e-7, 4.809e-7
0.687, -9.619e-7, -4.843e-7, 4.775e-7
0.686, -9.625e-7, -4.846e-7, 4.778e-7
0.685, -9.616e-7, -4.822e-7, 4.794e-7
0.684, -9.612e-7, -4.846e-7, 4.766e-7
0.683, -9.619e-7, -4.837e-7, 4.781e-7
0.682, -9.606e-7, -4.831e-7, 4.775e-7
0.681, -9.603e-7, -4.846e-7, 4.757e-7
0.680, -9.585e-7, -4.849e-7, 4.736e-7
0.679, -9.597e-7, -4.828e-7, 4.769e-7
0.678, -9.585e-7, -4.846e-7, 4.739e-7
0.677, -9.597e-7, -4.859e-7, 4.739e-7
0.676, -9.594e-7, -4.840e-7, 4.754e-7
0.675, -9.567e-7, -4.852e-7, 4.714e-7
0.674, -9.609e-7, -4.865e-7, 4.745e-7
0.673, -9.591e-7, -4.852e-7, 4.739e-7
0.672, -9.582e-7, -4.862e-7, 4.720e-7
0.671, -9.588e-7, -4.865e-7, 4.723e-7
0.670, -9.579e-7, -4.862e-7, 4.717e-7
0.669, -9.567e-7, -4.859e-7, 4.708e-7
0.668, -9.564e-7, -4.862e-7, 4.702e-7
0.667, -9.567e-7, -4.868e-7, 4.699e-7
0.666, -9.585e-7, -4.880e-7, 4.705e-7
0.665, -9.524e-7, -4.825e-7, 4.699e-7
0.664, -9.539e-7, -4.862e-7, 4.678e-7
0.663, -9.564e-7, -4.874e-7, 4.690e-7
0.662, -9.533e-7, -4.843e-7, 4.690e-7
0.661, -9.564e-7, -4.880e-7, 4.684e-7
0.660, -9.594e-7, -4.880e-7, 4.714e-7
0.659, -9.536e-7, -4.856e-7, 4.681e-7
0.658, -9.554e-7, -4.880e-7, 4.675e-7
0.657, -9.576e-7, -4.886e-7, 4.690e-7
0.656, -9.558e-7, -4.874e-7, 4.684e-7
0.655, -9.576e-7, -4.901e-7, 4.675e-7
0.654, -9.591e-7, -4.889e-7, 4.702e-7
0.653, -9.551e-7, -4.886e-7, 4.665e-7
0.652, -9.561e-7, -4.889e-7, 4.671e-7
0.651, -9.588e-7, -4.892e-7, 4.696e-7
0.650, -9.545e-7, -4.880e-7, 4.665e-7
0.649, -9.573e-7, -4.910e-7, 4.662e-7
0.648, -9.585e-7, -4.895e-7, 4.690e-7
0.647, -9.515e-7, -4.883e-7, 4.632e-7
0.646, -9.567e-7, -4.901e-7, 4.665e-7
0.645, -9.555e-7, -4.892e-7, 4.662e-7
0.644, -9.570e-7, -4.917e-7, 4.653e-7
0.643, -9.588e-7, -4.920e-7, 4.668e-7
0.642, -9.573e-7, -4.907e-7, 4.665e-7
0.641, -9.564e-7, -4.920e-7, 4.644e-7
0.640, -9.570e-7, -4.917e-7, 4.653e-7
0.639, -9.591e-7, -4.914e-7, 4.678e-7
0.638, -9.576e-7, -4.929e-7, 4.647e-7
0.637, -9.597e-7, -4.904e-7, 4.693e-7
0.636, -9.555e-7, -4.904e-7, 4.650e-7
0.635, -9.619e-7, -4.944e-7, 4.675e-7
0.634, -9.600e-7, -4.929e-7, 4.671e-7
0.633, -9.564e-7, -4.917e-7, 4.647e-7
0.632, -9.609e-7, -4.965e-7, 4.644e-7
0.631, -9.585e-7, -4.923e-7, 4.662e-7
0.630, -9.582e-7, -4.929e-7, 4.653e-7
0.629, -9.609e-7, -4.959e-7, 4.650e-7
0.628, -9.622e-7, -4.941e-7, 4.681e-7
0.627, -9.616e-7, -4.944e-7, 4.671e-7
0.626, -9.649e-7, -4.987e-7, 4.662e-7
0.625, -9.643e-7, -4.959e-7, 4.684e-7
0.624, -9.612e-7, -4.962e-7, 4.650e-7
0.623, -9.652e-7, -4.972e-7, 4.681e-7
0.622, -9.625e-7, -4.968e-7, 4.656e-7
0.621, -9.646e-7, -4.978e-7, 4.668e-7
0.620, -9.637e-7, -4.978e-7, 4.659e-7
0.619, -9.649e-7, -4.984e-7, 4.665e-7
0.618, -9.664e-7, -4.993e-7, 4.671e-7
0.617, -9.655e-7, -4.978e-7, 4.678e-7
0.616, -9.658e-7, -4.999e-7, 4.659e-7
0.615, -9.686e-7, -5.005e-7, 4.681e-7
0.614, -9.661e-7, -4.984e-7, 4.678e-7
0.613, -9.692e-7, -5.020e-7, 4.671e-7
0.612, -9.683e-7, -5.014e-7, 4.668e-7
0.611, -9.692e-7, -4.999e-7, 4.693e-7
0.610, -9.655e-7, -5.005e-7, 4.650e-7
0.609, -9.725e-7, -5.033e-7, 4.693e-7
0.608, -9.713e-7, -5.026e-7, 4.687e-7
0.607, -9.674e-7, -5.017e-7, 4.656e-7
0.606, -9.698e-7, -5.017e-7, 4.681e-7
0.605, -9.716e-7, -5.033e-7, 4.684e-7
0.604, -9.707e-7, -5.026e-7, 4.681e-7
0.603, -9.741e-7, -5.051e-7, 4.690e-7
0.602, -9.750e-7, -5.048e-7, 4.702e-7
0.601, -9.713e-7, -5.029e-7, 4.684e-7
0.600, -9.762e-7, -5.060e-7, 4.702e-7
0.599, -9.735e-7, -5.054e-7, 4.681e-7
0.598, -9.741e-7, -5.066e-7, 4.675e-7
0.597, -9.759e-7, -5.054e-7, 4.705e-7
0.596, -9.756e-7, -5.078e-7, 4.678e-7
0.595, -9.777e-7, -5.091e-7, 4.687e-7
0.594, -9.774e-7, -5.069e-7, 4.705e-7
0.593, -9.774e-7, -5.091e-7, 4.684e-7
0.592, -9.786e-7, -5.091e-7, 4.696e-7
0.591, -9.780e-7, -5.078e-7, 4.702e-7
0.590, -9.728e-7, -5.066e-7, 4.662e-7
0.589, -9.777e-7, -5.094e-7, 4.684e-7
0.588, -9.793e-7, -5.087e-7, 4.705e-7
0.587, -9.756e-7, -5.094e-7, 4.662e-7
0.586, -9.832e-7, -5.136e-7, 4.696e-7
0.585, -9.793e-7, -5.097e-7, 4.696e-7
0.584, -9.793e-7, -5.115e-7, 4.678e-7
0.583, -9.796e-7, -5.106e-7, 4.690e-7
0.582, -9.814e-7, -5.106e-7, 4.708e-7
0.581, -9.796e-7, -5.112e-7, 4.684e-7
0.580, -9.829e-7, -5.136e-7, 4.693e-7
0.579, -9.835e-7, -5.121e-7, 4.714e-7
0.578, -9.832e-7, -5.142e-7, 4.690e-7
0.577, -9.863e-7, -5.145e-7, 4.717e-7
0.576, -9.841e-7, -5.133e-7, 4.708e-7
0.575, -9.838e-7, -5.145e-7, 4.693e-7
0.574, -9.851e-7, -5.149e-7, 4.702e-7
0.573, -9.829e-7, -5.133e-7, 4.696e-7
0.572, -9.863e-7, -5.149e-7, 4.714e-7
0.571, -9.893e-7, -5.170e-7, 4.723e-7
0.570, -9.875e-7, -5.167e-7, 4.708e-7
0.569, -9.884e-7, -5.164e-7, 4.720e-7
0.568, -9.863e-7, -5.164e-7, 4.699e-7
0.567, -9.884e-7, -5.191e-7, 4.693e-7
0.566, -9.884e-7, -5.179e-7, 4.705e-7
0.565, -9.875e-7, -5.170e-7, 4.705e-7
0.564, -9.884e-7, -5.182e-7, 4.702e-7
0.563, -9.924e-7, -5.200e-7, 4.723e-7
0.562, -9.881e-7, -5.179e-7, 4.702e-7
0.561, -9.902e-7, -5.200e-7, 4.702e-7
0.560, -9.918e-7, -5.194e-7, 4.723e-7
0.559, -9.930e-7, -5.206e-7, 4.723e-7
0.558, -9.951e-7, -5.210e-7, 4.742e-7
0.557, -9.942e-7, -5.210e-7, 4.733e-7
0.556, -9.921e-7, -5.219e-7, 4.702e-7
0.555, -9.979e-7, -5.255e-7, 4.723e-7
0.554, -9.982e-7, -5.246e-7, 4.736e-7
0.553, -9.979e-7, -5.243e-7, 4.736e-7
0.552, -1.001e-6, -5.271e-7, 4.736e-7
0.551, -9.997e-7, -5.246e-7, 4.751e-7
0.550, -9.976e-7, -5.246e-7, 4.729e-7
0.549, -1.003e-6, -5.280e-7, 4.748e-7
0.548, -1.001e-6, -5.249e-7, 4.763e-7
0.547, -1.002e-6, -5.283e-7, 4.733e-7
0.546, -1.006e-6, -5.286e-7, 4.772e-7
0.545, -1.002e-6, -5.264e-7, 4.751e-7
0.544, -1.006e-6, -5.304e-7, 4.754e-7
0.543, -1.007e-6, -5.292e-7, 4.778e-7
0.542, -1.006e-6, -5.295e-7, 4.766e-7
0.541, -1.008e-6, -5.329e-7, 4.754e-7
0.540, -1.008e-6, -5.319e-7, 4.760e-7
0.539, -1.004e-6, -5.298e-7, 4.745e-7
0.538, -1.010e-6, -5.350e-7, 4.751e-7
0.537, -1.010e-6, -5.316e-7, 4.781e-7
0.536, -1.011e-6, -5.326e-7, 4.784e-7
0.535, -1.014e-6, -5.371e-7, 4.769e-7
0.534, -1.015e-6, -5.353e-7, 4.797e-7
0.533, -1.012e-6, -5.341e-7, 4.781e-7
0.532, -1.016e-6, -5.383e-7, 4.775e-7
0.531, -1.017e-6, -5.368e-7, 4.806e-7
0.530, -1.019e-6, -5.387e-7, 4.800e-7
0.529, -1.020e-6, -5.399e-7, 4.806e-7
0.528, -1.019e-6, -5.396e-7, 4.794e-7
0.527, -1.019e-6, -5.396e-7, 4.797e-7
0.526, -1.025e-6, -5.432e-7, 4.821e-7
0.525, -1.022e-6, -5.408e-7, 4.812e-7
0.524, -1.025e-6, -5.429e-7, 4.824e-7
0.523, -1.027e-6, -5.451e-7, 4.818e-7
0.522, -1.024e-6, -5.429e-7, 4.815e-7
0.521, -1.029e-6, -5.466e-7, 4.821e-7
0.520, -1.030e-6, -5.454e-7, 4.842e-7
0.519, -1.029e-6, -5.460e-7, 4.827e-7
0.518, -1.034e-6, -5.490e-7, 4.855e-7
0.517, -1.034e-6, -5.493e-7, 4.848e-7
0.516, -1.034e-6, -5.490e-7, 4.852e-7
0.515, -1.036e-6, -5.515e-7, 4.842e-7
0.514, -1.038e-6, -5.506e-7, 4.876e-7
0.513, -1.036e-6, -5.512e-7, 4.845e-7
0.512, -1.040e-6, -5.545e-7, 4.858e-7
0.511, -1.041e-6, -5.536e-7, 4.876e-7
0.510, -1.041e-6, -5.551e-7, 4.861e-7
0.509, -1.046e-6, -5.560e-7, 4.897e-7
0.508, -1.045e-6, -5.557e-7, 4.888e-7
0.507, -1.043e-6, -5.548e-7, 4.882e-7
0.506, -1.047e-6, -5.567e-7, 4.903e-7
0.505, -1.047e-6, -5.573e-7, 4.897e-7
0.504, -1.052e-6, -5.631e-7, 4.888e-7
0.503, -1.051e-6, -5.600e-7, 4.909e-7
0.502, -1.054e-6, -5.618e-7, 4.919e-7
0.501, -1.053e-6, -5.637e-7, 4.897e-7
0.500, -1.055e-6, -5.615e-7, 4.934e-7
0.499, -1.052e-6, -5.640e-7, 4.876e-7
0.498, -1.059e-6, -5.661e-7, 4.931e-7
0.497, -1.057e-6, -5.640e-7, 4.931e-7
0.496, -1.057e-6, -5.652e-7, 4.916e-7
0.495, -1.060e-6, -5.689e-7, 4.909e-7
0.494, -1.059e-6, -5.664e-7, 4.928e-7
0.493, -1.061e-6, -5.686e-7, 4.922e-7
0.492, -1.066e-6, -5.722e-7, 4.940e-7
0.491, -1.066e-6, -5.710e-7, 4.952e-7
0.490, -1.065e-6, -5.716e-7, 4.934e-7
0.489, -1.070e-6, -5.747e-7, 4.955e-7
0.488, -1.067e-6, -5.713e-7, 4.961e-7
0.487, -1.068e-6, -5.737e-7, 4.943e-7
0.486, -1.073e-6, -5.765e-7, 4.961e-7
0.485, -1.072e-6, -5.744e-7, 4.980e-7
0.484, -1.074e-6, -5.771e-7, 4.964e-7
0.483, -1.077e-6, -5.792e-7, 4.977e-7
0.482, -1.077e-6, -5.783e-7, 4.989e-7
0.481, -1.076e-6, -5.780e-7, 4.977e-7
0.480, -1.081e-6, -5.814e-7, 5.001e-7
0.479, -1.079e-6, -5.808e-7, 4.980e-7
0.478, -1.083e-6, -5.823e-7, 5.004e-7
0.477, -1.083e-6, -5.832e-7, 4.998e-7
0.476, -1.082e-6, -5.829e-7, 4.995e-7
0.475, -1.088e-6, -5.866e-7, 5.016e-7
0.474, -1.088e-6, -5.869e-7, 5.010e-7
0.473, -1.088e-6, -5.866e-7, 5.013e-7
0.472, -1.092e-6, -5.890e-7, 5.032e-7
0.471, -1.091e-6, -5.887e-7, 5.025e-7
0.470, -1.093e-6, -5.911e-7, 5.016e-7
0.469, -1.095e-6, -5.918e-7, 5.032e-7
0.468, -1.095e-6, -5.924e-7, 5.029e-7
0.467, -1.098e-6, -5.939e-7, 5.041e-7
0.466, -1.100e-6, -5.936e-7, 5.062e-7
0.465, -1.102e-6, -5.960e-7, 5.056e-7
0.464, -1.102e-6, -5.982e-7, 5.041e-7
0.463, -1.105e-6, -5.975e-7, 5.074e-7
0.462, -1.100e-6, -5.963e-7, 5.041e-7
0.461, -1.106e-6, -6.003e-7, 5.053e-7
0.460, -1.109e-6, -6.006e-7, 5.086e-7
0.459, -1.110e-6, -6.027e-7, 5.068e-7
0.458, -1.116e-6, -6.073e-7, 5.083e-7
0.457, -1.115e-6, -6.052e-7, 5.099e-7
0.456, -1.114e-6, -6.058e-7, 5.083e-7
0.455, -1.118e-6, -6.098e-7, 5.083e-7
0.454, -1.121e-6, -6.095e-7, 5.111e-7
0.453, -1.121e-6, -6.122e-7, 5.090e-7
0.452, -1.125e-6, -6.134e-7, 5.111e-7
0.451, -1.125e-6, -6.116e-7, 5.132e-7
0.450, -1.127e-6, -6.152e-7, 5.114e-7
0.449, -1.131e-6, -6.171e-7, 5.138e-7
0.448, -1.130e-6, -6.165e-7, 5.132e-7
0.447, -1.134e-6, -6.201e-7, 5.141e-7
0.446, -1.135e-6, -6.186e-7, 5.169e-7
0.445, -1.135e-6, -6.189e-7, 5.160e-7
0.444, -1.138e-6, -6.238e-7, 5.144e-7
0.443, -1.143e-6, -6.235e-7, 5.190e-7
0.442, -1.138e-6, -6.223e-7, 5.160e-7
0.441, -1.145e-6, -6.281e-7, 5.172e-7
0.440, -1.150e-6, -6.287e-7, 5.212e-7
0.439, -1.148e-6, -6.284e-7, 5.196e-7
0.438, -1.151e-6, -6.311e-7, 5.199e-7
0.437, -1.154e-6, -6.323e-7, 5.221e-7
0.436, -1.154e-6, -6.323e-7, 5.221e-7
0.435, -1.158e-6, -6.363e-7, 5.215e-7
0.434, -1.159e-6, -6.351e-7, 5.236e-7
0.433, -1.162e-6, -6.381e-7, 5.236e-7
0.432, -1.166e-6, -6.409e-7, 5.248e-7
0.431, -1.165e-6, -6.400e-7, 5.248e-7
0.430, -1.170e-6, -6.433e-7, 5.270e-7
0.429, -1.170e-6, -6.427e-7, 5.273e-7
0.428, -1.174e-6, -6.458e-7, 5.279e-7
0.427, -1.175e-6, -6.485e-7, 5.270e-7
0.426, -1.179e-6, -6.491e-7, 5.294e-7
0.425, -1.180e-6, -6.503e-7, 5.294e-7
0.424, -1.185e-6, -6.537e-7, 5.312e-7
0.423, -1.186e-6, -6.543e-7, 5.318e-7
0.422, -1.187e-6, -6.552e-7, 5.315e-7
0.421, -1.191e-6, -6.577e-7, 5.331e-7
0.420, -1.193e-6, -6.586e-7, 5.346e-7
0.419, -1.195e-6, -6.607e-7, 5.340e-7
0.418, -1.197e-6, -6.619e-7, 5.349e-7
0.417, -1.200e-6, -6.635e-7, 5.370e-7
0.416, -1.201e-6, -6.650e-7, 5.361e-7
0.415, -1.204e-6, -6.668e-7, 5.376e-7
0.414, -1.205e-6, -6.668e-7, 5.386e-7
0.413, -1.210e-6, -6.711e-7, 5.386e-7
0.412, -1.213e-6, -6.726e-7, 5.407e-7
0.411, -1.213e-6, -6.723e-7, 5.404e-7
0.410, -1.214e-6, -6.754e-7, 5.389e-7
0.409, -1.220e-6, -6.775e-7, 5.425e-7
0.408, -1.219e-6, -6.763e-7, 5.428e-7
0.407, -1.221e-6, -6.802e-7, 5.407e-7
0.406, -1.224e-6, -6.793e-7, 5.450e-7
0.405, -1.226e-6, -6.824e-7, 5.437e-7
0.404, -1.230e-6, -6.857e-7, 5.440e-7
0.403, -1.231e-6, -6.839e-7, 5.474e-7
0.402, -1.233e-6, -6.864e-7, 5.462e-7
0.401, -1.237e-6, -6.888e-7, 5.486e-7
0.400, -1.239e-6, -6.882e-7, 5.508e-7
0.399, -1.240e-6, -6.925e-7, 5.474e-7
0.398, -1.245e-6, -6.940e-7, 5.511e-7
0.397, -1.246e-6, -6.937e-7, 5.526e-7
0.396, -1.247e-6, -6.955e-7, 5.511e-7
0.395, -1.251e-6, -6.989e-7, 5.526e-7
0.394, -1.252e-6, -6.976e-7, 5.544e-7
0.393, -1.254e-6, -7.007e-7, 5.529e-7
0.392, -1.256e-6, -7.019e-7, 5.544e-7
0.391, -1.259e-6, -7.028e-7, 5.559e-7
0.390, -1.262e-6, -7.050e-7, 5.569e-7
0.389, -1.265e-6, -7.065e-7, 5.590e-7
0.388, -1.265e-6, -7.068e-7, 5.587e-7
0.387, -1.270e-6, -7.111e-7, 5.587e-7
0.386, -1.271e-6, -7.114e-7, 5.593e-7
0.385, -1.274e-6, -7.123e-7, 5.617e-7
0.384, -1.276e-6, -7.144e-7, 5.614e-7
0.383, -1.275e-6, -7.138e-7, 5.614e-7
0.382, -1.278e-6, -7.160e-7, 5.617e-7
0.381, -1.281e-6, -7.187e-7, 5.620e-7
0.380, -1.284e-6, -7.187e-7, 5.657e-7
0.379, -1.284e-6, -7.202e-7, 5.636e-7
0.378, -1.289e-6, -7.224e-7, 5.666e-7
0.377, -1.291e-6, -7.236e-7, 5.675e-7
0.376, -1.293e-6, -7.260e-7, 5.669e-7
0.375, -1.294e-6, -7.257e-7, 5.685e-7
0.374, -1.298e-6, -7.279e-7, 5.697e-7
0.373, -1.298e-6, -7.297e-7, 5.682e-7
0.372, -1.301e-6, -7.303e-7, 5.709e-7
0.371, -1.301e-6, -7.297e-7, 5.718e-7
0.370, -1.306e-6, -7.340e-7, 5.721e-7
0.369, -1.309e-6, -7.349e-7, 5.743e-7
0.368, -1.307e-6, -7.343e-7, 5.727e-7
0.367, -1.314e-6, -7.394e-7, 5.743e-7
0.366, -1.313e-6, -7.361e-7, 5.767e-7
0.365, -1.314e-6, -7.379e-7, 5.764e-7
0.364, -1.319e-6, -7.425e-7, 5.767e-7
0.363, -1.323e-6, -7.422e-7, 5.807e-7
0.362, -1.324e-6, -7.440e-7, 5.797e-7
0.361, -1.327e-6, -7.465e-7, 5.810e-7
0.360, -1.327e-6, -7.449e-7, 5.822e-7
0.359, -1.328e-6, -7.483e-7, 5.801e-7
0.358, -1.333e-6, -7.492e-7, 5.834e-7
0.357, -1.333e-6, -7.483e-7, 5.843e-7
0.356, -1.335e-6, -7.510e-7, 5.837e-7
0.355, -1.340e-6, -7.535e-7, 5.868e-7
0.354, -1.339e-6, -7.520e-7, 5.871e-7
0.353, -1.344e-6, -7.556e-7, 5.883e-7
0.352, -1.345e-6, -7.550e-7, 5.901e-7
0.351, -1.345e-6, -7.541e-7, 5.904e-7
0.350, -1.349e-6, -7.599e-7, 5.889e-7
0.349, -1.354e-6, -7.599e-7, 5.938e-7
0.348, -1.352e-6, -7.584e-7, 5.932e-7
0.347, -1.358e-6, -7.639e-7, 5.941e-7
0.346, -1.358e-6, -7.608e-7, 5.971e-7
0.345, -1.356e-6, -7.611e-7, 5.950e-7
0.344, -1.363e-6, -7.663e-7, 5.971e-7
0.343, -1.362e-6, -7.633e-7, 5.990e-7
0.342, -1.364e-6, -7.648e-7, 5.993e-7
0.341, -1.367e-6, -7.690e-7, 5.978e-7
0.340, -1.369e-6, -7.675e-7, 6.017e-7
0.339, -1.370e-6, -7.694e-7, 6.011e-7
0.338, -1.373e-6, -7.706e-7, 6.020e-7
0.337, -1.375e-6, -7.712e-7, 6.039e-7
0.336, -1.373e-6, -7.709e-7, 6.023e-7
0.335, -1.379e-6, -7.724e-7, 6.063e-7
0.334, -1.380e-6, -7.733e-7, 6.066e-7
0.333, -1.383e-6, -7.745e-7, 6.081e-7
0.332, -1.384e-6, -7.745e-7, 6.097e-7
0.331, -1.384e-6, -7.742e-7, 6.097e-7
0.330, -1.386e-6, -7.767e-7, 6.090e-7
0.329, -1.389e-6, -7.770e-7, 6.124e-7
0.328, -1.388e-6, -7.773e-7, 6.109e-7
0.327, -1.391e-6, -7.785e-7, 6.124e-7
0.326, -1.395e-6, -7.788e-7, 6.158e-7
0.325, -1.388e-6, -7.758e-7, 6.121e-7
0.324, -1.399e-6, -7.816e-7, 6.170e-7
0.323, -1.399e-6, -7.800e-7, 6.185e-7
0.322, -1.398e-6, -7.806e-7, 6.173e-7
0.321, -1.401e-6, -7.810e-7, 6.203e-7
0.320, -1.401e-6, -7.810e-7, 6.203e-7
0.319, -1.403e-6, -7.837e-7, 6.197e-7
0.318, -1.405e-6, -7.831e-7, 6.219e-7
0.317, -1.405e-6, -7.813e-7, 6.234e-7
0.316, -1.405e-6, -7.837e-7, 6.212e-7
0.315, -1.408e-6, -7.846e-7, 6.234e-7
0.314, -1.408e-6, -7.822e-7, 6.258e-7
0.313, -1.410e-6, -7.846e-7, 6.252e-7
0.312, -1.412e-6, -7.837e-7, 6.283e-7
0.311, -1.409e-6, -7.831e-7, 6.261e-7
0.310, -1.413e-6, -7.867e-7, 6.267e-7
0.309, -1.415e-6, -7.843e-7, 6.304e-7
0.308, -1.412e-6, -7.837e-7, 6.286e-7
0.307, -1.416e-6, -7.852e-7, 6.307e-7
0.306, -1.419e-6, -7.855e-7, 6.332e-7
0.305, -1.416e-6, -7.840e-7, 6.319e-7
0.304, -1.420e-6, -7.867e-7, 6.332e-7
0.303, -1.418e-6, -7.834e-7, 6.347e-7
0.302, -1.417e-6, -7.843e-7, 6.322e-7
0.301, -1.420e-6, -7.855e-7, 6.341e-7
0.300, -1.419e-6, -7.828e-7, 6.362e-7
0.299, -1.420e-6, -7.840e-7, 6.356e-7
0.298, -1.420e-6, -7.834e-7, 6.368e-7
0.297, -1.420e-6, -7.810e-7, 6.389e-7
0.296, -1.420e-6, -7.840e-7, 6.359e-7
0.295, -1.424e-6, -7.843e-7, 6.393e-7
0.294, -1.422e-6, -7.813e-7, 6.405e-7
0.293, -1.424e-6, -7.837e-7, 6.399e-7
0.292, -1.422e-6, -7.822e-7, 6.402e-7
0.291, -1.422e-6, -7.813e-7, 6.408e-7
0.290, -1.423e-6, -7.822e-7, 6.408e-7
0.289, -1.422e-6, -7.813e-7, 6.411e-7
0.288, -1.424e-6, -7.810e-7, 6.426e-7
0.287, -1.424e-6, -7.810e-7, 6.426e-7
0.286, -1.424e-6, -7.791e-7, 6.444e-7
0.285, -1.424e-6, -7.797e-7, 6.441e-7
0.284, -1.424e-6, -7.788e-7, 6.451e-7
0.283, -1.422e-6, -7.773e-7, 6.451e-7
0.282, -1.424e-6, -7.782e-7, 6.454e-7
0.281, -1.424e-6, -7.767e-7, 6.475e-7
0.280, -1.423e-6, -7.761e-7, 6.469e-7
0.279, -1.422e-6, -7.761e-7, 6.463e-7
0.278, -1.425e-6, -7.758e-7, 6.493e-7
0.277, -1.422e-6, -7.745e-7, 6.478e-7
0.276, -1.423e-6, -7.745e-7, 6.487e-7
0.275, -1.422e-6, -7.727e-7, 6.496e-7
0.274, -1.422e-6, -7.718e-7, 6.502e-7
0.273, -1.424e-6, -7.739e-7, 6.496e-7
0.272, -1.423e-6, -7.715e-7, 6.518e-7
0.271, -1.421e-6, -7.706e-7, 6.499e-7
0.270, -1.421e-6, -7.703e-7, 6.505e-7
0.269, -1.422e-6, -7.697e-7, 6.527e-7
0.268, -1.422e-6, -7.703e-7, 6.518e-7
0.267, -1.421e-6, -7.687e-7, 6.521e-7
0.266, -1.422e-6, -7.675e-7, 6.542e-7
0.265, -1.419e-6, -7.669e-7, 6.521e-7
0.264, -1.423e-6, -7.687e-7, 6.545e-7
0.263, -1.421e-6, -7.663e-7, 6.551e-7
0.262, -1.418e-6, -7.648e-7, 6.536e-7
0.261, -1.419e-6, -7.645e-7, 6.548e-7
0.260, -1.415e-6, -7.605e-7, 6.548e-7
0.259, -1.417e-6, -7.623e-7, 6.542e-7
0.258, -1.418e-6, -7.617e-7, 6.560e-7
0.257, -1.417e-6, -7.602e-7, 6.563e-7
0.256, -1.417e-6, -7.614e-7, 6.557e-7
0.255, -1.417e-6, -7.590e-7, 6.582e-7
0.254, -1.412e-6, -7.565e-7, 6.557e-7
0.253, -1.413e-6, -7.578e-7, 6.554e-7
0.252, -1.415e-6, -7.575e-7, 6.573e-7
0.251, -1.410e-6, -7.538e-7, 6.563e-7
0.250, -1.411e-6, -7.562e-7, 6.551e-7
0.249, -1.411e-6, -7.526e-7, 6.588e-7
0.248, -1.408e-6, -7.504e-7, 6.579e-7
0.247, -1.409e-6, -7.520e-7, 6.573e-7
0.246, -1.411e-6, -7.504e-7, 6.609e-7
0.245, -1.407e-6, -7.492e-7, 6.576e-7
0.244, -1.408e-6, -7.489e-7, 6.588e-7
0.243, -1.407e-6, -7.483e-7, 6.585e-7
0.242, -1.404e-6, -7.468e-7, 6.576e-7
0.241, -1.405e-6, -7.462e-7, 6.591e-7
0.240, -1.403e-6, -7.443e-7, 6.591e-7
0.239, -1.403e-6, -7.446e-7, 6.588e-7
0.238, -1.403e-6, -7.431e-7, 6.594e-7
0.237, -1.402e-6, -7.428e-7, 6.591e-7
0.236, -1.402e-6, -7.425e-7, 6.597e-7
0.235, -1.398e-6, -7.395e-7, 6.588e-7
0.234, -1.397e-6, -7.379e-7, 6.591e-7
0.233, -1.396e-6, -7.379e-7, 6.579e-7
0.232, -1.395e-6, -7.364e-7, 6.588e-7
0.231, -1.392e-6, -7.361e-7, 6.563e-7
0.230, -1.394e-6, -7.349e-7, 6.588e-7
0.229, -1.391e-6, -7.330e-7, 6.582e-7
0.228, -1.388e-6, -7.330e-7, 6.551e-7
0.227, -1.392e-6, -7.330e-7, 6.585e-7
0.226, -1.390e-6, -7.318e-7, 6.579e-7
0.225, -1.388e-6, -7.303e-7, 6.573e-7
0.224, -1.388e-6, -7.291e-7, 6.585e-7
0.223, -1.385e-6, -7.257e-7, 6.588e-7
0.222, -1.382e-6, -7.285e-7, 6.539e-7
0.221, -1.384e-6, -7.269e-7, 6.573e-7
0.220, -1.378e-6, -7.236e-7, 6.545e-7
0.219, -1.378e-6, -7.239e-7, 6.542e-7
0.218, -1.378e-6, -7.230e-7, 6.554e-7
0.217, -1.377e-6, -7.218e-7, 6.557e-7
0.216, -1.375e-6, -7.221e-7, 6.530e-7
0.215, -1.375e-6, -7.193e-7, 6.560e-7
0.214, -1.370e-6, -7.178e-7, 6.527e-7
0.213, -1.372e-6, -7.187e-7, 6.533e-7
0.212, -1.370e-6, -7.150e-7, 6.551e-7
0.211, -1.364e-6, -7.153e-7, 6.487e-7
0.210, -1.366e-6, -7.147e-7, 6.508e-7
0.209, -1.363e-6, -7.117e-7, 6.518e-7
0.208, -1.361e-6, -7.114e-7, 6.493e-7
0.207, -1.361e-6, -7.123e-7, 6.487e-7
0.206, -1.357e-6, -7.077e-7, 6.493e-7
0.205, -1.354e-6, -7.074e-7, 6.469e-7
0.204, -1.357e-6, -7.086e-7, 6.484e-7
0.203, -1.352e-6, -7.031e-7, 6.493e-7
0.202, -1.348e-6, -7.041e-7, 6.441e-7
0.201, -1.349e-6, -7.037e-7, 6.454e-7
0.200, -1.343e-6, -7.004e-7, 6.426e-7
0.199, -1.345e-6, -7.025e-7, 6.420e-7
0.198, -1.345e-6, -7.010e-7, 6.444e-7
0.197, -1.341e-6, -6.973e-7, 6.435e-7
0.196, -1.339e-6, -6.989e-7, 6.402e-7
0.195, -1.336e-6, -6.958e-7, 6.405e-7
0.194, -1.336e-6, -6.964e-7, 6.399e-7
0.193, -1.331e-6, -6.946e-7, 6.368e-7
0.192, -1.330e-6, -6.922e-7, 6.383e-7
0.191, -1.329e-6, -6.925e-7, 6.362e-7
0.190, -1.327e-6, -6.918e-7, 6.356e-7
0.189, -1.325e-6, -6.897e-7, 6.353e-7
0.188, -1.323e-6, -6.882e-7, 6.344e-7
0.187, -1.323e-6, -6.876e-7, 6.356e-7
0.186, -1.317e-6, -6.854e-7, 6.319e-7
0.185, -1.316e-6, -6.851e-7, 6.304e-7
0.184, -1.316e-6, -6.854e-7, 6.304e-7
0.183, -1.311e-6, -6.815e-7, 6.298e-7
0.182, -1.312e-6, -6.824e-7, 6.292e-7
0.181, -1.309e-6, -6.809e-7, 6.277e-7
0.180, -1.306e-6, -6.793e-7, 6.264e-7
0.179, -1.305e-6, -6.799e-7, 6.255e-7
0.178, -1.303e-6, -6.772e-7, 6.261e-7
0.177, -1.300e-6, -6.778e-7, 6.219e-7
0.176, -1.298e-6, -6.760e-7, 6.225e-7
0.175, -1.298e-6, -6.754e-7, 6.231e-7
0.174, -1.293e-6, -6.738e-7, 6.194e-7
0.173, -1.294e-6, -6.735e-7, 6.206e-7
0.172, -1.291e-6, -6.705e-7, 6.206e-7
0.171, -1.287e-6, -6.708e-7, 6.161e-7
0.170, -1.289e-6, -6.705e-7, 6.188e-7
0.169, -1.287e-6, -6.708e-7, 6.167e-7
0.168, -1.286e-6, -6.714e-7, 6.145e-7
0.167, -1.281e-6, -6.671e-7, 6.142e-7
0.166, -1.278e-6, -6.650e-7, 6.133e-7
0.165, -1.276e-6, -6.656e-7, 6.106e-7
0.164, -1.276e-6, -6.632e-7, 6.127e-7
0.163, -1.272e-6, -6.616e-7, 6.100e-7
0.162, -1.269e-6, -6.629e-7, 6.060e-7
0.161, -1.273e-6, -6.622e-7, 6.109e-7
0.160, -1.266e-6, -6.589e-7, 6.069e-7
0.159, -1.264e-6, -6.601e-7, 6.042e-7
0.158, -1.264e-6, -6.574e-7, 6.066e-7
0.157, -1.264e-6, -6.580e-7, 6.057e-7
0.156, -1.259e-6, -6.574e-7, 6.014e-7
0.155, -1.258e-6, -6.558e-7, 6.020e-7
0.154, -1.255e-6, -6.531e-7, 6.014e-7
0.153, -1.253e-6, -6.549e-7, 5.984e-7
0.152, -1.253e-6, -6.534e-7, 5.999e-7
0.151, -1.250e-6, -6.513e-7, 5.984e-7
0.150, -1.250e-6, -6.540e-7, 5.959e-7
0.149, -1.248e-6, -6.510e-7, 5.971e-7
0.148, -1.244e-6, -6.485e-7, 5.959e-7
0.147, -1.243e-6, -6.488e-7, 5.944e-7
0.146, -1.243e-6, -6.494e-7, 5.935e-7
0.145, -1.240e-6, -6.476e-7, 5.929e-7
0.144, -1.237e-6, -6.461e-7, 5.913e-7
0.143, -1.235e-6, -6.449e-7, 5.904e-7
0.142, -1.234e-6, -6.458e-7, 5.883e-7
0.141, -1.235e-6, -6.445e-7, 5.907e-7
0.140, -1.230e-6, -6.436e-7, 5.868e-7
0.139, -1.229e-6, -6.430e-7, 5.855e-7
0.138, -1.226e-6, -6.415e-7, 5.849e-7
0.137, -1.226e-6, -6.406e-7, 5.852e-7
0.136, -1.225e-6, -6.409e-7, 5.840e-7
0.135, -1.222e-6, -6.387e-7, 5.828e-7
0.134, -1.220e-6, -6.384e-7, 5.816e-7
0.133, -1.217e-6, -6.378e-7, 5.791e-7
0.132, -1.216e-6, -6.360e-7, 5.797e-7
0.131, -1.212e-6, -6.360e-7, 5.764e-7
0.130, -1.213e-6, -6.366e-7, 5.761e-7
0.129, -1.210e-6, -6.323e-7, 5.773e-7
0.128, -1.210e-6, -6.323e-7, 5.776e-7
0.127, -1.208e-6, -6.339e-7, 5.746e-7
0.126, -1.206e-6, -6.311e-7, 5.746e-7
0.125, -1.203e-6, -6.311e-7, 5.715e-7
0.124, -1.204e-6, -6.317e-7, 5.721e-7
0.123, -1.200e-6, -6.284e-7, 5.715e-7
0.122, -1.200e-6, -6.296e-7, 5.700e-7
0.121, -1.196e-6, -6.278e-7, 5.685e-7
0.120, -1.196e-6, -6.278e-7, 5.682e-7
0.119, -1.193e-6, -6.265e-7, 5.660e-7
0.118, -1.191e-6, -6.244e-7, 5.669e-7
0.117, -1.188e-6, -6.235e-7, 5.645e-7
0.116, -1.189e-6, -6.259e-7, 5.633e-7
0.115, -1.186e-6, -6.229e-7, 5.636e-7
0.114, -1.182e-6, -6.223e-7, 5.593e-7
0.113, -1.183e-6, -6.232e-7, 5.602e-7
0.112, -1.182e-6, -6.192e-7, 5.624e-7
0.111, -1.180e-6, -6.211e-7, 5.587e-7
0.110, -1.179e-6, -6.204e-7, 5.581e-7
0.109, -1.175e-6, -6.174e-7, 5.572e-7
0.108, -1.172e-6, -6.171e-7, 5.544e-7
0.107, -1.174e-6, -6.180e-7, 5.556e-7
0.106, -1.171e-6, -6.149e-7, 5.559e-7
0.105, -1.168e-6, -6.143e-7, 5.532e-7
0.104, -1.168e-6, -6.146e-7, 5.535e-7
0.103, -1.165e-6, -6.131e-7, 5.520e-7
0.102, -1.162e-6, -6.125e-7, 5.498e-7
0.101, -1.161e-6, -6.116e-7, 5.495e-7
0.100, -1.157e-6, -6.095e-7, 5.480e-7
0.099, -1.159e-6, -6.104e-7, 5.483e-7
0.098, -1.157e-6, -6.082e-7, 5.492e-7
0.097, -1.156e-6, -6.085e-7, 5.471e-7
0.096, -1.153e-6, -6.070e-7, 5.465e-7
0.095, -1.151e-6, -6.061e-7, 5.447e-7
0.094, -1.147e-6, -6.052e-7, 5.422e-7
0.093, -1.149e-6, -6.061e-7, 5.425e-7
0.092, -1.146e-6, -6.040e-7, 5.425e-7
0.091, -1.143e-6, -6.030e-7, 5.401e-7
0.090, -1.143e-6, -6.027e-7, 5.401e-7
0.089, -1.141e-6, -6.009e-7, 5.401e-7
0.088, -1.140e-6, -6.012e-7, 5.389e-7
0.087, -1.139e-6, -6.009e-7, 5.379e-7
0.086, -1.137e-6, -6.000e-7, 5.373e-7
0.085, -1.135e-6, -5.991e-7, 5.361e-7
0.084, -1.135e-6, -5.982e-7, 5.370e-7
0.083, -1.131e-6, -5.963e-7, 5.349e-7
0.082, -1.132e-6, -5.976e-7, 5.343e-7
0.081, -1.132e-6, -5.969e-7, 5.349e-7
0.080, -1.127e-6, -5.942e-7, 5.324e-7
0.079, -1.126e-6, -5.948e-7, 5.309e-7
0.078, -1.126e-6, -5.936e-7, 5.324e-7
0.077, -1.123e-6, -5.924e-7, 5.303e-7
0.076, -1.121e-6, -5.921e-7, 5.294e-7
0.075, -1.122e-6, -5.918e-7, 5.306e-7
0.074, -1.119e-6, -5.902e-7, 5.288e-7
0.073, -1.119e-6, -5.911e-7, 5.276e-7
0.072, -1.117e-6, -5.884e-7, 5.285e-7
0.071, -1.116e-6, -5.884e-7, 5.273e-7
0.070, -1.116e-6, -5.884e-7, 5.279e-7
0.069, -1.110e-6, -5.857e-7, 5.239e-7
0.068, -1.112e-6, -5.878e-7, 5.242e-7
0.067, -1.112e-6, -5.857e-7, 5.260e-7
0.066, -1.108e-6, -5.844e-7, 5.233e-7
0.065, -1.107e-6, -5.847e-7, 5.227e-7
0.064, -1.108e-6, -5.838e-7, 5.245e-7
0.063, -1.103e-6, -5.799e-7, 5.227e-7
0.062, -1.103e-6, -5.826e-7, 5.205e-7
0.061, -1.105e-6, -5.817e-7, 5.230e-7
0.060, -1.103e-6, -5.817e-7, 5.209e-7
0.059, -1.099e-6, -5.808e-7, 5.181e-7
0.058, -1.100e-6, -5.792e-7, 5.209e-7
0.057, -1.096e-6, -5.774e-7, 5.190e-7
0.056, -1.097e-6, -5.786e-7, 5.187e-7
0.055, -1.098e-6, -5.774e-7, 5.205e-7
0.054, -1.093e-6, -5.756e-7, 5.175e-7
0.053, -1.094e-6, -5.771e-7, 5.172e-7
0.052, -1.092e-6, -5.750e-7, 5.169e-7
0.051, -1.091e-6, -5.750e-7, 5.163e-7
0.050, -1.091e-6, -5.738e-7, 5.169e-7
0.049, -1.085e-6, -5.710e-7, 5.135e-7
0.048, -1.091e-6, -5.759e-7, 5.147e-7
0.047, -1.088e-6, -5.722e-7, 5.163e-7
0.046, -1.086e-6, -5.716e-7, 5.144e-7
0.045, -1.085e-6, -5.710e-7, 5.138e-7
0.044, -1.085e-6, -5.704e-7, 5.147e-7
0.043, -1.083e-6, -5.695e-7, 5.132e-7
0.042, -1.081e-6, -5.701e-7, 5.114e-7
0.041, -1.081e-6, -5.683e-7, 5.123e-7
0.040, -1.079e-6, -5.673e-7, 5.114e-7
0.039, -1.078e-6, -5.667e-7, 5.117e-7
0.038, -1.076e-6, -5.658e-7, 5.105e-7
0.037, -1.074e-6, -5.658e-7, 5.083e-7
0.036, -1.075e-6, -5.649e-7, 5.102e-7
0.035, -1.074e-6, -5.643e-7, 5.099e-7
0.034, -1.070e-6, -5.631e-7, 5.074e-7
0.033, -1.071e-6, -5.631e-7, 5.083e-7
0.032, -1.071e-6, -5.612e-7, 5.096e-7
0.031, -1.069e-6, -5.622e-7, 5.065e-7
0.030, -1.069e-6, -5.619e-7, 5.071e-7
0.029, -1.065e-6, -5.573e-7, 5.077e-7
0.028, -1.067e-6, -5.600e-7, 5.068e-7
0.027, -1.064e-6, -5.591e-7, 5.047e-7
0.026, -1.060e-6, -5.567e-7, 5.038e-7
0.025, -1.060e-6, -5.570e-7, 5.025e-7
0.024, -1.063e-6, -5.570e-7, 5.056e-7
0.023, -1.057e-6, -5.548e-7, 5.019e-7
0.022, -1.059e-6, -5.557e-7, 5.032e-7
0.021, -1.059e-6, -5.542e-7, 5.047e-7
0.020, -1.055e-6, -5.542e-7, 5.004e-7
0.019, -1.055e-6, -5.527e-7, 5.025e-7
0.018, -1.053e-6, -5.509e-7, 5.019e-7
0.017, -1.050e-6, -5.512e-7, 4.989e-7
0.016, -1.051e-6, -5.512e-7, 4.995e-7
0.015, -1.052e-6, -5.496e-7, 5.019e-7
0.014, -1.045e-6, -5.484e-7, 4.961e-7
0.013, -1.048e-6, -5.499e-7, 4.977e-7
0.012, -1.045e-6, -5.457e-7, 4.989e-7
0.011, -1.042e-6, -5.472e-7, 4.946e-7
0.010, -1.043e-6, -5.460e-7, 4.967e-7
0.009, -1.042e-6, -5.454e-7, 4.967e-7
0.008, -1.038e-6, -5.445e-7, 4.934e-7
0.007, -1.039e-6, -5.442e-7, 4.949e-7
0.006, -1.037e-6, -5.423e-7, 4.943e-7
0.005, -1.035e-6, -5.420e-7, 4.931e-7
0.004, -1.035e-6, -5.420e-7, 4.934e-7
0.003, -1.031e-6, -5.393e-7, 4.916e-7
0.002, -1.031e-6, -5.399e-7, 4.912e-7
0.001, -1.030e-6, -5.377e-7, 4.922e-7
0.000, -1.029e-6, -5.393e-7, 4.900e-7
-0.001, -1.027e-6, -5.365e-7, 4.900e-7
-0.002, -1.026e-6, -5.365e-7, 4.897e-7
-0.003, -1.025e-6, -5.365e-7, 4.882e-7
-0.004, -1.023e-6, -5.347e-7, 4.885e-7
-0.005, -1.020e-6, -5.332e-7, 4.870e-7
-0.006, -1.019e-6, -5.335e-7, 4.858e-7
-0.007, -1.022e-6, -5.335e-7, 4.885e-7
-0.008, -1.019e-6, -5.313e-7, 4.873e-7
-0.009, -1.016e-6, -5.323e-7, 4.842e-7
-0.010, -1.017e-6, -5.310e-7, 4.858e-7
-0.011, -1.014e-6, -5.283e-7, 4.855e-7
-0.012, -1.013e-6, -5.298e-7, 4.833e-7
-0.013, -1.012e-6, -5.289e-7, 4.833e-7
-0.014, -1.007e-6, -5.255e-7, 4.815e-7
-0.015, -1.010e-6, -5.274e-7, 4.824e-7
-0.016, -1.007e-6, -5.246e-7, 4.824e-7
-0.017, -1.005e-6, -5.249e-7, 4.806e-7
-0.018, -1.003e-6, -5.246e-7, 4.787e-7
-0.019, -1.003e-6, -5.225e-7, 4.809e-7
-0.020, -1.002e-6, -5.231e-7, 4.784e-7
-0.021, -1.002e-6, -5.234e-7, 4.781e-7
-0.022, -1.001e-6, -5.210e-7, 4.797e-7
-0.023, -9.966e-7, -5.200e-7, 4.766e-7
-0.024, -9.976e-7, -5.213e-7, 4.763e-7
-0.025, -9.963e-7, -5.194e-7, 4.769e-7
-0.026, -9.939e-7, -5.191e-7, 4.748e-7
-0.027, -9.942e-7, -5.188e-7, 4.754e-7
-0.028, -9.921e-7, -5.170e-7, 4.751e-7
-0.029, -9.915e-7, -5.179e-7, 4.736e-7
-0.030, -9.905e-7, -5.158e-7, 4.748e-7
-0.031, -9.857e-7, -5.130e-7, 4.726e-7
-0.032, -9.866e-7, -5.152e-7, 4.714e-7
-0.033, -9.878e-7, -5.146e-7, 4.732e-7
-0.034, -9.838e-7, -5.124e-7, 4.714e-7
-0.035, -9.835e-7, -5.139e-7, 4.696e-7
-0.036, -9.838e-7, -5.121e-7, 4.717e-7
-0.037, -9.789e-7, -5.094e-7, 4.696e-7
-0.038, -9.814e-7, -5.127e-7, 4.687e-7
-0.039, -9.796e-7, -5.094e-7, 4.702e-7
-0.040, -9.771e-7, -5.094e-7, 4.678e-7
-0.041, -9.759e-7, -5.088e-7, 4.671e-7
-0.042, -9.768e-7, -5.088e-7, 4.681e-7
-0.043, -9.713e-7, -5.063e-7, 4.650e-7
-0.044, -9.741e-7, -5.072e-7, 4.668e-7
-0.045, -9.704e-7, -5.045e-7, 4.659e-7
-0.046, -9.707e-7, -5.060e-7, 4.647e-7
-0.047, -9.698e-7, -5.054e-7, 4.644e-7
-0.048, -9.689e-7, -5.051e-7, 4.638e-7
-0.049, -9.670e-7, -5.045e-7, 4.626e-7
-0.050, -9.674e-7, -5.027e-7, 4.647e-7
-0.051, -9.661e-7, -5.030e-7, 4.632e-7
-0.052, -9.640e-7, -5.023e-7, 4.616e-7
-0.053, -9.622e-7, -5.005e-7, 4.616e-7
-0.054, -9.612e-7, -5.008e-7, 4.604e-7
-0.055, -9.619e-7, -5.008e-7, 4.610e-7
-0.056, -9.591e-7, -4.996e-7, 4.595e-7
-0.057, -9.551e-7, -4.984e-7, 4.568e-7
-0.058, -9.570e-7, -4.990e-7, 4.580e-7
-0.059, -9.545e-7, -4.975e-7, 4.571e-7
-0.060, -9.536e-7, -4.975e-7, 4.562e-7
-0.061, -9.542e-7, -4.972e-7, 4.571e-7
-0.062, -9.527e-7, -4.953e-7, 4.574e-7
-0.063, -9.493e-7, -4.947e-7, 4.546e-7
-0.064, -9.500e-7, -4.953e-7, 4.546e-7
-0.065, -9.484e-7, -4.926e-7, 4.559e-7
-0.066, -9.466e-7, -4.938e-7, 4.528e-7
-0.067, -9.472e-7, -4.929e-7, 4.543e-7
-0.068, -9.454e-7, -4.917e-7, 4.537e-7
-0.069, -9.442e-7, -4.926e-7, 4.516e-7
-0.070, -9.448e-7, -4.923e-7, 4.525e-7
-0.071, -9.405e-7, -4.889e-7, 4.516e-7
-0.072, -9.420e-7, -4.917e-7, 4.504e-7
-0.073, -9.384e-7, -4.880e-7, 4.504e-7
-0.074, -9.393e-7, -4.895e-7, 4.497e-7
-0.075, -9.368e-7, -4.883e-7, 4.485e-7
-0.076, -9.362e-7, -4.871e-7, 4.491e-7
-0.077, -9.313e-7, -4.859e-7, 4.455e-7
-0.078, -9.338e-7, -4.871e-7, 4.467e-7
-0.079, -9.326e-7, -4.843e-7, 4.482e-7
-0.080, -9.292e-7, -4.846e-7, 4.446e-7
-0.081, -9.320e-7, -4.862e-7, 4.458e-7
-0.082, -9.286e-7, -4.834e-7, 4.452e-7
-0.083, -9.258e-7, -4.831e-7, 4.427e-7
-0.084, -9.255e-7, -4.831e-7, 4.424e-7
-0.085, -9.246e-7, -4.810e-7, 4.436e-7
-0.086, -9.222e-7, -4.804e-7, 4.418e-7
-0.087, -9.231e-7, -4.822e-7, 4.409e-7
-0.088, -9.225e-7, -4.801e-7, 4.424e-7
-0.089, -9.194e-7, -4.807e-7, 4.388e-7
-0.090, -9.201e-7, -4.801e-7, 4.400e-7
-0.091, -9.170e-7, -4.779e-7, 4.391e-7
-0.092, -9.149e-7, -4.770e-7, 4.378e-7
-0.093, -9.185e-7, -4.804e-7, 4.382e-7
-0.094, -9.130e-7, -4.764e-7, 4.366e-7
-0.095, -9.109e-7, -4.758e-7, 4.351e-7
-0.096, -9.109e-7, -4.737e-7, 4.372e-7
-0.097, -9.094e-7, -4.746e-7, 4.348e-7
-0.098, -9.088e-7, -4.740e-7, 4.348e-7
-0.099, -9.072e-7, -4.734e-7, 4.339e-7
-0.100, -9.042e-7, -4.709e-7, 4.333e-7
-0.101, -9.045e-7, -4.721e-7, 4.324e-7
-0.102, -9.033e-7, -4.715e-7, 4.317e-7
-0.103, -9.008e-7, -4.709e-7, 4.299e-7
-0.104, -9.027e-7, -4.703e-7, 4.324e-7
-0.105, -8.993e-7, -4.694e-7, 4.299e-7
-0.106, -8.966e-7, -4.691e-7, 4.275e-7
-0.107, -8.962e-7, -4.676e-7, 4.287e-7
-0.108, -8.950e-7, -4.669e-7, 4.281e-7
-0.109, -8.959e-7, -4.673e-7, 4.287e-7
-0.110, -8.935e-7, -4.654e-7, 4.281e-7
-0.111, -8.926e-7, -4.657e-7, 4.269e-7
-0.112, -8.917e-7, -4.660e-7, 4.256e-7
-0.113, -8.898e-7, -4.645e-7, 4.253e-7
-0.114, -8.892e-7, -4.642e-7, 4.250e-7
-0.115, -8.892e-7, -4.651e-7, 4.241e-7
-0.116, -8.883e-7, -4.636e-7, 4.247e-7
-0.117, -8.856e-7, -4.624e-7, 4.232e-7
-0.118, -8.859e-7, -4.630e-7, 4.229e-7
-0.119, -8.828e-7, -4.599e-7, 4.229e-7
-0.120, -8.816e-7, -4.608e-7, 4.208e-7
-0.121, -8.837e-7, -4.618e-7, 4.220e-7
-0.122, -8.810e-7, -4.596e-7, 4.214e-7
-0.123, -8.804e-7, -4.608e-7, 4.195e-7
-0.124, -8.807e-7, -4.599e-7, 4.208e-7
-0.125, -8.770e-7, -4.581e-7, 4.189e-7
-0.126, -8.782e-7, -4.599e-7, 4.183e-7
-0.127, -8.773e-7, -4.581e-7, 4.192e-7
-0.128, -8.755e-7, -4.569e-7, 4.186e-7
-0.129, -8.746e-7, -4.584e-7, 4.162e-7
-0.130, -8.755e-7, -4.575e-7, 4.180e-7
-0.131, -8.731e-7, -4.560e-7, 4.171e-7
-0.132, -8.724e-7, -4.569e-7, 4.156e-7
-0.133, -8.724e-7, -4.560e-7, 4.165e-7
-0.134, -8.691e-7, -4.535e-7, 4.156e-7
-0.135, -8.691e-7, -4.550e-7, 4.140e-7
-0.136, -8.694e-7, -4.535e-7, 4.159e-7
-0.137, -8.642e-7, -4.526e-7, 4.116e-7
-0.138, -8.660e-7, -4.535e-7, 4.125e-7
-0.139, -8.663e-7, -4.526e-7, 4.137e-7
-0.140, -8.630e-7, -4.511e-7, 4.119e-7
-0.141, -8.645e-7, -4.529e-7, 4.116e-7
-0.142, -8.639e-7, -4.517e-7, 4.122e-7
-0.143, -8.633e-7, -4.514e-7, 4.119e-7
-0.144, -8.605e-7, -4.502e-7, 4.104e-7
-0.145, -8.615e-7, -4.505e-7, 4.110e-7
-0.146, -8.612e-7, -4.511e-7, 4.101e-7
-0.147, -8.599e-7, -4.492e-7, 4.107e-7
-0.148, -8.584e-7, -4.505e-7, 4.079e-7
-0.149, -8.587e-7, -4.496e-7, 4.092e-7
-0.150, -8.578e-7, -4.492e-7, 4.086e-7
-0.151, -8.572e-7, -4.486e-7, 4.086e-7
-0.152, -8.544e-7, -4.480e-7, 4.064e-7
-0.153, -8.547e-7, -4.465e-7, 4.082e-7
-0.154, -8.535e-7, -4.480e-7, 4.055e-7
-0.155, -8.535e-7, -4.465e-7, 4.070e-7
-0.156, -8.523e-7, -4.459e-7, 4.064e-7
-0.157, -8.496e-7, -4.468e-7, 4.028e-7
-0.158, -8.514e-7, -4.465e-7, 4.049e-7
-0.159, -8.493e-7, -4.450e-7, 4.043e-7
-0.160, -8.480e-7, -4.453e-7, 4.028e-7
-0.161, -8.505e-7, -4.465e-7, 4.040e-7
-0.162, -8.483e-7, -4.435e-7, 4.049e-7
-0.163, -8.465e-7, -4.447e-7, 4.018e-7
-0.164, -8.480e-7, -4.447e-7, 4.034e-7
-0.165, -8.450e-7, -4.428e-7, 4.021e-7
-0.166, -8.456e-7, -4.444e-7, 4.012e-7
-0.167, -8.444e-7, -4.425e-7, 4.018e-7
-0.168, -8.422e-7, -4.425e-7, 3.997e-7
-0.169, -8.425e-7, -4.425e-7, 4.000e-7
-0.170, -8.416e-7, -4.413e-7, 4.003e-7
-0.171, -8.386e-7, -4.407e-7, 3.979e-7
-0.172, -8.413e-7, -4.419e-7, 3.994e-7
-0.173, -8.398e-7, -4.401e-7, 3.997e-7
-0.174, -8.389e-7, -4.407e-7, 3.982e-7
-0.175, -8.386e-7, -4.407e-7, 3.979e-7
-0.176, -8.361e-7, -4.392e-7, 3.970e-7
-0.177, -8.349e-7, -4.392e-7, 3.957e-7
-0.178, -8.346e-7, -4.398e-7, 3.948e-7
-0.179, -8.331e-7, -4.361e-7, 3.970e-7
-0.180, -8.322e-7, -4.380e-7, 3.942e-7
-0.181, -8.325e-7, -4.377e-7, 3.948e-7
-0.182, -8.300e-7, -4.352e-7, 3.948e-7
-0.183, -8.300e-7, -4.373e-7, 3.927e-7
-0.184, -8.309e-7, -4.380e-7, 3.930e-7
-0.185, -8.294e-7, -4.349e-7, 3.945e-7
-0.186, -8.264e-7, -4.358e-7, 3.905e-7
-0.187, -8.285e-7, -4.355e-7, 3.930e-7
-0.188, -8.261e-7, -4.352e-7, 3.909e-7
-0.189, -8.264e-7, -4.352e-7, 3.912e-7
-0.190, -8.261e-7, -4.355e-7, 3.905e-7
-0.191, -8.242e-7, -4.340e-7, 3.902e-7
-0.192, -8.224e-7, -4.331e-7, 3.893e-7
-0.193, -8.221e-7, -4.331e-7, 3.890e-7
-0.194, -8.221e-7, -4.340e-7, 3.881e-7
-0.195, -8.209e-7, -4.328e-7, 3.881e-7
-0.196, -8.209e-7, -4.331e-7, 3.878e-7
-0.197, -8.190e-7, -4.325e-7, 3.866e-7
-0.198, -8.203e-7, -4.325e-7, 3.878e-7
-0.199, -8.157e-7, -4.297e-7, 3.860e-7
-0.200, -8.175e-7, -4.322e-7, 3.854e-7
-0.201, -8.175e-7, -4.309e-7, 3.866e-7
-0.202, -8.151e-7, -4.300e-7, 3.851e-7
-0.203, -8.145e-7, -4.300e-7, 3.844e-7
-0.204, -8.154e-7, -4.297e-7, 3.857e-7
-0.205, -8.136e-7, -4.300e-7, 3.835e-7
-0.206, -8.132e-7, -4.306e-7, 3.826e-7
-0.207, -8.129e-7, -4.288e-7, 3.841e-7
-0.208, -8.120e-7, -4.288e-7, 3.832e-7
-0.209, -8.111e-7, -4.297e-7, 3.814e-7
-0.210, -8.123e-7, -4.291e-7, 3.832e-7
-0.211, -8.071e-7, -4.267e-7, 3.805e-7
-0.212, -8.084e-7, -4.285e-7, 3.799e-7
-0.213, -8.084e-7, -4.279e-7, 3.805e-7
-0.214, -8.081e-7, -4.279e-7, 3.802e-7
-0.215, -8.087e-7, -4.279e-7, 3.808e-7
-0.216, -8.071e-7, -4.273e-7, 3.799e-7
-0.217, -8.059e-7, -4.273e-7, 3.786e-7
-0.218, -8.065e-7, -4.264e-7, 3.802e-7
-0.219, -8.035e-7, -4.251e-7, 3.783e-7
-0.220, -8.041e-7, -4.273e-7, 3.768e-7
-0.221, -8.050e-7, -4.267e-7, 3.783e-7
-0.222, -8.044e-7, -4.251e-7, 3.793e-7
-0.223, -8.026e-7, -4.261e-7, 3.765e-7
-0.224, -8.032e-7, -4.261e-7, 3.771e-7
-0.225, -8.026e-7, -4.254e-7, 3.771e-7
-0.226, -8.023e-7, -4.258e-7, 3.765e-7
-0.227, -8.017e-7, -4.248e-7, 3.768e-7
-0.228, -7.992e-7, -4.239e-7, 3.753e-7
-0.229, -8.020e-7, -4.264e-7, 3.756e-7
-0.230, -8.010e-7, -4.245e-7, 3.765e-7
-0.231, -7.986e-7, -4.245e-7, 3.741e-7
-0.232, -7.983e-7, -4.251e-7, 3.732e-7
-0.233, -7.992e-7, -4.242e-7, 3.750e-7
-0.234, -7.983e-7, -4.245e-7, 3.738e-7
-0.235, -7.989e-7, -4.251e-7, 3.738e-7
-0.236, -7.986e-7, -4.248e-7, 3.738e-7
-0.237, -7.971e-7, -4.236e-7, 3.735e-7
-0.238, -7.965e-7, -4.233e-7, 3.732e-7
-0.239, -7.968e-7, -4.239e-7, 3.728e-7
-0.240, -7.965e-7, -4.233e-7, 3.732e-7
-0.241, -7.965e-7, -4.239e-7, 3.725e-7
-0.242, -7.949e-7, -4.233e-7, 3.716e-7
-0.243, -7.946e-7, -4.239e-7, 3.707e-7
-0.244, -7.946e-7, -4.239e-7, 3.707e-7
-0.245, -7.934e-7, -4.233e-7, 3.701e-7
-0.246, -7.946e-7, -4.242e-7, 3.704e-7
-0.247, -7.943e-7, -4.230e-7, 3.713e-7
-0.248, -7.928e-7, -4.236e-7, 3.692e-7
-0.249, -7.928e-7, -4.233e-7, 3.695e-7
-0.250, -7.931e-7, -4.227e-7, 3.704e-7
-0.251, -7.922e-7, -4.230e-7, 3.692e-7
-0.252, -7.919e-7, -4.227e-7, 3.692e-7
-0.253, -7.901e-7, -4.218e-7, 3.683e-7
-0.254, -7.922e-7, -4.239e-7, 3.683e-7
-0.255, -7.907e-7, -4.227e-7, 3.680e-7
-0.256, -7.907e-7, -4.221e-7, 3.686e-7
-0.257, -7.891e-7, -4.221e-7, 3.670e-7
-0.258, -7.897e-7, -4.221e-7, 3.677e-7
-0.259, -7.897e-7, -4.221e-7, 3.677e-7
-0.260, -7.885e-7, -4.227e-7, 3.658e-7
-0.261, -7.901e-7, -4.227e-7, 3.674e-7
-0.262, -7.885e-7, -4.227e-7, 3.658e-7
-0.263, -7.888e-7, -4.233e-7, 3.655e-7
-0.264, -7.879e-7, -4.215e-7, 3.664e-7
-0.265, -7.864e-7, -4.221e-7, 3.643e-7
-0.266, -7.870e-7, -4.221e-7, 3.649e-7
-0.267, -7.873e-7, -4.218e-7, 3.655e-7
-0.268, -7.858e-7, -4.221e-7, 3.637e-7
-0.269, -7.873e-7, -4.227e-7, 3.646e-7
-0.270, -7.864e-7, -4.212e-7, 3.652e-7
-0.271, -7.833e-7, -4.206e-7, 3.628e-7
-0.272, -7.861e-7, -4.230e-7, 3.631e-7
-0.273, -7.858e-7, -4.215e-7, 3.643e-7
-0.274, -7.830e-7, -4.215e-7, 3.616e-7
-0.275, -7.852e-7, -4.227e-7, 3.625e-7
-0.276, -7.840e-7, -4.212e-7, 3.628e-7
-0.277, -7.830e-7, -4.215e-7, 3.616e-7
-0.278, -7.824e-7, -4.215e-7, 3.609e-7
-0.279, -7.827e-7, -4.203e-7, 3.625e-7
-0.280, -7.815e-7, -4.215e-7, 3.600e-7
-0.281, -7.833e-7, -4.224e-7, 3.609e-7
-0.282, -7.812e-7, -4.215e-7, 3.597e-7
-0.283, -7.800e-7, -4.215e-7, 3.585e-7
-0.284, -7.815e-7, -4.224e-7, 3.591e-7
-0.285, -7.791e-7, -4.206e-7, 3.585e-7
-0.286, -7.824e-7, -4.230e-7, 3.594e-7
-0.287, -7.800e-7, -4.215e-7, 3.585e-7
-0.288, -7.791e-7, -4.209e-7, 3.582e-7
-0.289, -7.791e-7, -4.215e-7, 3.576e-7
-0.290, -7.806e-7, -4.215e-7, 3.591e-7
-0.291, -7.788e-7, -4.218e-7, 3.570e-7
-0.292, -7.778e-7, -4.206e-7, 3.573e-7
-0.293, -7.791e-7, -4.215e-7, 3.576e-7
-0.294, -7.772e-7, -4.215e-7, 3.558e-7
-0.295, -7.794e-7, -4.221e-7, 3.573e-7
-0.296, -7.803e-7, -4.230e-7, 3.573e-7
-0.297, -7.803e-7, -4.239e-7, 3.564e-7
-0.298, -7.769e-7, -4.209e-7, 3.561e-7
-0.299, -7.782e-7, -4.218e-7, 3.564e-7
-0.300, -7.766e-7, -4.218e-7, 3.548e-7
-0.301, -7.782e-7, -4.224e-7, 3.558e-7
-0.302, -7.763e-7, -4.218e-7, 3.545e-7
-0.303, -7.772e-7, -4.224e-7, 3.548e-7
-0.304, -7.766e-7, -4.218e-7, 3.548e-7
-0.305, -7.742e-7, -4.212e-7, 3.530e-7
-0.306, -7.763e-7, -4.227e-7, 3.536e-7
-0.307, -7.748e-7, -4.215e-7, 3.533e-7
-0.308, -7.745e-7, -4.215e-7, 3.530e-7
-0.309, -7.775e-7, -4.242e-7, 3.533e-7
-0.310, -7.745e-7, -4.203e-7, 3.542e-7
-0.311, -7.751e-7, -4.224e-7, 3.527e-7
-0.312, -7.785e-7, -4.251e-7, 3.533e-7
-0.313, -7.757e-7, -4.230e-7, 3.527e-7
-0.314, -7.751e-7, -4.230e-7, 3.521e-7
-0.315, -7.766e-7, -4.242e-7, 3.524e-7
-0.316, -7.757e-7, -4.230e-7, 3.527e-7
-0.317, -7.763e-7, -4.242e-7, 3.521e-7
-0.318, -7.775e-7, -4.242e-7, 3.533e-7
-0.319, -7.763e-7, -4.239e-7, 3.524e-7
-0.320, -7.763e-7, -4.254e-7, 3.509e-7
-0.321, -7.778e-7, -4.258e-7, 3.521e-7
-0.322, -7.742e-7, -4.239e-7, 3.503e-7
-0.323, -7.772e-7, -4.261e-7, 3.512e-7
-0.324, -7.760e-7, -4.248e-7, 3.512e-7
-0.325, -7.757e-7, -4.248e-7, 3.509e-7
-0.326, -7.760e-7, -4.264e-7, 3.497e-7
-0.327, -7.778e-7, -4.261e-7, 3.518e-7
-0.328, -7.748e-7, -4.248e-7, 3.500e-7
-0.329, -7.791e-7, -4.282e-7, 3.509e-7
-0.330, -7.782e-7, -4.264e-7, 3.518e-7
-0.331, -7.772e-7, -4.270e-7, 3.503e-7
-0.332, -7.778e-7, -4.282e-7, 3.497e-7
-0.333, -7.800e-7, -4.282e-7, 3.518e-7
-0.334, -7.785e-7, -4.285e-7, 3.500e-7
-0.335, -7.785e-7, -4.288e-7, 3.497e-7
-0.336, -7.794e-7, -4.282e-7, 3.512e-7
-0.337, -7.791e-7, -4.297e-7, 3.493e-7
-0.338, -7.794e-7, -4.282e-7, 3.512e-7
-0.339, -7.800e-7, -4.297e-7, 3.503e-7
-0.340, -7.800e-7, -4.300e-7, 3.500e-7
-0.341, -7.797e-7, -4.297e-7, 3.500e-7
-0.342, -7.788e-7, -4.288e-7, 3.500e-7
-0.343, -7.806e-7, -4.306e-7, 3.500e-7
-0.344, -7.836e-7, -4.337e-7, 3.500e-7
-0.345, -7.809e-7, -4.316e-7, 3.493e-7
-0.346, -7.812e-7, -4.325e-7, 3.487e-7
-0.347, -7.794e-7, -4.300e-7, 3.493e-7
-0.348, -7.800e-7, -4.316e-7, 3.484e-7
-0.349, -7.830e-7, -4.337e-7, 3.493e-7
-0.350, -7.818e-7, -4.325e-7, 3.493e-7
-0.351, -7.803e-7, -4.325e-7, 3.478e-7
-0.352, -7.824e-7, -4.334e-7, 3.490e-7
-0.353, -7.800e-7, -4.316e-7, 3.484e-7
-0.354, -7.812e-7, -4.346e-7, 3.466e-7
-0.355, -7.821e-7, -4.343e-7, 3.478e-7
-0.356, -7.827e-7, -4.343e-7, 3.484e-7
-0.357, -7.836e-7, -4.367e-7, 3.469e-7
-0.358, -7.827e-7, -4.349e-7, 3.478e-7
-0.359, -7.843e-7, -4.370e-7, 3.472e-7
-0.360, -7.827e-7, -4.358e-7, 3.469e-7
-0.361, -7.821e-7, -4.340e-7, 3.481e-7
-0.362, -7.809e-7, -4.355e-7, 3.454e-7
-0.363, -7.836e-7, -4.367e-7, 3.469e-7
-0.364, -7.840e-7, -4.361e-7, 3.478e-7
-0.365, -7.827e-7, -4.370e-7, 3.457e-7
-0.366, -7.858e-7, -4.392e-7, 3.466e-7
-0.367, -7.876e-7, -4.404e-7, 3.472e-7
-0.368, -7.827e-7, -4.380e-7, 3.448e-7
-0.369, -7.858e-7, -4.392e-7, 3.466e-7
-0.370, -7.852e-7, -4.386e-7, 3.466e-7
-0.371, -7.867e-7, -4.413e-7, 3.454e-7
-0.372, -7.876e-7, -4.410e-7, 3.466e-7
-0.373, -7.846e-7, -4.389e-7, 3.457e-7
-0.374, -7.888e-7, -4.441e-7, 3.448e-7
-0.375, -7.870e-7, -4.404e-7, 3.466e-7
-0.376, -7.873e-7, -4.416e-7, 3.457e-7
-0.377, -7.873e-7, -4.422e-7, 3.451e-7
-0.378, -7.879e-7, -4.431e-7, 3.448e-7
-0.379, -7.879e-7, -4.419e-7, 3.460e-7
-0.380, -7.870e-7, -4.428e-7, 3.442e-7
-0.381, -7.885e-7, -4.450e-7, 3.435e-7
-0.382, -7.873e-7, -4.431e-7, 3.442e-7
-0.383, -7.879e-7, -4.441e-7, 3.439e-7
-0.384, -7.891e-7, -4.444e-7, 3.448e-7
-0.385, -7.864e-7, -4.428e-7, 3.435e-7
-0.386, -7.885e-7, -4.447e-7, 3.439e-7
-0.387, -7.891e-7, -4.456e-7, 3.435e-7
-0.388, -7.907e-7, -4.477e-7, 3.429e-7
-0.389, -7.901e-7, -4.459e-7, 3.442e-7
-0.390, -7.882e-7, -4.462e-7, 3.420e-7
-0.391, -7.934e-7, -4.502e-7, 3.432e-7
-0.392, -7.901e-7, -4.468e-7, 3.432e-7
-0.393, -7.934e-7, -4.499e-7, 3.435e-7
-0.394, -7.894e-7, -4.471e-7, 3.423e-7
-0.395, -7.919e-7, -4.486e-7, 3.432e-7
-0.396, -7.922e-7, -4.496e-7, 3.426e-7
-0.397, -7.922e-7, -4.499e-7, 3.423e-7
-0.398, -7.937e-7, -4.502e-7, 3.435e-7
-0.399, -7.949e-7, -4.529e-7, 3.420e-7
-0.400, -7.919e-7, -4.502e-7, 3.417e-7
