Mar. 20, 2018   11:36:51
Square Wave Voltammetry
File: c:\users\electrochemist\desktop\2018\20032018_unbufarray_unpap\4_g4_ph4,04_5.txt
Data Source:  Experiment
Instrument Model:  CHI1040A
Header: 
Note: 

Init E (V) = 0.7
Final E (V) = -0.4
Incr E (V) = 0.001
Amplitude (V) = 0.1
Frequency (Hz) = 152
Quiet Time (sec) = 2
Sensitivity (A/V) = 1e-6

Difference:
Ep = 0.274V
ip = -2.811e-8A
Ap = -6.618e-9VA

Forward:

Reverse:

Potential/V, Diff(i/A), For(i/A), Rev(i/A)

0.699, -7.598e-7, -2.192e-7, 5.407e-7
0.698, -9.545e-7, -4.578e-7, 4.967e-7
0.697, -9.588e-7, -4.709e-7, 4.879e-7
0.696, -9.597e-7, -4.752e-7, 4.845e-7
0.695, -9.591e-7, -4.770e-7, 4.821e-7
0.694, -9.612e-7, -4.791e-7, 4.821e-7
0.693, -9.600e-7, -4.795e-7, 4.806e-7
0.692, -9.561e-7, -4.776e-7, 4.784e-7
0.691, -9.555e-7, -4.791e-7, 4.763e-7
0.690, -9.570e-7, -4.782e-7, 4.787e-7
0.689, -9.551e-7, -4.795e-7, 4.757e-7
0.688, -9.567e-7, -4.810e-7, 4.757e-7
0.687, -9.573e-7, -4.810e-7, 4.763e-7
0.686, -9.539e-7, -4.813e-7, 4.726e-7
0.685, -9.548e-7, -4.810e-7, 4.739e-7
0.684, -9.530e-7, -4.791e-7, 4.739e-7
0.683, -9.551e-7, -4.825e-7, 4.726e-7
0.682, -9.545e-7, -4.807e-7, 4.739e-7
0.681, -9.530e-7, -4.801e-7, 4.729e-7
0.680, -9.536e-7, -4.819e-7, 4.717e-7
0.679, -9.551e-7, -4.816e-7, 4.736e-7
0.678, -9.521e-7, -4.804e-7, 4.717e-7
0.677, -9.555e-7, -4.828e-7, 4.726e-7
0.676, -9.558e-7, -4.834e-7, 4.723e-7
0.675, -9.515e-7, -4.807e-7, 4.708e-7
0.674, -9.551e-7, -4.865e-7, 4.687e-7
0.673, -9.573e-7, -4.843e-7, 4.729e-7
0.672, -9.533e-7, -4.834e-7, 4.699e-7
0.671, -9.533e-7, -4.840e-7, 4.693e-7
0.670, -9.551e-7, -4.840e-7, 4.711e-7
0.669, -9.515e-7, -4.837e-7, 4.678e-7
0.668, -9.518e-7, -4.856e-7, 4.662e-7
0.667, -9.548e-7, -4.856e-7, 4.693e-7
0.666, -9.506e-7, -4.825e-7, 4.681e-7
0.665, -9.524e-7, -4.856e-7, 4.668e-7
0.664, -9.536e-7, -4.840e-7, 4.696e-7
0.663, -9.533e-7, -4.852e-7, 4.681e-7
0.662, -9.548e-7, -4.865e-7, 4.684e-7
0.661, -9.536e-7, -4.856e-7, 4.681e-7
0.660, -9.558e-7, -4.874e-7, 4.684e-7
0.659, -9.539e-7, -4.862e-7, 4.678e-7
0.658, -9.518e-7, -4.852e-7, 4.665e-7
0.657, -9.551e-7, -4.883e-7, 4.668e-7
0.656, -9.555e-7, -4.880e-7, 4.675e-7
0.655, -9.551e-7, -4.889e-7, 4.662e-7
0.654, -9.570e-7, -4.874e-7, 4.696e-7
0.653, -9.579e-7, -4.898e-7, 4.681e-7
0.652, -9.558e-7, -4.889e-7, 4.668e-7
0.651, -9.551e-7, -4.892e-7, 4.659e-7
0.650, -9.545e-7, -4.883e-7, 4.662e-7
0.649, -9.558e-7, -4.892e-7, 4.665e-7
0.648, -9.585e-7, -4.910e-7, 4.675e-7
0.647, -9.576e-7, -4.892e-7, 4.684e-7
0.646, -9.567e-7, -4.910e-7, 4.656e-7
0.645, -9.588e-7, -4.917e-7, 4.671e-7
0.644, -9.561e-7, -4.898e-7, 4.662e-7
0.643, -9.573e-7, -4.910e-7, 4.662e-7
0.642, -9.573e-7, -4.910e-7, 4.662e-7
0.641, -9.564e-7, -4.901e-7, 4.662e-7
0.640, -9.576e-7, -4.929e-7, 4.647e-7
0.639, -9.585e-7, -4.923e-7, 4.662e-7
0.638, -9.564e-7, -4.904e-7, 4.659e-7
0.637, -9.585e-7, -4.938e-7, 4.647e-7
0.636, -9.591e-7, -4.910e-7, 4.681e-7
0.635, -9.591e-7, -4.938e-7, 4.653e-7
0.634, -9.597e-7, -4.941e-7, 4.656e-7
0.633, -9.612e-7, -4.926e-7, 4.687e-7
0.632, -9.603e-7, -4.947e-7, 4.656e-7
0.631, -9.597e-7, -4.947e-7, 4.650e-7
0.630, -9.570e-7, -4.926e-7, 4.644e-7
0.629, -9.597e-7, -4.950e-7, 4.647e-7
0.628, -9.628e-7, -4.965e-7, 4.662e-7
0.627, -9.612e-7, -4.944e-7, 4.668e-7
0.626, -9.612e-7, -4.965e-7, 4.647e-7
0.625, -9.612e-7, -4.953e-7, 4.659e-7
0.624, -9.619e-7, -4.947e-7, 4.671e-7
0.623, -9.609e-7, -4.965e-7, 4.644e-7
0.622, -9.637e-7, -4.981e-7, 4.656e-7
0.621, -9.616e-7, -4.953e-7, 4.662e-7
0.620, -9.640e-7, -4.990e-7, 4.650e-7
0.619, -9.631e-7, -4.978e-7, 4.653e-7
0.618, -9.609e-7, -4.962e-7, 4.647e-7
0.617, -9.616e-7, -4.972e-7, 4.644e-7
0.616, -9.631e-7, -4.987e-7, 4.644e-7
0.615, -9.646e-7, -4.990e-7, 4.656e-7
0.614, -9.628e-7, -4.984e-7, 4.644e-7
0.613, -9.652e-7, -4.993e-7, 4.659e-7
0.612, -9.591e-7, -4.972e-7, 4.620e-7
0.611, -9.640e-7, -4.981e-7, 4.659e-7
0.610, -9.655e-7, -4.987e-7, 4.668e-7
0.609, -9.646e-7, -4.996e-7, 4.650e-7
0.608, -9.655e-7, -5.005e-7, 4.650e-7
0.607, -9.625e-7, -4.978e-7, 4.647e-7
0.606, -9.643e-7, -5.011e-7, 4.632e-7
0.605, -9.664e-7, -5.005e-7, 4.659e-7
0.604, -9.674e-7, -5.002e-7, 4.671e-7
0.603, -9.680e-7, -5.026e-7, 4.653e-7
0.602, -9.680e-7, -5.008e-7, 4.671e-7
0.601, -9.677e-7, -5.017e-7, 4.659e-7
0.600, -9.680e-7, -5.033e-7, 4.647e-7
0.599, -9.683e-7, -5.008e-7, 4.675e-7
0.598, -9.689e-7, -5.029e-7, 4.659e-7
0.597, -9.698e-7, -5.045e-7, 4.653e-7
0.596, -9.713e-7, -5.033e-7, 4.681e-7
0.595, -9.674e-7, -5.020e-7, 4.653e-7
0.594, -9.704e-7, -5.063e-7, 4.641e-7
0.593, -9.710e-7, -5.042e-7, 4.668e-7
0.592, -9.701e-7, -5.051e-7, 4.650e-7
0.591, -9.725e-7, -5.060e-7, 4.665e-7
0.590, -9.716e-7, -5.051e-7, 4.665e-7
0.589, -9.719e-7, -5.060e-7, 4.659e-7
0.588, -9.765e-7, -5.087e-7, 4.678e-7
0.587, -9.728e-7, -5.063e-7, 4.665e-7
0.586, -9.747e-7, -5.087e-7, 4.659e-7
0.585, -9.759e-7, -5.094e-7, 4.665e-7
0.584, -9.765e-7, -5.084e-7, 4.681e-7
0.583, -9.768e-7, -5.112e-7, 4.656e-7
0.582, -9.771e-7, -5.097e-7, 4.675e-7
0.581, -9.777e-7, -5.097e-7, 4.681e-7
0.580, -9.796e-7, -5.130e-7, 4.665e-7
0.579, -9.802e-7, -5.115e-7, 4.687e-7
0.578, -9.796e-7, -5.115e-7, 4.681e-7
0.577, -9.783e-7, -5.133e-7, 4.650e-7
0.576, -9.814e-7, -5.130e-7, 4.684e-7
0.575, -9.805e-7, -5.121e-7, 4.684e-7
0.574, -9.811e-7, -5.149e-7, 4.662e-7
0.573, -9.829e-7, -5.142e-7, 4.687e-7
0.572, -9.832e-7, -5.142e-7, 4.690e-7
0.571, -9.847e-7, -5.173e-7, 4.675e-7
0.570, -9.863e-7, -5.155e-7, 4.708e-7
0.569, -9.857e-7, -5.152e-7, 4.705e-7
0.568, -9.857e-7, -5.176e-7, 4.681e-7
0.567, -9.860e-7, -5.155e-7, 4.705e-7
0.566, -9.866e-7, -5.170e-7, 4.696e-7
0.565, -9.908e-7, -5.185e-7, 4.723e-7
0.564, -9.875e-7, -5.170e-7, 4.705e-7
0.563, -9.899e-7, -5.191e-7, 4.708e-7
0.562, -9.942e-7, -5.210e-7, 4.733e-7
0.561, -9.924e-7, -5.197e-7, 4.726e-7
0.560, -9.939e-7, -5.219e-7, 4.720e-7
0.559, -9.951e-7, -5.222e-7, 4.729e-7
0.558, -9.945e-7, -5.231e-7, 4.714e-7
0.557, -9.957e-7, -5.228e-7, 4.729e-7
0.556, -9.976e-7, -5.228e-7, 4.748e-7
0.555, -9.979e-7, -5.246e-7, 4.733e-7
0.554, -9.997e-7, -5.252e-7, 4.745e-7
0.553, -9.966e-7, -5.234e-7, 4.733e-7
0.552, -9.985e-7, -5.268e-7, 4.717e-7
0.551, -1.002e-6, -5.277e-7, 4.742e-7
0.550, -1.002e-6, -5.268e-7, 4.751e-7
0.549, -1.008e-6, -5.298e-7, 4.781e-7
0.548, -1.006e-6, -5.304e-7, 4.757e-7
0.547, -1.004e-6, -5.274e-7, 4.769e-7
0.546, -1.007e-6, -5.313e-7, 4.757e-7
0.545, -1.007e-6, -5.310e-7, 4.757e-7
0.544, -1.007e-6, -5.301e-7, 4.772e-7
0.543, -1.006e-6, -5.319e-7, 4.745e-7
0.542, -1.010e-6, -5.319e-7, 4.781e-7
0.541, -1.008e-6, -5.307e-7, 4.769e-7
0.540, -1.010e-6, -5.341e-7, 4.760e-7
0.539, -1.013e-6, -5.347e-7, 4.781e-7
0.538, -1.010e-6, -5.341e-7, 4.763e-7
0.537, -1.016e-6, -5.377e-7, 4.778e-7
0.536, -1.012e-6, -5.329e-7, 4.790e-7
0.535, -1.016e-6, -5.368e-7, 4.790e-7
0.534, -1.017e-6, -5.383e-7, 4.787e-7
0.533, -1.017e-6, -5.377e-7, 4.794e-7
0.532, -1.016e-6, -5.383e-7, 4.781e-7
0.531, -1.018e-6, -5.396e-7, 4.787e-7
0.530, -1.020e-6, -5.383e-7, 4.812e-7
0.529, -1.019e-6, -5.399e-7, 4.787e-7
0.528, -1.022e-6, -5.423e-7, 4.797e-7
0.527, -1.023e-6, -5.405e-7, 4.821e-7
0.526, -1.023e-6, -5.423e-7, 4.809e-7
0.525, -1.026e-6, -5.435e-7, 4.827e-7
0.524, -1.024e-6, -5.420e-7, 4.824e-7
0.523, -1.026e-6, -5.454e-7, 4.809e-7
0.522, -1.028e-6, -5.460e-7, 4.824e-7
0.521, -1.028e-6, -5.448e-7, 4.830e-7
0.520, -1.028e-6, -5.466e-7, 4.818e-7
0.519, -1.028e-6, -5.448e-7, 4.836e-7
0.518, -1.030e-6, -5.463e-7, 4.833e-7
0.517, -1.034e-6, -5.499e-7, 4.845e-7
0.516, -1.033e-6, -5.490e-7, 4.836e-7
0.515, -1.033e-6, -5.499e-7, 4.830e-7
0.514, -1.033e-6, -5.506e-7, 4.827e-7
0.513, -1.035e-6, -5.506e-7, 4.848e-7
0.512, -1.037e-6, -5.518e-7, 4.855e-7
0.511, -1.039e-6, -5.527e-7, 4.861e-7
0.510, -1.035e-6, -5.509e-7, 4.842e-7
0.509, -1.037e-6, -5.533e-7, 4.839e-7
0.508, -1.041e-6, -5.539e-7, 4.870e-7
0.507, -1.041e-6, -5.539e-7, 4.873e-7
0.506, -1.041e-6, -5.554e-7, 4.852e-7
0.505, -1.044e-6, -5.564e-7, 4.873e-7
0.504, -1.043e-6, -5.567e-7, 4.867e-7
0.503, -1.046e-6, -5.591e-7, 4.870e-7
0.502, -1.047e-6, -5.591e-7, 4.882e-7
0.501, -1.047e-6, -5.579e-7, 4.891e-7
0.500, -1.050e-6, -5.618e-7, 4.882e-7
0.499, -1.051e-6, -5.612e-7, 4.897e-7
0.498, -1.050e-6, -5.612e-7, 4.888e-7
0.497, -1.052e-6, -5.634e-7, 4.888e-7
0.496, -1.056e-6, -5.631e-7, 4.934e-7
0.495, -1.053e-6, -5.640e-7, 4.888e-7
0.494, -1.057e-6, -5.661e-7, 4.913e-7
0.493, -1.057e-6, -5.655e-7, 4.913e-7
0.492, -1.057e-6, -5.673e-7, 4.897e-7
0.491, -1.061e-6, -5.692e-7, 4.922e-7
0.490, -1.062e-6, -5.676e-7, 4.940e-7
0.489, -1.063e-6, -5.719e-7, 4.909e-7
0.488, -1.066e-6, -5.722e-7, 4.940e-7
0.487, -1.065e-6, -5.716e-7, 4.937e-7
0.486, -1.068e-6, -5.753e-7, 4.931e-7
0.485, -1.071e-6, -5.756e-7, 4.955e-7
0.484, -1.070e-6, -5.753e-7, 4.946e-7
0.483, -1.074e-6, -5.786e-7, 4.952e-7
0.482, -1.078e-6, -5.786e-7, 4.989e-7
0.481, -1.075e-6, -5.780e-7, 4.967e-7
0.480, -1.079e-6, -5.829e-7, 4.958e-7
0.479, -1.080e-6, -5.814e-7, 4.986e-7
0.478, -1.078e-6, -5.814e-7, 4.961e-7
0.477, -1.081e-6, -5.844e-7, 4.971e-7
0.476, -1.085e-6, -5.847e-7, 5.007e-7
0.475, -1.084e-6, -5.838e-7, 4.998e-7
0.474, -1.086e-6, -5.878e-7, 4.983e-7
0.473, -1.088e-6, -5.860e-7, 5.019e-7
0.472, -1.090e-6, -5.887e-7, 5.010e-7
0.471, -1.092e-6, -5.914e-7, 5.004e-7
0.470, -1.094e-6, -5.911e-7, 5.032e-7
0.469, -1.093e-6, -5.908e-7, 5.025e-7
0.468, -1.097e-6, -5.939e-7, 5.035e-7
0.467, -1.098e-6, -5.930e-7, 5.050e-7
0.466, -1.102e-6, -5.979e-7, 5.044e-7
0.465, -1.104e-6, -5.979e-7, 5.065e-7
0.464, -1.102e-6, -5.969e-7, 5.053e-7
0.463, -1.108e-6, -6.012e-7, 5.068e-7
0.462, -1.110e-6, -6.012e-7, 5.090e-7
0.461, -1.111e-6, -6.021e-7, 5.090e-7
0.460, -1.112e-6, -6.046e-7, 5.074e-7
0.459, -1.115e-6, -6.046e-7, 5.102e-7
0.458, -1.115e-6, -6.061e-7, 5.093e-7
0.457, -1.119e-6, -6.095e-7, 5.093e-7
0.456, -1.121e-6, -6.091e-7, 5.120e-7
0.455, -1.120e-6, -6.101e-7, 5.102e-7
0.454, -1.125e-6, -6.128e-7, 5.117e-7
0.453, -1.124e-6, -6.122e-7, 5.120e-7
0.452, -1.128e-6, -6.140e-7, 5.141e-7
0.451, -1.131e-6, -6.174e-7, 5.135e-7
0.450, -1.133e-6, -6.168e-7, 5.160e-7
0.449, -1.131e-6, -6.183e-7, 5.129e-7
0.448, -1.137e-6, -6.201e-7, 5.172e-7
0.447, -1.135e-6, -6.186e-7, 5.160e-7
0.446, -1.138e-6, -6.229e-7, 5.154e-7
0.445, -1.141e-6, -6.235e-7, 5.175e-7
0.444, -1.144e-6, -6.253e-7, 5.187e-7
0.443, -1.144e-6, -6.268e-7, 5.175e-7
0.442, -1.148e-6, -6.281e-7, 5.199e-7
0.441, -1.149e-6, -6.281e-7, 5.205e-7
0.440, -1.152e-6, -6.326e-7, 5.193e-7
0.439, -1.155e-6, -6.314e-7, 5.233e-7
0.438, -1.154e-6, -6.339e-7, 5.205e-7
0.437, -1.158e-6, -6.366e-7, 5.215e-7
0.436, -1.159e-6, -6.339e-7, 5.248e-7
0.435, -1.158e-6, -6.363e-7, 5.218e-7
0.434, -1.164e-6, -6.412e-7, 5.230e-7
0.433, -1.164e-6, -6.384e-7, 5.251e-7
0.432, -1.164e-6, -6.421e-7, 5.218e-7
0.431, -1.172e-6, -6.442e-7, 5.273e-7
0.430, -1.173e-6, -6.452e-7, 5.282e-7
0.429, -1.173e-6, -6.464e-7, 5.267e-7
0.428, -1.175e-6, -6.485e-7, 5.263e-7
0.427, -1.178e-6, -6.482e-7, 5.297e-7
0.426, -1.179e-6, -6.497e-7, 5.294e-7
0.425, -1.182e-6, -6.525e-7, 5.294e-7
0.424, -1.184e-6, -6.531e-7, 5.309e-7
0.423, -1.185e-6, -6.552e-7, 5.297e-7
0.422, -1.189e-6, -6.558e-7, 5.328e-7
0.421, -1.190e-6, -6.589e-7, 5.312e-7
0.420, -1.192e-6, -6.607e-7, 5.312e-7
0.419, -1.196e-6, -6.607e-7, 5.349e-7
0.418, -1.197e-6, -6.619e-7, 5.346e-7
0.417, -1.198e-6, -6.644e-7, 5.334e-7
0.416, -1.201e-6, -6.653e-7, 5.355e-7
0.415, -1.204e-6, -6.674e-7, 5.367e-7
0.414, -1.204e-6, -6.677e-7, 5.367e-7
0.413, -1.207e-6, -6.680e-7, 5.386e-7
0.412, -1.210e-6, -6.726e-7, 5.370e-7
0.411, -1.211e-6, -6.720e-7, 5.386e-7
0.410, -1.215e-6, -6.748e-7, 5.401e-7
0.409, -1.216e-6, -6.766e-7, 5.395e-7
0.408, -1.219e-6, -6.775e-7, 5.416e-7
0.407, -1.218e-6, -6.766e-7, 5.419e-7
0.406, -1.222e-6, -6.799e-7, 5.419e-7
0.405, -1.228e-6, -6.836e-7, 5.447e-7
0.404, -1.227e-6, -6.839e-7, 5.434e-7
0.403, -1.230e-6, -6.860e-7, 5.437e-7
0.402, -1.235e-6, -6.873e-7, 5.477e-7
0.401, -1.235e-6, -6.876e-7, 5.471e-7
0.400, -1.240e-6, -6.912e-7, 5.489e-7
0.399, -1.238e-6, -6.897e-7, 5.480e-7
0.398, -1.242e-6, -6.928e-7, 5.489e-7
0.397, -1.245e-6, -6.949e-7, 5.498e-7
0.396, -1.245e-6, -6.943e-7, 5.508e-7
0.395, -1.248e-6, -6.970e-7, 5.511e-7
0.394, -1.252e-6, -7.001e-7, 5.523e-7
0.393, -1.251e-6, -6.983e-7, 5.523e-7
0.392, -1.255e-6, -7.031e-7, 5.517e-7
0.391, -1.260e-6, -7.041e-7, 5.559e-7
0.390, -1.259e-6, -7.025e-7, 5.563e-7
0.389, -1.262e-6, -7.074e-7, 5.544e-7
0.388, -1.268e-6, -7.095e-7, 5.587e-7
0.387, -1.267e-6, -7.092e-7, 5.575e-7
0.386, -1.270e-6, -7.132e-7, 5.572e-7
0.385, -1.275e-6, -7.138e-7, 5.614e-7
0.384, -1.275e-6, -7.141e-7, 5.608e-7
0.383, -1.277e-6, -7.166e-7, 5.608e-7
0.382, -1.283e-6, -7.184e-7, 5.642e-7
0.381, -1.282e-6, -7.175e-7, 5.648e-7
0.380, -1.286e-6, -7.224e-7, 5.636e-7
0.379, -1.291e-6, -7.233e-7, 5.672e-7
0.378, -1.289e-6, -7.236e-7, 5.657e-7
0.377, -1.296e-6, -7.282e-7, 5.678e-7
0.376, -1.297e-6, -7.272e-7, 5.694e-7
0.375, -1.299e-6, -7.291e-7, 5.700e-7
0.374, -1.301e-6, -7.309e-7, 5.703e-7
0.373, -1.304e-6, -7.318e-7, 5.724e-7
0.372, -1.309e-6, -7.349e-7, 5.740e-7
0.371, -1.311e-6, -7.358e-7, 5.749e-7
0.370, -1.314e-6, -7.373e-7, 5.764e-7
0.369, -1.313e-6, -7.382e-7, 5.752e-7
0.368, -1.318e-6, -7.398e-7, 5.779e-7
0.367, -1.316e-6, -7.401e-7, 5.755e-7
0.366, -1.321e-6, -7.425e-7, 5.782e-7
0.365, -1.323e-6, -7.443e-7, 5.788e-7
0.364, -1.321e-6, -7.428e-7, 5.782e-7
0.363, -1.327e-6, -7.471e-7, 5.794e-7
0.362, -1.331e-6, -7.477e-7, 5.834e-7
0.361, -1.332e-6, -7.504e-7, 5.819e-7
0.360, -1.337e-6, -7.504e-7, 5.862e-7
0.359, -1.337e-6, -7.514e-7, 5.852e-7
0.358, -1.338e-6, -7.529e-7, 5.852e-7
0.357, -1.343e-6, -7.553e-7, 5.877e-7
0.356, -1.343e-6, -7.541e-7, 5.886e-7
0.355, -1.346e-6, -7.578e-7, 5.883e-7
0.354, -1.349e-6, -7.599e-7, 5.892e-7
0.353, -1.349e-6, -7.571e-7, 5.920e-7
0.352, -1.352e-6, -7.605e-7, 5.917e-7
0.351, -1.357e-6, -7.636e-7, 5.932e-7
0.350, -1.356e-6, -7.614e-7, 5.941e-7
0.349, -1.360e-6, -7.648e-7, 5.953e-7
0.348, -1.361e-6, -7.657e-7, 5.953e-7
0.347, -1.359e-6, -7.642e-7, 5.953e-7
0.346, -1.363e-6, -7.684e-7, 5.950e-7
0.345, -1.368e-6, -7.681e-7, 6.002e-7
0.344, -1.366e-6, -7.684e-7, 5.981e-7
0.343, -1.372e-6, -7.715e-7, 6.002e-7
0.342, -1.371e-6, -7.690e-7, 6.023e-7
0.341, -1.372e-6, -7.709e-7, 6.014e-7
0.340, -1.377e-6, -7.748e-7, 6.023e-7
0.339, -1.377e-6, -7.718e-7, 6.051e-7
0.338, -1.376e-6, -7.733e-7, 6.023e-7
0.337, -1.384e-6, -7.767e-7, 6.069e-7
0.336, -1.381e-6, -7.736e-7, 6.075e-7
0.335, -1.378e-6, -7.742e-7, 6.042e-7
0.334, -1.388e-6, -7.794e-7, 6.084e-7
0.333, -1.385e-6, -7.758e-7, 6.093e-7
0.332, -1.388e-6, -7.797e-7, 6.081e-7
0.331, -1.391e-6, -7.800e-7, 6.112e-7
0.330, -1.390e-6, -7.776e-7, 6.124e-7
0.329, -1.392e-6, -7.800e-7, 6.124e-7
0.328, -1.397e-6, -7.828e-7, 6.145e-7
0.327, -1.395e-6, -7.803e-7, 6.148e-7
0.326, -1.398e-6, -7.825e-7, 6.158e-7
0.325, -1.402e-6, -7.834e-7, 6.185e-7
0.324, -1.400e-6, -7.828e-7, 6.170e-7
0.323, -1.400e-6, -7.834e-7, 6.164e-7
0.322, -1.399e-6, -7.813e-7, 6.179e-7
0.321, -1.402e-6, -7.840e-7, 6.179e-7
0.320, -1.403e-6, -7.840e-7, 6.185e-7
0.319, -1.403e-6, -7.825e-7, 6.209e-7
0.318, -1.406e-6, -7.852e-7, 6.209e-7
0.317, -1.406e-6, -7.843e-7, 6.222e-7
0.316, -1.407e-6, -7.846e-7, 6.222e-7
0.315, -1.410e-6, -7.874e-7, 6.225e-7
0.314, -1.410e-6, -7.852e-7, 6.252e-7
0.313, -1.411e-6, -7.840e-7, 6.267e-7
0.312, -1.411e-6, -7.864e-7, 6.246e-7
0.311, -1.413e-6, -7.858e-7, 6.277e-7
0.310, -1.415e-6, -7.861e-7, 6.286e-7
0.309, -1.416e-6, -7.880e-7, 6.277e-7
0.308, -1.416e-6, -7.861e-7, 6.295e-7
0.307, -1.414e-6, -7.852e-7, 6.289e-7
0.306, -1.420e-6, -7.883e-7, 6.313e-7
0.305, -1.420e-6, -7.871e-7, 6.325e-7
0.304, -1.418e-6, -7.861e-7, 6.316e-7
0.303, -1.421e-6, -7.886e-7, 6.328e-7
0.302, -1.424e-6, -7.867e-7, 6.368e-7
0.301, -1.418e-6, -7.852e-7, 6.328e-7
0.300, -1.421e-6, -7.858e-7, 6.353e-7
0.299, -1.424e-6, -7.864e-7, 6.380e-7
0.298, -1.422e-6, -7.874e-7, 6.350e-7
0.297, -1.427e-6, -7.880e-7, 6.386e-7
0.296, -1.424e-6, -7.846e-7, 6.393e-7
0.295, -1.425e-6, -7.880e-7, 6.374e-7
0.294, -1.428e-6, -7.855e-7, 6.426e-7
0.293, -1.425e-6, -7.843e-7, 6.405e-7
0.292, -1.427e-6, -7.877e-7, 6.396e-7
0.291, -1.430e-6, -7.864e-7, 6.432e-7
0.290, -1.427e-6, -7.837e-7, 6.429e-7
0.289, -1.429e-6, -7.867e-7, 6.426e-7
0.288, -1.429e-6, -7.849e-7, 6.444e-7
0.287, -1.429e-6, -7.843e-7, 6.444e-7
0.286, -1.428e-6, -7.834e-7, 6.444e-7
0.285, -1.431e-6, -7.831e-7, 6.475e-7
0.284, -1.431e-6, -7.837e-7, 6.469e-7
0.283, -1.429e-6, -7.834e-7, 6.454e-7
0.282, -1.431e-6, -7.813e-7, 6.496e-7
0.281, -1.432e-6, -7.819e-7, 6.502e-7
0.280, -1.429e-6, -7.813e-7, 6.478e-7
0.279, -1.431e-6, -7.800e-7, 6.508e-7
0.278, -1.432e-6, -7.806e-7, 6.512e-7
0.277, -1.432e-6, -7.806e-7, 6.518e-7
0.276, -1.431e-6, -7.785e-7, 6.530e-7
0.275, -1.431e-6, -7.788e-7, 6.518e-7
0.274, -1.434e-6, -7.797e-7, 6.545e-7
0.273, -1.431e-6, -7.782e-7, 6.530e-7
0.272, -1.429e-6, -7.767e-7, 6.527e-7
0.271, -1.431e-6, -7.773e-7, 6.542e-7
0.270, -1.433e-6, -7.776e-7, 6.551e-7
0.269, -1.430e-6, -7.755e-7, 6.548e-7
0.268, -1.431e-6, -7.736e-7, 6.576e-7
0.267, -1.433e-6, -7.752e-7, 6.579e-7
0.266, -1.431e-6, -7.739e-7, 6.573e-7
0.265, -1.432e-6, -7.733e-7, 6.585e-7
0.264, -1.430e-6, -7.721e-7, 6.576e-7
0.263, -1.429e-6, -7.718e-7, 6.570e-7
0.262, -1.431e-6, -7.703e-7, 6.606e-7
0.261, -1.430e-6, -7.712e-7, 6.585e-7
0.260, -1.428e-6, -7.697e-7, 6.579e-7
0.259, -1.428e-6, -7.675e-7, 6.606e-7
0.258, -1.427e-6, -7.675e-7, 6.594e-7
0.257, -1.430e-6, -7.684e-7, 6.612e-7
0.256, -1.428e-6, -7.651e-7, 6.631e-7
0.255, -1.425e-6, -7.657e-7, 6.591e-7
0.254, -1.428e-6, -7.648e-7, 6.628e-7
0.253, -1.425e-6, -7.617e-7, 6.637e-7
0.252, -1.424e-6, -7.639e-7, 6.597e-7
0.251, -1.427e-6, -7.623e-7, 6.646e-7
0.250, -1.421e-6, -7.590e-7, 6.624e-7
0.249, -1.422e-6, -7.605e-7, 6.618e-7
0.248, -1.422e-6, -7.584e-7, 6.637e-7
0.247, -1.419e-6, -7.584e-7, 6.609e-7
0.246, -1.420e-6, -7.575e-7, 6.621e-7
0.245, -1.419e-6, -7.550e-7, 6.643e-7
0.244, -1.414e-6, -7.535e-7, 6.609e-7
0.243, -1.417e-6, -7.550e-7, 6.618e-7
0.242, -1.413e-6, -7.510e-7, 6.624e-7
0.241, -1.410e-6, -7.510e-7, 6.594e-7
0.240, -1.415e-6, -7.514e-7, 6.634e-7
0.239, -1.411e-6, -7.483e-7, 6.628e-7
0.238, -1.408e-6, -7.471e-7, 6.609e-7
0.237, -1.410e-6, -7.489e-7, 6.615e-7
0.236, -1.408e-6, -7.440e-7, 6.640e-7
0.235, -1.405e-6, -7.446e-7, 6.603e-7
0.234, -1.407e-6, -7.440e-7, 6.631e-7
0.233, -1.404e-6, -7.416e-7, 6.621e-7
0.232, -1.403e-6, -7.425e-7, 6.609e-7
0.231, -1.404e-6, -7.410e-7, 6.628e-7
0.230, -1.400e-6, -7.382e-7, 6.615e-7
0.229, -1.400e-6, -7.395e-7, 6.606e-7
0.228, -1.397e-6, -7.370e-7, 6.600e-7
0.227, -1.395e-6, -7.361e-7, 6.591e-7
0.226, -1.392e-6, -7.349e-7, 6.570e-7
0.225, -1.393e-6, -7.337e-7, 6.591e-7
0.224, -1.391e-6, -7.327e-7, 6.579e-7
0.223, -1.393e-6, -7.337e-7, 6.597e-7
0.222, -1.388e-6, -7.297e-7, 6.585e-7
0.221, -1.388e-6, -7.297e-7, 6.579e-7
0.220, -1.387e-6, -7.288e-7, 6.579e-7
0.219, -1.382e-6, -7.272e-7, 6.551e-7
0.218, -1.381e-6, -7.245e-7, 6.560e-7
0.217, -1.378e-6, -7.227e-7, 6.557e-7
0.216, -1.378e-6, -7.233e-7, 6.551e-7
0.215, -1.377e-6, -7.230e-7, 6.542e-7
0.214, -1.375e-6, -7.205e-7, 6.545e-7
0.213, -1.374e-6, -7.193e-7, 6.548e-7
0.212, -1.373e-6, -7.193e-7, 6.533e-7
0.211, -1.372e-6, -7.181e-7, 6.539e-7
0.210, -1.369e-6, -7.166e-7, 6.521e-7
0.209, -1.365e-6, -7.153e-7, 6.496e-7
0.208, -1.365e-6, -7.135e-7, 6.518e-7
0.207, -1.364e-6, -7.129e-7, 6.508e-7
0.206, -1.360e-6, -7.117e-7, 6.487e-7
0.205, -1.361e-6, -7.095e-7, 6.515e-7
0.204, -1.356e-6, -7.092e-7, 6.472e-7
0.203, -1.357e-6, -7.099e-7, 6.475e-7
0.202, -1.355e-6, -7.071e-7, 6.475e-7
0.201, -1.351e-6, -7.062e-7, 6.444e-7
0.200, -1.354e-6, -7.062e-7, 6.481e-7
0.199, -1.348e-6, -7.028e-7, 6.447e-7
0.198, -1.345e-6, -7.034e-7, 6.417e-7
0.197, -1.350e-6, -7.028e-7, 6.472e-7
0.196, -1.344e-6, -7.010e-7, 6.432e-7
0.195, -1.344e-6, -7.019e-7, 6.417e-7
0.194, -1.343e-6, -6.992e-7, 6.438e-7
0.193, -1.340e-6, -6.976e-7, 6.423e-7
0.192, -1.339e-6, -6.983e-7, 6.411e-7
0.191, -1.338e-6, -6.970e-7, 6.411e-7
0.190, -1.334e-6, -6.940e-7, 6.405e-7
0.189, -1.334e-6, -6.961e-7, 6.380e-7
0.188, -1.333e-6, -6.928e-7, 6.402e-7
0.187, -1.327e-6, -6.906e-7, 6.362e-7
0.186, -1.329e-6, -6.928e-7, 6.365e-7
0.185, -1.328e-6, -6.903e-7, 6.374e-7
0.184, -1.323e-6, -6.882e-7, 6.344e-7
0.183, -1.319e-6, -6.876e-7, 6.316e-7
0.182, -1.319e-6, -6.864e-7, 6.325e-7
0.181, -1.317e-6, -6.864e-7, 6.307e-7
0.180, -1.316e-6, -6.857e-7, 6.307e-7
0.179, -1.314e-6, -6.839e-7, 6.298e-7
0.178, -1.313e-6, -6.842e-7, 6.292e-7
0.177, -1.309e-6, -6.812e-7, 6.283e-7
0.176, -1.311e-6, -6.824e-7, 6.286e-7
0.175, -1.307e-6, -6.806e-7, 6.264e-7
0.174, -1.306e-6, -6.793e-7, 6.267e-7
0.173, -1.303e-6, -6.787e-7, 6.240e-7
0.172, -1.301e-6, -6.781e-7, 6.234e-7
0.171, -1.301e-6, -6.769e-7, 6.237e-7
0.170, -1.298e-6, -6.775e-7, 6.209e-7
0.169, -1.295e-6, -6.735e-7, 6.216e-7
0.168, -1.297e-6, -6.741e-7, 6.225e-7
0.167, -1.293e-6, -6.732e-7, 6.200e-7
0.166, -1.291e-6, -6.726e-7, 6.188e-7
0.165, -1.289e-6, -6.705e-7, 6.188e-7
0.164, -1.286e-6, -6.708e-7, 6.155e-7
0.163, -1.286e-6, -6.696e-7, 6.164e-7
0.162, -1.280e-6, -6.668e-7, 6.133e-7
0.161, -1.280e-6, -6.674e-7, 6.121e-7
0.160, -1.277e-6, -6.662e-7, 6.112e-7
0.159, -1.276e-6, -6.641e-7, 6.118e-7
0.158, -1.275e-6, -6.659e-7, 6.087e-7
0.157, -1.273e-6, -6.644e-7, 6.090e-7
0.156, -1.271e-6, -6.622e-7, 6.087e-7
0.155, -1.268e-6, -6.626e-7, 6.057e-7
0.154, -1.266e-6, -6.595e-7, 6.069e-7
0.153, -1.263e-6, -6.598e-7, 6.035e-7
0.152, -1.260e-6, -6.580e-7, 6.023e-7
0.151, -1.262e-6, -6.568e-7, 6.048e-7
0.150, -1.255e-6, -6.552e-7, 6.002e-7
0.149, -1.258e-6, -6.577e-7, 5.999e-7
0.148, -1.255e-6, -6.534e-7, 6.011e-7
0.147, -1.250e-6, -6.534e-7, 5.968e-7
0.146, -1.250e-6, -6.543e-7, 5.956e-7
0.145, -1.248e-6, -6.513e-7, 5.971e-7
0.144, -1.244e-6, -6.510e-7, 5.929e-7
0.143, -1.245e-6, -6.510e-7, 5.944e-7
0.142, -1.244e-6, -6.491e-7, 5.947e-7
0.141, -1.239e-6, -6.494e-7, 5.898e-7
0.140, -1.237e-6, -6.473e-7, 5.901e-7
0.139, -1.236e-6, -6.461e-7, 5.895e-7
0.138, -1.232e-6, -6.455e-7, 5.865e-7
0.137, -1.233e-6, -6.461e-7, 5.868e-7
0.136, -1.229e-6, -6.427e-7, 5.865e-7
0.135, -1.226e-6, -6.424e-7, 5.837e-7
0.134, -1.225e-6, -6.412e-7, 5.840e-7
0.133, -1.222e-6, -6.400e-7, 5.825e-7
0.132, -1.219e-6, -6.387e-7, 5.807e-7
0.131, -1.221e-6, -6.403e-7, 5.807e-7
0.130, -1.217e-6, -6.384e-7, 5.782e-7
0.129, -1.213e-6, -6.366e-7, 5.767e-7
0.128, -1.214e-6, -6.357e-7, 5.779e-7
0.127, -1.211e-6, -6.354e-7, 5.758e-7
0.126, -1.209e-6, -6.345e-7, 5.746e-7
0.125, -1.209e-6, -6.333e-7, 5.755e-7
0.124, -1.206e-6, -6.326e-7, 5.730e-7
0.123, -1.204e-6, -6.323e-7, 5.715e-7
0.122, -1.201e-6, -6.296e-7, 5.718e-7
0.121, -1.201e-6, -6.308e-7, 5.706e-7
0.120, -1.200e-6, -6.302e-7, 5.694e-7
0.119, -1.197e-6, -6.287e-7, 5.678e-7
0.118, -1.194e-6, -6.281e-7, 5.657e-7
0.117, -1.194e-6, -6.268e-7, 5.675e-7
0.116, -1.192e-6, -6.259e-7, 5.660e-7
0.115, -1.188e-6, -6.250e-7, 5.633e-7
0.114, -1.190e-6, -6.247e-7, 5.651e-7
0.113, -1.185e-6, -6.229e-7, 5.617e-7
0.112, -1.186e-6, -6.241e-7, 5.620e-7
0.111, -1.182e-6, -6.204e-7, 5.617e-7
0.110, -1.178e-6, -6.183e-7, 5.596e-7
0.109, -1.179e-6, -6.217e-7, 5.572e-7
0.108, -1.176e-6, -6.177e-7, 5.584e-7
0.107, -1.173e-6, -6.174e-7, 5.556e-7
0.106, -1.173e-6, -6.186e-7, 5.544e-7
0.105, -1.170e-6, -6.153e-7, 5.547e-7
0.104, -1.169e-6, -6.156e-7, 5.532e-7
0.103, -1.170e-6, -6.162e-7, 5.541e-7
0.102, -1.166e-6, -6.128e-7, 5.535e-7
0.101, -1.164e-6, -6.146e-7, 5.498e-7
0.100, -1.165e-6, -6.137e-7, 5.514e-7
0.099, -1.163e-6, -6.116e-7, 5.511e-7
0.098, -1.164e-6, -6.137e-7, 5.498e-7
0.097, -1.160e-6, -6.110e-7, 5.489e-7
0.096, -1.154e-6, -6.076e-7, 5.468e-7
0.095, -1.157e-6, -6.101e-7, 5.474e-7
0.094, -1.156e-6, -6.085e-7, 5.474e-7
0.093, -1.151e-6, -6.058e-7, 5.456e-7
0.092, -1.152e-6, -6.079e-7, 5.443e-7
0.091, -1.151e-6, -6.064e-7, 5.447e-7
0.090, -1.149e-6, -6.055e-7, 5.431e-7
0.089, -1.148e-6, -6.052e-7, 5.428e-7
0.088, -1.149e-6, -6.055e-7, 5.431e-7
0.087, -1.144e-6, -6.034e-7, 5.410e-7
0.086, -1.144e-6, -6.049e-7, 5.392e-7
0.085, -1.142e-6, -6.015e-7, 5.407e-7
0.084, -1.139e-6, -6.000e-7, 5.392e-7
0.083, -1.140e-6, -6.015e-7, 5.382e-7
0.082, -1.139e-6, -6.006e-7, 5.379e-7
0.081, -1.135e-6, -5.994e-7, 5.355e-7
0.080, -1.134e-6, -5.988e-7, 5.355e-7
0.079, -1.133e-6, -5.969e-7, 5.358e-7
0.078, -1.132e-6, -5.985e-7, 5.337e-7
0.077, -1.131e-6, -5.954e-7, 5.352e-7
0.076, -1.128e-6, -5.948e-7, 5.331e-7
0.075, -1.129e-6, -5.942e-7, 5.346e-7
0.074, -1.127e-6, -5.936e-7, 5.334e-7
0.073, -1.126e-6, -5.939e-7, 5.324e-7
0.072, -1.126e-6, -5.930e-7, 5.328e-7
0.071, -1.125e-6, -5.911e-7, 5.340e-7
0.070, -1.121e-6, -5.908e-7, 5.300e-7
0.069, -1.123e-6, -5.921e-7, 5.312e-7
0.068, -1.119e-6, -5.896e-7, 5.297e-7
0.067, -1.120e-6, -5.911e-7, 5.288e-7
0.066, -1.118e-6, -5.881e-7, 5.303e-7
0.065, -1.116e-6, -5.863e-7, 5.294e-7
0.064, -1.110e-6, -5.857e-7, 5.239e-7
0.063, -1.114e-6, -5.869e-7, 5.273e-7
0.062, -1.111e-6, -5.838e-7, 5.276e-7
0.061, -1.110e-6, -5.857e-7, 5.248e-7
0.060, -1.110e-6, -5.841e-7, 5.254e-7
0.059, -1.107e-6, -5.829e-7, 5.236e-7
0.058, -1.105e-6, -5.823e-7, 5.227e-7
0.057, -1.105e-6, -5.820e-7, 5.227e-7
0.056, -1.102e-6, -5.799e-7, 5.221e-7
0.055, -1.104e-6, -5.802e-7, 5.236e-7
0.054, -1.101e-6, -5.795e-7, 5.212e-7
0.053, -1.098e-6, -5.783e-7, 5.196e-7
0.052, -1.099e-6, -5.783e-7, 5.202e-7
0.051, -1.095e-6, -5.747e-7, 5.199e-7
0.050, -1.096e-6, -5.780e-7, 5.184e-7
0.049, -1.096e-6, -5.756e-7, 5.199e-7
0.048, -1.093e-6, -5.741e-7, 5.193e-7
0.047, -1.092e-6, -5.768e-7, 5.157e-7
0.046, -1.091e-6, -5.741e-7, 5.169e-7
0.045, -1.089e-6, -5.725e-7, 5.166e-7
0.044, -1.086e-6, -5.716e-7, 5.144e-7
0.043, -1.088e-6, -5.725e-7, 5.160e-7
0.042, -1.084e-6, -5.698e-7, 5.141e-7
0.041, -1.083e-6, -5.704e-7, 5.126e-7
0.040, -1.084e-6, -5.704e-7, 5.132e-7
0.039, -1.081e-6, -5.680e-7, 5.126e-7
0.038, -1.081e-6, -5.686e-7, 5.126e-7
0.037, -1.080e-6, -5.673e-7, 5.129e-7
0.036, -1.076e-6, -5.646e-7, 5.117e-7
0.035, -1.076e-6, -5.652e-7, 5.105e-7
0.034, -1.076e-6, -5.652e-7, 5.111e-7
0.033, -1.073e-6, -5.625e-7, 5.102e-7
0.032, -1.074e-6, -5.655e-7, 5.086e-7
0.031, -1.070e-6, -5.625e-7, 5.077e-7
0.030, -1.069e-6, -5.609e-7, 5.080e-7
0.029, -1.068e-6, -5.606e-7, 5.077e-7
0.028, -1.066e-6, -5.591e-7, 5.065e-7
0.027, -1.064e-6, -5.588e-7, 5.050e-7
0.026, -1.064e-6, -5.582e-7, 5.056e-7
0.025, -1.063e-6, -5.570e-7, 5.065e-7
0.024, -1.060e-6, -5.564e-7, 5.035e-7
0.023, -1.059e-6, -5.548e-7, 5.038e-7
0.022, -1.056e-6, -5.536e-7, 5.028e-7
0.021, -1.058e-6, -5.548e-7, 5.028e-7
0.020, -1.055e-6, -5.527e-7, 5.019e-7
0.019, -1.053e-6, -5.521e-7, 5.013e-7
0.018, -1.053e-6, -5.524e-7, 5.004e-7
0.017, -1.050e-6, -5.506e-7, 4.998e-7
0.016, -1.048e-6, -5.496e-7, 4.986e-7
0.015, -1.048e-6, -5.493e-7, 4.983e-7
0.014, -1.049e-6, -5.478e-7, 5.010e-7
0.013, -1.045e-6, -5.469e-7, 4.983e-7
0.012, -1.044e-6, -5.469e-7, 4.974e-7
0.011, -1.046e-6, -5.463e-7, 4.998e-7
0.010, -1.041e-6, -5.448e-7, 4.961e-7
0.009, -1.041e-6, -5.454e-7, 4.955e-7
0.008, -1.041e-6, -5.435e-7, 4.970e-7
0.007, -1.036e-6, -5.423e-7, 4.937e-7
0.006, -1.039e-6, -5.435e-7, 4.955e-7
0.005, -1.036e-6, -5.408e-7, 4.952e-7
0.004, -1.037e-6, -5.432e-7, 4.937e-7
0.003, -1.035e-6, -5.408e-7, 4.943e-7
0.002, -1.032e-6, -5.390e-7, 4.931e-7
0.001, -1.029e-6, -5.393e-7, 4.897e-7
0.000, -1.031e-6, -5.384e-7, 4.931e-7
-0.001, -1.028e-6, -5.368e-7, 4.916e-7
-0.002, -1.027e-6, -5.374e-7, 4.894e-7
-0.003, -1.028e-6, -5.368e-7, 4.909e-7
-0.004, -1.025e-6, -5.341e-7, 4.906e-7
-0.005, -1.023e-6, -5.356e-7, 4.870e-7
-0.006, -1.023e-6, -5.341e-7, 4.885e-7
-0.007, -1.021e-6, -5.329e-7, 4.882e-7
-0.008, -1.020e-6, -5.338e-7, 4.867e-7
-0.009, -1.021e-6, -5.313e-7, 4.897e-7
-0.010, -1.014e-6, -5.280e-7, 4.858e-7
-0.011, -1.018e-6, -5.323e-7, 4.861e-7
-0.012, -1.016e-6, -5.304e-7, 4.851e-7
-0.013, -1.012e-6, -5.280e-7, 4.839e-7
-0.014, -1.013e-6, -5.295e-7, 4.839e-7
-0.015, -1.012e-6, -5.280e-7, 4.839e-7
-0.016, -1.011e-6, -5.283e-7, 4.827e-7
-0.017, -1.010e-6, -5.265e-7, 4.839e-7
-0.018, -1.009e-6, -5.255e-7, 4.833e-7
-0.019, -1.008e-6, -5.258e-7, 4.818e-7
-0.020, -1.007e-6, -5.240e-7, 4.827e-7
-0.021, -1.004e-6, -5.234e-7, 4.809e-7
-0.022, -1.004e-6, -5.243e-7, 4.797e-7
-0.023, -1.003e-6, -5.222e-7, 4.812e-7
-0.024, -1.001e-6, -5.225e-7, 4.784e-7
-0.025, -9.997e-7, -5.210e-7, 4.787e-7
-0.026, -9.982e-7, -5.197e-7, 4.784e-7
-0.027, -9.966e-7, -5.194e-7, 4.772e-7
-0.028, -9.973e-7, -5.191e-7, 4.781e-7
-0.029, -9.951e-7, -5.182e-7, 4.769e-7
-0.030, -9.945e-7, -5.179e-7, 4.766e-7
-0.031, -9.930e-7, -5.176e-7, 4.754e-7
-0.032, -9.927e-7, -5.161e-7, 4.766e-7
-0.033, -9.921e-7, -5.170e-7, 4.751e-7
-0.034, -9.899e-7, -5.155e-7, 4.745e-7
-0.035, -9.884e-7, -5.136e-7, 4.748e-7
-0.036, -9.863e-7, -5.136e-7, 4.726e-7
-0.037, -9.854e-7, -5.133e-7, 4.720e-7
-0.038, -9.854e-7, -5.127e-7, 4.726e-7
-0.039, -9.829e-7, -5.121e-7, 4.708e-7
-0.040, -9.832e-7, -5.109e-7, 4.723e-7
-0.041, -9.805e-7, -5.103e-7, 4.702e-7
-0.042, -9.793e-7, -5.106e-7, 4.687e-7
-0.043, -9.783e-7, -5.084e-7, 4.699e-7
-0.044, -9.750e-7, -5.081e-7, 4.668e-7
-0.045, -9.741e-7, -5.075e-7, 4.665e-7
-0.046, -9.716e-7, -5.048e-7, 4.668e-7
-0.047, -9.704e-7, -5.060e-7, 4.644e-7
-0.048, -9.719e-7, -5.057e-7, 4.662e-7
-0.049, -9.710e-7, -5.045e-7, 4.665e-7
-0.050, -9.661e-7, -5.042e-7, 4.620e-7
-0.051, -9.661e-7, -5.036e-7, 4.626e-7
-0.052, -9.658e-7, -5.014e-7, 4.644e-7
-0.053, -9.619e-7, -5.020e-7, 4.598e-7
-0.054, -9.640e-7, -5.023e-7, 4.616e-7
-0.055, -9.619e-7, -4.987e-7, 4.632e-7
-0.056, -9.591e-7, -5.002e-7, 4.589e-7
-0.057, -9.588e-7, -4.990e-7, 4.598e-7
-0.058, -9.570e-7, -4.969e-7, 4.601e-7
-0.059, -9.558e-7, -4.978e-7, 4.580e-7
-0.060, -9.555e-7, -4.969e-7, 4.586e-7
-0.061, -9.524e-7, -4.953e-7, 4.571e-7
-0.062, -9.527e-7, -4.969e-7, 4.559e-7
-0.063, -9.515e-7, -4.947e-7, 4.568e-7
-0.064, -9.497e-7, -4.929e-7, 4.568e-7
-0.065, -9.484e-7, -4.929e-7, 4.555e-7
-0.066, -9.460e-7, -4.929e-7, 4.531e-7
-0.067, -9.463e-7, -4.920e-7, 4.543e-7
-0.068, -9.426e-7, -4.907e-7, 4.519e-7
-0.069, -9.417e-7, -4.892e-7, 4.525e-7
-0.070, -9.402e-7, -4.892e-7, 4.510e-7
-0.071, -9.393e-7, -4.889e-7, 4.504e-7
-0.072, -9.381e-7, -4.877e-7, 4.504e-7
-0.073, -9.353e-7, -4.874e-7, 4.479e-7
-0.074, -9.341e-7, -4.862e-7, 4.479e-7
-0.075, -9.359e-7, -4.862e-7, 4.497e-7
-0.076, -9.316e-7, -4.856e-7, 4.461e-7
-0.077, -9.307e-7, -4.840e-7, 4.467e-7
-0.078, -9.286e-7, -4.834e-7, 4.452e-7
-0.079, -9.283e-7, -4.834e-7, 4.449e-7
-0.080, -9.286e-7, -4.822e-7, 4.464e-7
-0.081, -9.265e-7, -4.819e-7, 4.446e-7
-0.082, -9.258e-7, -4.825e-7, 4.433e-7
-0.083, -9.231e-7, -4.801e-7, 4.430e-7
-0.084, -9.204e-7, -4.798e-7, 4.406e-7
-0.085, -9.228e-7, -4.810e-7, 4.418e-7
-0.086, -9.207e-7, -4.782e-7, 4.424e-7
-0.087, -9.191e-7, -4.785e-7, 4.406e-7
-0.088, -9.194e-7, -4.795e-7, 4.400e-7
-0.089, -9.167e-7, -4.767e-7, 4.400e-7
-0.090, -9.143e-7, -4.761e-7, 4.382e-7
-0.091, -9.155e-7, -4.767e-7, 4.388e-7
-0.092, -9.146e-7, -4.746e-7, 4.400e-7
-0.093, -9.121e-7, -4.770e-7, 4.351e-7
-0.094, -9.133e-7, -4.758e-7, 4.375e-7
-0.095, -9.082e-7, -4.737e-7, 4.345e-7
-0.096, -9.085e-7, -4.743e-7, 4.342e-7
-0.097, -9.088e-7, -4.731e-7, 4.357e-7
-0.098, -9.054e-7, -4.718e-7, 4.336e-7
-0.099, -9.051e-7, -4.724e-7, 4.327e-7
-0.100, -9.057e-7, -4.709e-7, 4.348e-7
-0.101, -9.017e-7, -4.694e-7, 4.324e-7
-0.102, -9.033e-7, -4.712e-7, 4.320e-7
-0.103, -9.045e-7, -4.700e-7, 4.345e-7
-0.104, -9.014e-7, -4.694e-7, 4.320e-7
-0.105, -8.969e-7, -4.682e-7, 4.287e-7
-0.106, -8.981e-7, -4.663e-7, 4.317e-7
-0.107, -8.935e-7, -4.660e-7, 4.275e-7
-0.108, -8.969e-7, -4.679e-7, 4.290e-7
-0.109, -8.966e-7, -4.660e-7, 4.305e-7
-0.110, -8.944e-7, -4.660e-7, 4.284e-7
-0.111, -8.947e-7, -4.666e-7, 4.281e-7
-0.112, -8.926e-7, -4.648e-7, 4.278e-7
-0.113, -8.908e-7, -4.651e-7, 4.256e-7
-0.114, -8.920e-7, -4.651e-7, 4.269e-7
-0.115, -8.886e-7, -4.627e-7, 4.259e-7
-0.116, -8.886e-7, -4.636e-7, 4.250e-7
-0.117, -8.880e-7, -4.621e-7, 4.259e-7
-0.118, -8.865e-7, -4.618e-7, 4.247e-7
-0.119, -8.847e-7, -4.621e-7, 4.226e-7
-0.120, -8.840e-7, -4.605e-7, 4.235e-7
-0.121, -8.834e-7, -4.602e-7, 4.232e-7
-0.122, -8.834e-7, -4.605e-7, 4.229e-7
-0.123, -8.822e-7, -4.593e-7, 4.229e-7
-0.124, -8.813e-7, -4.602e-7, 4.211e-7
-0.125, -8.810e-7, -4.593e-7, 4.217e-7
-0.126, -8.801e-7, -4.584e-7, 4.217e-7
-0.127, -8.764e-7, -4.569e-7, 4.195e-7
-0.128, -8.764e-7, -4.575e-7, 4.189e-7
-0.129, -8.764e-7, -4.566e-7, 4.198e-7
-0.130, -8.743e-7, -4.557e-7, 4.186e-7
-0.131, -8.764e-7, -4.572e-7, 4.192e-7
-0.132, -8.746e-7, -4.563e-7, 4.183e-7
-0.133, -8.709e-7, -4.557e-7, 4.153e-7
-0.134, -8.724e-7, -4.569e-7, 4.156e-7
-0.135, -8.703e-7, -4.538e-7, 4.165e-7
-0.136, -8.670e-7, -4.541e-7, 4.128e-7
-0.137, -8.709e-7, -4.541e-7, 4.168e-7
-0.138, -8.666e-7, -4.526e-7, 4.140e-7
-0.139, -8.676e-7, -4.532e-7, 4.143e-7
-0.140, -8.673e-7, -4.526e-7, 4.147e-7
-0.141, -8.627e-7, -4.514e-7, 4.113e-7
-0.142, -8.648e-7, -4.523e-7, 4.125e-7
-0.143, -8.648e-7, -4.514e-7, 4.134e-7
-0.144, -8.612e-7, -4.505e-7, 4.107e-7
-0.145, -8.621e-7, -4.508e-7, 4.113e-7
-0.146, -8.612e-7, -4.496e-7, 4.116e-7
-0.147, -8.566e-7, -4.489e-7, 4.076e-7
-0.148, -8.575e-7, -4.492e-7, 4.082e-7
-0.149, -8.566e-7, -4.468e-7, 4.098e-7
-0.150, -8.541e-7, -4.483e-7, 4.058e-7
-0.151, -8.569e-7, -4.477e-7, 4.092e-7
-0.152, -8.544e-7, -4.459e-7, 4.086e-7
-0.153, -8.520e-7, -4.459e-7, 4.061e-7
-0.154, -8.529e-7, -4.459e-7, 4.070e-7
-0.155, -8.520e-7, -4.438e-7, 4.082e-7
-0.156, -8.502e-7, -4.450e-7, 4.052e-7
-0.157, -8.496e-7, -4.453e-7, 4.043e-7
-0.158, -8.471e-7, -4.428e-7, 4.043e-7
-0.159, -8.486e-7, -4.456e-7, 4.031e-7
-0.160, -8.450e-7, -4.419e-7, 4.031e-7
-0.161, -8.447e-7, -4.425e-7, 4.021e-7
-0.162, -8.432e-7, -4.425e-7, 4.006e-7
-0.163, -8.428e-7, -4.407e-7, 4.021e-7
-0.164, -8.432e-7, -4.416e-7, 4.015e-7
-0.165, -8.438e-7, -4.435e-7, 4.003e-7
-0.166, -8.407e-7, -4.410e-7, 3.997e-7
-0.167, -8.407e-7, -4.407e-7, 4.000e-7
-0.168, -8.401e-7, -4.404e-7, 3.997e-7
-0.169, -8.392e-7, -4.395e-7, 3.997e-7
-0.170, -8.364e-7, -4.389e-7, 3.976e-7
-0.171, -8.361e-7, -4.377e-7, 3.985e-7
-0.172, -8.377e-7, -4.392e-7, 3.985e-7
-0.173, -8.340e-7, -4.373e-7, 3.966e-7
-0.174, -8.322e-7, -4.367e-7, 3.954e-7
-0.175, -8.325e-7, -4.358e-7, 3.966e-7
-0.176, -8.303e-7, -4.364e-7, 3.939e-7
-0.177, -8.313e-7, -4.361e-7, 3.951e-7
-0.178, -8.297e-7, -4.355e-7, 3.942e-7
-0.179, -8.303e-7, -4.361e-7, 3.942e-7
-0.180, -8.306e-7, -4.367e-7, 3.939e-7
-0.181, -8.255e-7, -4.331e-7, 3.924e-7
-0.182, -8.270e-7, -4.352e-7, 3.918e-7
-0.183, -8.264e-7, -4.331e-7, 3.933e-7
-0.184, -8.255e-7, -4.337e-7, 3.918e-7
-0.185, -8.245e-7, -4.331e-7, 3.915e-7
-0.186, -8.242e-7, -4.325e-7, 3.918e-7
-0.187, -8.230e-7, -4.322e-7, 3.909e-7
-0.188, -8.242e-7, -4.334e-7, 3.909e-7
-0.189, -8.227e-7, -4.325e-7, 3.902e-7
-0.190, -8.209e-7, -4.322e-7, 3.887e-7
-0.191, -8.230e-7, -4.328e-7, 3.902e-7
-0.192, -8.175e-7, -4.300e-7, 3.875e-7
-0.193, -8.187e-7, -4.312e-7, 3.875e-7
-0.194, -8.206e-7, -4.312e-7, 3.893e-7
-0.195, -8.157e-7, -4.291e-7, 3.866e-7
-0.196, -8.178e-7, -4.312e-7, 3.866e-7
-0.197, -8.181e-7, -4.297e-7, 3.884e-7
-0.198, -8.163e-7, -4.291e-7, 3.872e-7
-0.199, -8.157e-7, -4.300e-7, 3.857e-7
-0.200, -8.169e-7, -4.306e-7, 3.863e-7
-0.201, -8.129e-7, -4.276e-7, 3.854e-7
-0.202, -8.126e-7, -4.288e-7, 3.838e-7
-0.203, -8.136e-7, -4.282e-7, 3.854e-7
-0.204, -8.114e-7, -4.282e-7, 3.832e-7
-0.205, -8.108e-7, -4.282e-7, 3.826e-7
-0.206, -8.117e-7, -4.273e-7, 3.844e-7
-0.207, -8.111e-7, -4.276e-7, 3.835e-7
-0.208, -8.108e-7, -4.282e-7, 3.826e-7
-0.209, -8.078e-7, -4.261e-7, 3.817e-7
-0.210, -8.093e-7, -4.270e-7, 3.823e-7
-0.211, -8.093e-7, -4.270e-7, 3.823e-7
-0.212, -8.074e-7, -4.258e-7, 3.817e-7
-0.213, -8.065e-7, -4.261e-7, 3.805e-7
-0.214, -8.068e-7, -4.261e-7, 3.808e-7
-0.215, -8.074e-7, -4.261e-7, 3.814e-7
-0.216, -8.059e-7, -4.258e-7, 3.802e-7
-0.217, -8.047e-7, -4.251e-7, 3.796e-7
-0.218, -8.044e-7, -4.251e-7, 3.793e-7
-0.219, -8.038e-7, -4.248e-7, 3.789e-7
-0.220, -8.050e-7, -4.258e-7, 3.793e-7
-0.221, -8.020e-7, -4.239e-7, 3.780e-7
-0.222, -8.035e-7, -4.242e-7, 3.793e-7
-0.223, -8.010e-7, -4.227e-7, 3.783e-7
-0.224, -8.007e-7, -4.236e-7, 3.771e-7
-0.225, -8.007e-7, -4.233e-7, 3.774e-7
-0.226, -8.023e-7, -4.248e-7, 3.774e-7
-0.227, -7.995e-7, -4.230e-7, 3.765e-7
-0.228, -8.004e-7, -4.245e-7, 3.759e-7
-0.229, -7.983e-7, -4.221e-7, 3.762e-7
-0.230, -7.986e-7, -4.236e-7, 3.750e-7
-0.231, -7.992e-7, -4.239e-7, 3.753e-7
-0.232, -7.974e-7, -4.218e-7, 3.756e-7
-0.233, -7.983e-7, -4.227e-7, 3.756e-7
-0.234, -7.971e-7, -4.224e-7, 3.747e-7
-0.235, -7.949e-7, -4.215e-7, 3.735e-7
-0.236, -7.965e-7, -4.233e-7, 3.732e-7
-0.237, -7.955e-7, -4.218e-7, 3.738e-7
-0.238, -7.946e-7, -4.218e-7, 3.728e-7
-0.239, -7.946e-7, -4.230e-7, 3.716e-7
-0.240, -7.943e-7, -4.203e-7, 3.741e-7
-0.241, -7.919e-7, -4.209e-7, 3.710e-7
-0.242, -7.931e-7, -4.221e-7, 3.710e-7
-0.243, -7.943e-7, -4.215e-7, 3.728e-7
-0.244, -7.907e-7, -4.203e-7, 3.704e-7
-0.245, -7.925e-7, -4.221e-7, 3.704e-7
-0.246, -7.910e-7, -4.203e-7, 3.707e-7
-0.247, -7.888e-7, -4.196e-7, 3.692e-7
-0.248, -7.897e-7, -4.212e-7, 3.686e-7
-0.249, -7.901e-7, -4.196e-7, 3.704e-7
-0.250, -7.876e-7, -4.203e-7, 3.674e-7
-0.251, -7.885e-7, -4.203e-7, 3.683e-7
-0.252, -7.870e-7, -4.190e-7, 3.680e-7
-0.253, -7.864e-7, -4.190e-7, 3.674e-7
-0.254, -7.858e-7, -4.187e-7, 3.670e-7
-0.255, -7.876e-7, -4.190e-7, 3.686e-7
-0.256, -7.858e-7, -4.193e-7, 3.664e-7
-0.257, -7.864e-7, -4.196e-7, 3.667e-7
-0.258, -7.840e-7, -4.187e-7, 3.652e-7
-0.259, -7.833e-7, -4.184e-7, 3.649e-7
-0.260, -7.852e-7, -4.190e-7, 3.661e-7
-0.261, -7.843e-7, -4.193e-7, 3.649e-7
-0.262, -7.827e-7, -4.175e-7, 3.652e-7
-0.263, -7.840e-7, -4.187e-7, 3.652e-7
-0.264, -7.806e-7, -4.178e-7, 3.628e-7
-0.265, -7.824e-7, -4.184e-7, 3.640e-7
-0.266, -7.803e-7, -4.172e-7, 3.631e-7
-0.267, -7.815e-7, -4.187e-7, 3.628e-7
-0.268, -7.788e-7, -4.163e-7, 3.625e-7
-0.269, -7.797e-7, -4.175e-7, 3.622e-7
-0.270, -7.803e-7, -4.181e-7, 3.622e-7
-0.271, -7.803e-7, -4.178e-7, 3.625e-7
-0.272, -7.791e-7, -4.169e-7, 3.622e-7
-0.273, -7.788e-7, -4.175e-7, 3.612e-7
-0.274, -7.803e-7, -4.181e-7, 3.622e-7
-0.275, -7.775e-7, -4.169e-7, 3.606e-7
-0.276, -7.769e-7, -4.172e-7, 3.597e-7
-0.277, -7.769e-7, -4.163e-7, 3.606e-7
-0.278, -7.766e-7, -4.166e-7, 3.600e-7
-0.279, -7.760e-7, -4.169e-7, 3.591e-7
-0.280, -7.766e-7, -4.178e-7, 3.588e-7
-0.281, -7.745e-7, -4.163e-7, 3.582e-7
-0.282, -7.742e-7, -4.166e-7, 3.576e-7
-0.283, -7.760e-7, -4.160e-7, 3.600e-7
-0.284, -7.739e-7, -4.166e-7, 3.573e-7
-0.285, -7.757e-7, -4.178e-7, 3.579e-7
-0.286, -7.751e-7, -4.157e-7, 3.594e-7
-0.287, -7.745e-7, -4.166e-7, 3.579e-7
-0.288, -7.763e-7, -4.181e-7, 3.582e-7
-0.289, -7.724e-7, -4.163e-7, 3.561e-7
-0.290, -7.742e-7, -4.175e-7, 3.567e-7
-0.291, -7.733e-7, -4.172e-7, 3.561e-7
-0.292, -7.724e-7, -4.154e-7, 3.570e-7
-0.293, -7.733e-7, -4.178e-7, 3.555e-7
-0.294, -7.733e-7, -4.172e-7, 3.561e-7
-0.295, -7.724e-7, -4.160e-7, 3.564e-7
-0.296, -7.730e-7, -4.184e-7, 3.545e-7
-0.297, -7.739e-7, -4.175e-7, 3.564e-7
-0.298, -7.699e-7, -4.163e-7, 3.536e-7
-0.299, -7.721e-7, -4.178e-7, 3.542e-7
-0.300, -7.724e-7, -4.169e-7, 3.555e-7
-0.301, -7.721e-7, -4.184e-7, 3.536e-7
-0.302, -7.727e-7, -4.184e-7, 3.542e-7
-0.303, -7.727e-7, -4.181e-7, 3.545e-7
-0.304, -7.711e-7, -4.178e-7, 3.533e-7
-0.305, -7.705e-7, -4.172e-7, 3.533e-7
-0.306, -7.730e-7, -4.181e-7, 3.548e-7
-0.307, -7.724e-7, -4.178e-7, 3.545e-7
-0.308, -7.730e-7, -4.200e-7, 3.530e-7
-0.309, -7.721e-7, -4.181e-7, 3.539e-7
-0.310, -7.714e-7, -4.190e-7, 3.524e-7
-0.311, -7.717e-7, -4.190e-7, 3.527e-7
-0.312, -7.742e-7, -4.206e-7, 3.536e-7
-0.313, -7.724e-7, -4.197e-7, 3.527e-7
-0.314, -7.721e-7, -4.197e-7, 3.524e-7
-0.315, -7.711e-7, -4.187e-7, 3.524e-7
-0.316, -7.778e-7, -4.239e-7, 3.539e-7
-0.317, -7.745e-7, -4.218e-7, 3.527e-7
-0.318, -7.727e-7, -4.209e-7, 3.518e-7
-0.319, -7.730e-7, -4.209e-7, 3.521e-7
-0.320, -7.736e-7, -4.206e-7, 3.530e-7
-0.321, -7.727e-7, -4.209e-7, 3.518e-7
-0.322, -7.724e-7, -4.209e-7, 3.515e-7
-0.323, -7.724e-7, -4.209e-7, 3.515e-7
-0.324, -7.730e-7, -4.212e-7, 3.518e-7
-0.325, -7.727e-7, -4.221e-7, 3.506e-7
-0.326, -7.721e-7, -4.212e-7, 3.509e-7
-0.327, -7.711e-7, -4.212e-7, 3.500e-7
-0.328, -7.739e-7, -4.224e-7, 3.515e-7
-0.329, -7.721e-7, -4.215e-7, 3.506e-7
-0.330, -7.745e-7, -4.242e-7, 3.503e-7
-0.331, -7.727e-7, -4.221e-7, 3.506e-7
-0.332, -7.733e-7, -4.224e-7, 3.509e-7
-0.333, -7.733e-7, -4.239e-7, 3.493e-7
-0.334, -7.748e-7, -4.245e-7, 3.503e-7
-0.335, -7.724e-7, -4.224e-7, 3.500e-7
-0.336, -7.736e-7, -4.251e-7, 3.484e-7
-0.337, -7.733e-7, -4.236e-7, 3.497e-7
-0.338, -7.714e-7, -4.233e-7, 3.481e-7
-0.339, -7.739e-7, -4.245e-7, 3.493e-7
-0.340, -7.745e-7, -4.242e-7, 3.503e-7
-0.341, -7.727e-7, -4.236e-7, 3.490e-7
-0.342, -7.730e-7, -4.242e-7, 3.487e-7
-0.343, -7.727e-7, -4.245e-7, 3.481e-7
-0.344, -7.745e-7, -4.264e-7, 3.481e-7
-0.345, -7.754e-7, -4.276e-7, 3.478e-7
-0.346, -7.742e-7, -4.248e-7, 3.493e-7
-0.347, -7.751e-7, -4.267e-7, 3.484e-7
-0.348, -7.727e-7, -4.251e-7, 3.475e-7
-0.349, -7.742e-7, -4.254e-7, 3.487e-7
-0.350, -7.730e-7, -4.264e-7, 3.466e-7
-0.351, -7.742e-7, -4.273e-7, 3.469e-7
-0.352, -7.733e-7, -4.258e-7, 3.475e-7
-0.353, -7.748e-7, -4.285e-7, 3.463e-7
-0.354, -7.751e-7, -4.276e-7, 3.475e-7
-0.355, -7.745e-7, -4.273e-7, 3.472e-7
-0.356, -7.724e-7, -4.267e-7, 3.457e-7
-0.357, -7.742e-7, -4.288e-7, 3.454e-7
-0.358, -7.730e-7, -4.276e-7, 3.454e-7
-0.359, -7.751e-7, -4.294e-7, 3.457e-7
-0.360, -7.760e-7, -4.291e-7, 3.469e-7
-0.361, -7.739e-7, -4.285e-7, 3.454e-7
-0.362, -7.748e-7, -4.294e-7, 3.454e-7
-0.363, -7.745e-7, -4.288e-7, 3.457e-7
-0.364, -7.736e-7, -4.288e-7, 3.448e-7
-0.365, -7.742e-7, -4.300e-7, 3.442e-7
-0.366, -7.763e-7, -4.316e-7, 3.448e-7
-0.367, -7.745e-7, -4.300e-7, 3.445e-7
-0.368, -7.775e-7, -4.322e-7, 3.454e-7
-0.369, -7.772e-7, -4.325e-7, 3.448e-7
-0.370, -7.760e-7, -4.322e-7, 3.439e-7
-0.371, -7.772e-7, -4.322e-7, 3.451e-7
-0.372, -7.782e-7, -4.346e-7, 3.435e-7
-0.373, -7.782e-7, -4.340e-7, 3.442e-7
-0.374, -7.769e-7, -4.328e-7, 3.442e-7
-0.375, -7.757e-7, -4.334e-7, 3.423e-7
-0.376, -7.763e-7, -4.331e-7, 3.432e-7
-0.377, -7.794e-7, -4.358e-7, 3.435e-7
-0.378, -7.772e-7, -4.343e-7, 3.429e-7
-0.379, -7.769e-7, -4.352e-7, 3.417e-7
-0.380, -7.778e-7, -4.340e-7, 3.439e-7
-0.381, -7.766e-7, -4.343e-7, 3.423e-7
-0.382, -7.803e-7, -4.370e-7, 3.432e-7
-0.383, -7.794e-7, -4.358e-7, 3.435e-7
-0.384, -7.788e-7, -4.361e-7, 3.426e-7
-0.385, -7.806e-7, -4.370e-7, 3.435e-7
-0.386, -7.797e-7, -4.370e-7, 3.426e-7
-0.387, -7.782e-7, -4.374e-7, 3.408e-7
-0.388, -7.824e-7, -4.389e-7, 3.435e-7
-0.389, -7.803e-7, -4.377e-7, 3.426e-7
-0.390, -7.800e-7, -4.389e-7, 3.411e-7
-0.391, -7.833e-7, -4.386e-7, 3.448e-7
-0.392, -7.794e-7, -4.374e-7, 3.420e-7
-0.393, -7.830e-7, -4.413e-7, 3.417e-7
-0.394, -7.818e-7, -4.395e-7, 3.423e-7
-0.395, -7.809e-7, -4.395e-7, 3.414e-7
-0.396, -7.836e-7, -4.419e-7, 3.417e-7
-0.397, -7.833e-7, -4.407e-7, 3.426e-7
-0.398, -7.846e-7, -4.419e-7, 3.426e-7
-0.399, -7.821e-7, -4.413e-7, 3.408e-7
-0.400, -7.833e-7, -4.413e-7, 3.420e-7
