Mar. 20, 2018   11:36:09
Square Wave Voltammetry
File: c:\users\electrochemist\desktop\2018\20032018_unbufarray_unpap\4_g4_ph4,04_1.txt
Data Source:  Experiment
Instrument Model:  CHI1040A
Header: 
Note: 

Init E (V) = 0.7
Final E (V) = -0.4
Incr E (V) = 0.001
Amplitude (V) = 0.1
Frequency (Hz) = 152
Quiet Time (sec) = 2
Sensitivity (A/V) = 1e-6

Difference:

Forward:

Reverse:

Potential/V, Diff(i/A), For(i/A), Rev(i/A)

0.699, -7.818e-7, -2.216e-7, 5.602e-7
0.698, -9.759e-7, -4.639e-7, 5.120e-7
0.697, -9.799e-7, -4.779e-7, 5.019e-7
0.696, -9.786e-7, -4.804e-7, 4.983e-7
0.695, -9.771e-7, -4.828e-7, 4.943e-7
0.694, -9.771e-7, -4.846e-7, 4.925e-7
0.693, -9.783e-7, -4.846e-7, 4.937e-7
0.692, -9.722e-7, -4.843e-7, 4.879e-7
0.691, -9.738e-7, -4.856e-7, 4.882e-7
0.690, -9.735e-7, -4.837e-7, 4.897e-7
0.689, -9.716e-7, -4.856e-7, 4.861e-7
0.688, -9.741e-7, -4.865e-7, 4.876e-7
0.687, -9.701e-7, -4.837e-7, 4.864e-7
0.686, -9.701e-7, -4.856e-7, 4.845e-7
0.685, -9.701e-7, -4.865e-7, 4.836e-7
0.684, -9.695e-7, -4.840e-7, 4.855e-7
0.683, -9.692e-7, -4.859e-7, 4.833e-7
0.682, -9.695e-7, -4.874e-7, 4.821e-7
0.681, -9.704e-7, -4.856e-7, 4.848e-7
0.680, -9.686e-7, -4.877e-7, 4.809e-7
0.679, -9.686e-7, -4.874e-7, 4.812e-7
0.678, -9.652e-7, -4.849e-7, 4.803e-7
0.677, -9.655e-7, -4.868e-7, 4.787e-7
0.676, -9.661e-7, -4.874e-7, 4.787e-7
0.675, -9.652e-7, -4.871e-7, 4.781e-7
0.674, -9.646e-7, -4.883e-7, 4.763e-7
0.673, -9.670e-7, -4.883e-7, 4.787e-7
0.672, -9.625e-7, -4.862e-7, 4.763e-7
0.671, -9.631e-7, -4.868e-7, 4.763e-7
0.670, -9.628e-7, -4.871e-7, 4.757e-7
0.669, -9.628e-7, -4.886e-7, 4.742e-7
0.668, -9.619e-7, -4.871e-7, 4.748e-7
0.667, -9.612e-7, -4.865e-7, 4.748e-7
0.666, -9.628e-7, -4.877e-7, 4.751e-7
0.665, -9.625e-7, -4.871e-7, 4.754e-7
0.664, -9.625e-7, -4.877e-7, 4.748e-7
0.663, -9.600e-7, -4.880e-7, 4.720e-7
0.662, -9.643e-7, -4.886e-7, 4.757e-7
0.661, -9.619e-7, -4.880e-7, 4.739e-7
0.660, -9.609e-7, -4.895e-7, 4.714e-7
0.659, -9.600e-7, -4.877e-7, 4.723e-7
0.658, -9.591e-7, -4.877e-7, 4.714e-7
0.657, -9.609e-7, -4.895e-7, 4.714e-7
0.656, -9.616e-7, -4.886e-7, 4.729e-7
0.655, -9.588e-7, -4.880e-7, 4.708e-7
0.654, -9.619e-7, -4.910e-7, 4.708e-7
0.653, -9.628e-7, -4.904e-7, 4.723e-7
0.652, -9.603e-7, -4.901e-7, 4.702e-7
0.651, -9.625e-7, -4.920e-7, 4.705e-7
0.650, -9.616e-7, -4.904e-7, 4.711e-7
0.649, -9.609e-7, -4.917e-7, 4.693e-7
0.648, -9.631e-7, -4.920e-7, 4.711e-7
0.647, -9.622e-7, -4.910e-7, 4.711e-7
0.646, -9.597e-7, -4.923e-7, 4.675e-7
0.645, -9.612e-7, -4.920e-7, 4.693e-7
0.644, -9.588e-7, -4.904e-7, 4.684e-7
0.643, -9.616e-7, -4.938e-7, 4.678e-7
0.642, -9.619e-7, -4.923e-7, 4.696e-7
0.641, -9.603e-7, -4.917e-7, 4.687e-7
0.640, -9.616e-7, -4.941e-7, 4.675e-7
0.639, -9.625e-7, -4.929e-7, 4.696e-7
0.638, -9.625e-7, -4.932e-7, 4.693e-7
0.637, -9.616e-7, -4.938e-7, 4.678e-7
0.636, -9.652e-7, -4.935e-7, 4.717e-7
0.635, -9.622e-7, -4.935e-7, 4.687e-7
0.634, -9.646e-7, -4.965e-7, 4.681e-7
0.633, -9.655e-7, -4.944e-7, 4.711e-7
0.632, -9.628e-7, -4.941e-7, 4.687e-7
0.631, -9.646e-7, -4.959e-7, 4.687e-7
0.630, -9.667e-7, -4.968e-7, 4.699e-7
0.629, -9.652e-7, -4.962e-7, 4.690e-7
0.628, -9.677e-7, -4.984e-7, 4.693e-7
0.627, -9.674e-7, -4.965e-7, 4.708e-7
0.626, -9.649e-7, -4.975e-7, 4.675e-7
0.625, -9.686e-7, -4.984e-7, 4.702e-7
0.624, -9.667e-7, -4.978e-7, 4.690e-7
0.623, -9.677e-7, -4.987e-7, 4.690e-7
0.622, -9.674e-7, -4.975e-7, 4.699e-7
0.621, -9.689e-7, -4.999e-7, 4.690e-7
0.620, -9.695e-7, -5.002e-7, 4.693e-7
0.619, -9.686e-7, -4.993e-7, 4.693e-7
0.618, -9.670e-7, -5.002e-7, 4.668e-7
0.617, -9.686e-7, -4.999e-7, 4.687e-7
0.616, -9.695e-7, -4.996e-7, 4.699e-7
0.615, -9.686e-7, -5.005e-7, 4.681e-7
0.614, -9.722e-7, -5.020e-7, 4.702e-7
0.613, -9.707e-7, -5.011e-7, 4.696e-7
0.612, -9.728e-7, -5.042e-7, 4.687e-7
0.611, -9.725e-7, -5.033e-7, 4.693e-7
0.610, -9.725e-7, -5.017e-7, 4.708e-7
0.609, -9.719e-7, -5.045e-7, 4.675e-7
0.608, -9.741e-7, -5.039e-7, 4.702e-7
0.607, -9.735e-7, -5.029e-7, 4.705e-7
0.606, -9.731e-7, -5.051e-7, 4.681e-7
0.605, -9.762e-7, -5.051e-7, 4.711e-7
0.604, -9.750e-7, -5.045e-7, 4.705e-7
0.603, -9.744e-7, -5.054e-7, 4.690e-7
0.602, -9.762e-7, -5.060e-7, 4.702e-7
0.601, -9.735e-7, -5.029e-7, 4.705e-7
0.600, -9.735e-7, -5.054e-7, 4.681e-7
0.599, -9.741e-7, -5.045e-7, 4.696e-7
0.598, -9.756e-7, -5.066e-7, 4.690e-7
0.597, -9.793e-7, -5.087e-7, 4.705e-7
0.596, -9.765e-7, -5.066e-7, 4.699e-7
0.595, -9.759e-7, -5.075e-7, 4.684e-7
0.594, -9.799e-7, -5.100e-7, 4.699e-7
0.593, -9.796e-7, -5.084e-7, 4.711e-7
0.592, -9.765e-7, -5.084e-7, 4.681e-7
0.591, -9.808e-7, -5.103e-7, 4.705e-7
0.590, -9.808e-7, -5.087e-7, 4.720e-7
0.589, -9.805e-7, -5.109e-7, 4.696e-7
0.588, -9.835e-7, -5.115e-7, 4.720e-7
0.587, -9.814e-7, -5.097e-7, 4.717e-7
0.586, -9.820e-7, -5.118e-7, 4.702e-7
0.585, -9.851e-7, -5.136e-7, 4.714e-7
0.584, -9.826e-7, -5.103e-7, 4.723e-7
0.583, -9.811e-7, -5.121e-7, 4.690e-7
0.582, -9.820e-7, -5.118e-7, 4.702e-7
0.581, -9.851e-7, -5.133e-7, 4.717e-7
0.580, -9.826e-7, -5.136e-7, 4.690e-7
0.579, -9.841e-7, -5.136e-7, 4.705e-7
0.578, -9.844e-7, -5.136e-7, 4.708e-7
0.577, -9.841e-7, -5.133e-7, 4.708e-7
0.576, -9.835e-7, -5.130e-7, 4.705e-7
0.575, -9.841e-7, -5.139e-7, 4.702e-7
0.574, -9.854e-7, -5.149e-7, 4.705e-7
0.573, -9.872e-7, -5.145e-7, 4.726e-7
0.572, -9.857e-7, -5.161e-7, 4.696e-7
0.571, -9.887e-7, -5.164e-7, 4.723e-7
0.570, -9.881e-7, -5.155e-7, 4.726e-7
0.569, -9.878e-7, -5.164e-7, 4.714e-7
0.568, -9.899e-7, -5.176e-7, 4.723e-7
0.567, -9.905e-7, -5.170e-7, 4.736e-7
0.566, -9.896e-7, -5.191e-7, 4.705e-7
0.565, -9.893e-7, -5.170e-7, 4.723e-7
0.564, -9.902e-7, -5.179e-7, 4.723e-7
0.563, -9.915e-7, -5.197e-7, 4.717e-7
0.562, -9.930e-7, -5.206e-7, 4.723e-7
0.561, -9.905e-7, -5.188e-7, 4.717e-7
0.560, -9.960e-7, -5.225e-7, 4.736e-7
0.559, -9.942e-7, -5.200e-7, 4.742e-7
0.558, -9.939e-7, -5.213e-7, 4.726e-7
0.557, -9.963e-7, -5.225e-7, 4.739e-7
0.556, -9.957e-7, -5.222e-7, 4.736e-7
0.555, -9.945e-7, -5.225e-7, 4.720e-7
0.554, -9.994e-7, -5.249e-7, 4.745e-7
0.553, -9.979e-7, -5.231e-7, 4.748e-7
0.552, -1.000e-6, -5.258e-7, 4.742e-7
0.551, -1.002e-6, -5.252e-7, 4.763e-7
0.550, -9.994e-7, -5.246e-7, 4.748e-7
0.549, -1.002e-6, -5.274e-7, 4.742e-7
0.548, -1.005e-6, -5.286e-7, 4.769e-7
0.547, -1.003e-6, -5.268e-7, 4.760e-7
0.546, -1.004e-6, -5.292e-7, 4.745e-7
0.545, -1.007e-6, -5.292e-7, 4.775e-7
0.544, -1.004e-6, -5.283e-7, 4.754e-7
0.543, -1.006e-6, -5.301e-7, 4.757e-7
0.542, -1.006e-6, -5.292e-7, 4.772e-7
0.541, -1.007e-6, -5.295e-7, 4.772e-7
0.540, -1.009e-6, -5.338e-7, 4.757e-7
0.539, -1.011e-6, -5.316e-7, 4.794e-7
0.538, -1.008e-6, -5.310e-7, 4.769e-7
0.537, -1.010e-6, -5.329e-7, 4.772e-7
0.536, -1.014e-6, -5.341e-7, 4.803e-7
0.535, -1.013e-6, -5.341e-7, 4.784e-7
0.534, -1.015e-6, -5.362e-7, 4.784e-7
0.533, -1.015e-6, -5.353e-7, 4.800e-7
0.532, -1.015e-6, -5.362e-7, 4.790e-7
0.531, -1.019e-6, -5.380e-7, 4.809e-7
0.530, -1.018e-6, -5.374e-7, 4.809e-7
0.529, -1.020e-6, -5.396e-7, 4.803e-7
0.528, -1.020e-6, -5.396e-7, 4.800e-7
0.527, -1.024e-6, -5.405e-7, 4.830e-7
0.526, -1.024e-6, -5.423e-7, 4.821e-7
0.525, -1.025e-6, -5.426e-7, 4.821e-7
0.524, -1.024e-6, -5.420e-7, 4.821e-7
0.523, -1.030e-6, -5.457e-7, 4.842e-7
0.522, -1.028e-6, -5.426e-7, 4.852e-7
0.521, -1.027e-6, -5.448e-7, 4.827e-7
0.520, -1.030e-6, -5.454e-7, 4.848e-7
0.519, -1.031e-6, -5.457e-7, 4.858e-7
0.518, -1.032e-6, -5.469e-7, 4.852e-7
0.517, -1.036e-6, -5.499e-7, 4.858e-7
0.516, -1.035e-6, -5.475e-7, 4.879e-7
0.515, -1.034e-6, -5.490e-7, 4.855e-7
0.514, -1.038e-6, -5.509e-7, 4.867e-7
0.513, -1.037e-6, -5.499e-7, 4.870e-7
0.512, -1.038e-6, -5.527e-7, 4.858e-7
0.511, -1.042e-6, -5.545e-7, 4.876e-7
0.510, -1.040e-6, -5.518e-7, 4.882e-7
0.509, -1.041e-6, -5.536e-7, 4.873e-7
0.508, -1.048e-6, -5.570e-7, 4.906e-7
0.507, -1.043e-6, -5.551e-7, 4.879e-7
0.506, -1.045e-6, -5.570e-7, 4.879e-7
0.505, -1.045e-6, -5.551e-7, 4.900e-7
0.504, -1.045e-6, -5.570e-7, 4.885e-7
0.503, -1.048e-6, -5.588e-7, 4.894e-7
0.502, -1.049e-6, -5.576e-7, 4.909e-7
0.501, -1.048e-6, -5.585e-7, 4.894e-7
0.500, -1.053e-6, -5.625e-7, 4.909e-7
0.499, -1.052e-6, -5.594e-7, 4.928e-7
0.498, -1.053e-6, -5.622e-7, 4.906e-7
0.497, -1.057e-6, -5.649e-7, 4.925e-7
0.496, -1.057e-6, -5.628e-7, 4.940e-7
0.495, -1.057e-6, -5.667e-7, 4.906e-7
0.494, -1.059e-6, -5.661e-7, 4.931e-7
0.493, -1.057e-6, -5.640e-7, 4.931e-7
0.492, -1.061e-6, -5.676e-7, 4.937e-7
0.491, -1.065e-6, -5.695e-7, 4.952e-7
0.490, -1.061e-6, -5.670e-7, 4.940e-7
0.489, -1.063e-6, -5.701e-7, 4.931e-7
0.488, -1.067e-6, -5.710e-7, 4.955e-7
0.487, -1.067e-6, -5.713e-7, 4.955e-7
0.486, -1.065e-6, -5.719e-7, 4.934e-7
0.485, -1.068e-6, -5.722e-7, 4.958e-7
0.484, -1.070e-6, -5.741e-7, 4.955e-7
0.483, -1.070e-6, -5.750e-7, 4.955e-7
0.482, -1.073e-6, -5.759e-7, 4.967e-7
0.481, -1.074e-6, -5.771e-7, 4.967e-7
0.480, -1.073e-6, -5.771e-7, 4.961e-7
0.479, -1.076e-6, -5.777e-7, 4.980e-7
0.478, -1.078e-6, -5.799e-7, 4.983e-7
0.477, -1.079e-6, -5.805e-7, 4.986e-7
0.476, -1.081e-6, -5.799e-7, 5.010e-7
0.475, -1.081e-6, -5.826e-7, 4.980e-7
0.474, -1.083e-6, -5.826e-7, 5.004e-7
0.473, -1.085e-6, -5.838e-7, 5.010e-7
0.472, -1.085e-6, -5.866e-7, 4.989e-7
0.471, -1.087e-6, -5.860e-7, 5.010e-7
0.470, -1.088e-6, -5.863e-7, 5.016e-7
0.469, -1.089e-6, -5.890e-7, 5.001e-7
0.468, -1.092e-6, -5.899e-7, 5.022e-7
0.467, -1.091e-6, -5.899e-7, 5.013e-7
0.466, -1.095e-6, -5.933e-7, 5.016e-7
0.465, -1.096e-6, -5.914e-7, 5.044e-7
0.464, -1.094e-6, -5.921e-7, 5.022e-7
0.463, -1.100e-6, -5.960e-7, 5.038e-7
0.462, -1.097e-6, -5.936e-7, 5.038e-7
0.461, -1.100e-6, -5.960e-7, 5.038e-7
0.460, -1.107e-6, -5.994e-7, 5.071e-7
0.459, -1.104e-6, -5.969e-7, 5.068e-7
0.458, -1.107e-6, -6.003e-7, 5.071e-7
0.457, -1.111e-6, -6.015e-7, 5.093e-7
0.456, -1.109e-6, -6.015e-7, 5.074e-7
0.455, -1.112e-6, -6.058e-7, 5.065e-7
0.454, -1.114e-6, -6.043e-7, 5.096e-7
0.453, -1.117e-6, -6.058e-7, 5.111e-7
0.452, -1.116e-6, -6.076e-7, 5.086e-7
0.451, -1.120e-6, -6.070e-7, 5.126e-7
0.450, -1.121e-6, -6.098e-7, 5.114e-7
0.449, -1.124e-6, -6.137e-7, 5.105e-7
0.448, -1.125e-6, -6.119e-7, 5.135e-7
0.447, -1.126e-6, -6.128e-7, 5.129e-7
0.446, -1.129e-6, -6.156e-7, 5.135e-7
0.445, -1.132e-6, -6.149e-7, 5.166e-7
0.444, -1.133e-6, -6.177e-7, 5.151e-7
0.443, -1.134e-6, -6.192e-7, 5.148e-7
0.442, -1.137e-6, -6.204e-7, 5.163e-7
0.441, -1.137e-6, -6.210e-7, 5.157e-7
0.440, -1.139e-6, -6.229e-7, 5.163e-7
0.439, -1.143e-6, -6.235e-7, 5.196e-7
0.438, -1.144e-6, -6.256e-7, 5.181e-7
0.437, -1.148e-6, -6.284e-7, 5.193e-7
0.436, -1.149e-6, -6.284e-7, 5.205e-7
0.435, -1.151e-6, -6.308e-7, 5.202e-7
0.434, -1.154e-6, -6.326e-7, 5.212e-7
0.433, -1.153e-6, -6.320e-7, 5.209e-7
0.432, -1.157e-6, -6.339e-7, 5.227e-7
0.431, -1.161e-6, -6.357e-7, 5.248e-7
0.430, -1.159e-6, -6.366e-7, 5.221e-7
0.429, -1.164e-6, -6.391e-7, 5.245e-7
0.428, -1.168e-6, -6.415e-7, 5.263e-7
0.427, -1.167e-6, -6.421e-7, 5.245e-7
0.426, -1.170e-6, -6.430e-7, 5.270e-7
0.425, -1.171e-6, -6.430e-7, 5.282e-7
0.424, -1.174e-6, -6.470e-7, 5.270e-7
0.423, -1.177e-6, -6.482e-7, 5.285e-7
0.422, -1.181e-6, -6.500e-7, 5.306e-7
0.421, -1.179e-6, -6.510e-7, 5.285e-7
0.420, -1.183e-6, -6.525e-7, 5.309e-7
0.419, -1.185e-6, -6.528e-7, 5.318e-7
0.418, -1.188e-6, -6.561e-7, 5.318e-7
0.417, -1.191e-6, -6.577e-7, 5.334e-7
0.416, -1.190e-6, -6.577e-7, 5.328e-7
0.415, -1.193e-6, -6.592e-7, 5.337e-7
0.414, -1.197e-6, -6.616e-7, 5.355e-7
0.413, -1.198e-6, -6.629e-7, 5.355e-7
0.412, -1.203e-6, -6.659e-7, 5.367e-7
0.411, -1.203e-6, -6.656e-7, 5.373e-7
0.410, -1.204e-6, -6.671e-7, 5.370e-7
0.409, -1.209e-6, -6.711e-7, 5.382e-7
0.408, -1.208e-6, -6.683e-7, 5.398e-7
0.407, -1.210e-6, -6.714e-7, 5.386e-7
0.406, -1.216e-6, -6.754e-7, 5.404e-7
0.405, -1.215e-6, -6.720e-7, 5.425e-7
0.404, -1.217e-6, -6.763e-7, 5.410e-7
0.403, -1.220e-6, -6.775e-7, 5.422e-7
0.402, -1.222e-6, -6.778e-7, 5.437e-7
0.401, -1.222e-6, -6.796e-7, 5.428e-7
0.400, -1.228e-6, -6.827e-7, 5.450e-7
0.399, -1.229e-6, -6.821e-7, 5.465e-7
0.398, -1.231e-6, -6.851e-7, 5.456e-7
0.397, -1.235e-6, -6.876e-7, 5.471e-7
0.396, -1.236e-6, -6.867e-7, 5.489e-7
0.395, -1.237e-6, -6.891e-7, 5.474e-7
0.394, -1.238e-6, -6.894e-7, 5.483e-7
0.393, -1.240e-6, -6.888e-7, 5.517e-7
0.392, -1.241e-6, -6.928e-7, 5.483e-7
0.391, -1.245e-6, -6.943e-7, 5.505e-7
0.390, -1.247e-6, -6.949e-7, 5.526e-7
0.389, -1.251e-6, -6.973e-7, 5.535e-7
0.388, -1.252e-6, -6.976e-7, 5.544e-7
0.387, -1.256e-6, -7.007e-7, 5.550e-7
0.386, -1.257e-6, -7.010e-7, 5.556e-7
0.385, -1.259e-6, -7.025e-7, 5.563e-7
0.384, -1.258e-6, -7.034e-7, 5.550e-7
0.383, -1.263e-6, -7.056e-7, 5.572e-7
0.382, -1.264e-6, -7.044e-7, 5.593e-7
0.381, -1.266e-6, -7.080e-7, 5.584e-7
0.380, -1.268e-6, -7.086e-7, 5.596e-7
0.379, -1.273e-6, -7.117e-7, 5.608e-7
0.378, -1.273e-6, -7.132e-7, 5.593e-7
0.377, -1.274e-6, -7.120e-7, 5.624e-7
0.376, -1.278e-6, -7.147e-7, 5.633e-7
0.375, -1.279e-6, -7.160e-7, 5.633e-7
0.374, -1.281e-6, -7.166e-7, 5.645e-7
0.373, -1.284e-6, -7.178e-7, 5.660e-7
0.372, -1.286e-6, -7.205e-7, 5.657e-7
0.371, -1.287e-6, -7.202e-7, 5.666e-7
0.370, -1.287e-6, -7.205e-7, 5.666e-7
0.369, -1.291e-6, -7.239e-7, 5.669e-7
0.368, -1.294e-6, -7.236e-7, 5.706e-7
0.367, -1.293e-6, -7.251e-7, 5.682e-7
0.366, -1.297e-6, -7.272e-7, 5.700e-7
0.365, -1.300e-6, -7.275e-7, 5.724e-7
0.364, -1.301e-6, -7.294e-7, 5.715e-7
0.363, -1.306e-6, -7.321e-7, 5.736e-7
0.362, -1.305e-6, -7.318e-7, 5.727e-7
0.361, -1.309e-6, -7.346e-7, 5.740e-7
0.360, -1.312e-6, -7.349e-7, 5.767e-7
0.359, -1.312e-6, -7.349e-7, 5.770e-7
0.358, -1.315e-6, -7.379e-7, 5.767e-7
0.357, -1.317e-6, -7.376e-7, 5.797e-7
0.356, -1.318e-6, -7.379e-7, 5.801e-7
0.355, -1.323e-6, -7.422e-7, 5.804e-7
0.354, -1.324e-6, -7.422e-7, 5.822e-7
0.353, -1.325e-6, -7.404e-7, 5.843e-7
0.352, -1.326e-6, -7.440e-7, 5.819e-7
0.351, -1.331e-6, -7.452e-7, 5.855e-7
0.350, -1.329e-6, -7.437e-7, 5.852e-7
0.349, -1.332e-6, -7.480e-7, 5.843e-7
0.348, -1.337e-6, -7.474e-7, 5.892e-7
0.347, -1.334e-6, -7.459e-7, 5.880e-7
0.346, -1.337e-6, -7.501e-7, 5.871e-7
0.345, -1.341e-6, -7.504e-7, 5.910e-7
0.344, -1.340e-6, -7.501e-7, 5.898e-7
0.343, -1.344e-6, -7.523e-7, 5.920e-7
0.342, -1.345e-6, -7.523e-7, 5.923e-7
0.341, -1.346e-6, -7.529e-7, 5.932e-7
0.340, -1.350e-6, -7.547e-7, 5.950e-7
0.339, -1.348e-6, -7.547e-7, 5.938e-7
0.338, -1.353e-6, -7.571e-7, 5.956e-7
0.337, -1.353e-6, -7.559e-7, 5.974e-7
0.336, -1.356e-6, -7.584e-7, 5.974e-7
0.335, -1.359e-6, -7.602e-7, 5.987e-7
0.334, -1.359e-6, -7.590e-7, 6.002e-7
0.333, -1.360e-6, -7.593e-7, 6.011e-7
0.332, -1.363e-6, -7.611e-7, 6.014e-7
0.331, -1.363e-6, -7.599e-7, 6.029e-7
0.330, -1.366e-6, -7.617e-7, 6.039e-7
0.329, -1.367e-6, -7.629e-7, 6.045e-7
0.328, -1.369e-6, -7.633e-7, 6.060e-7
0.327, -1.369e-6, -7.645e-7, 6.048e-7
0.326, -1.372e-6, -7.651e-7, 6.066e-7
0.325, -1.372e-6, -7.642e-7, 6.078e-7
0.324, -1.374e-6, -7.666e-7, 6.072e-7
0.323, -1.375e-6, -7.657e-7, 6.090e-7
0.322, -1.377e-6, -7.657e-7, 6.112e-7
0.321, -1.375e-6, -7.654e-7, 6.097e-7
0.320, -1.380e-6, -7.669e-7, 6.127e-7
0.319, -1.378e-6, -7.654e-7, 6.127e-7
0.318, -1.382e-6, -7.700e-7, 6.124e-7
0.317, -1.383e-6, -7.681e-7, 6.148e-7
0.316, -1.382e-6, -7.675e-7, 6.145e-7
0.315, -1.384e-6, -7.684e-7, 6.158e-7
0.314, -1.382e-6, -7.654e-7, 6.167e-7
0.313, -1.384e-6, -7.678e-7, 6.164e-7
0.312, -1.389e-6, -7.706e-7, 6.185e-7
0.311, -1.389e-6, -7.681e-7, 6.209e-7
0.310, -1.386e-6, -7.687e-7, 6.173e-7
0.309, -1.390e-6, -7.697e-7, 6.206e-7
0.308, -1.390e-6, -7.678e-7, 6.225e-7
0.307, -1.388e-6, -7.675e-7, 6.206e-7
0.306, -1.391e-6, -7.697e-7, 6.216e-7
0.305, -1.392e-6, -7.675e-7, 6.243e-7
0.304, -1.390e-6, -7.678e-7, 6.225e-7
0.303, -1.393e-6, -7.690e-7, 6.237e-7
0.302, -1.393e-6, -7.672e-7, 6.255e-7
0.301, -1.391e-6, -7.663e-7, 6.246e-7
0.300, -1.393e-6, -7.669e-7, 6.258e-7
0.299, -1.394e-6, -7.666e-7, 6.277e-7
0.298, -1.393e-6, -7.672e-7, 6.255e-7
0.297, -1.396e-6, -7.675e-7, 6.289e-7
0.296, -1.397e-6, -7.669e-7, 6.298e-7
0.295, -1.394e-6, -7.663e-7, 6.274e-7
0.294, -1.396e-6, -7.654e-7, 6.304e-7
0.293, -1.394e-6, -7.629e-7, 6.307e-7
0.292, -1.395e-6, -7.654e-7, 6.301e-7
0.291, -1.397e-6, -7.645e-7, 6.328e-7
0.290, -1.395e-6, -7.642e-7, 6.310e-7
0.289, -1.396e-6, -7.639e-7, 6.325e-7
0.288, -1.394e-6, -7.614e-7, 6.325e-7
0.287, -1.394e-6, -7.611e-7, 6.332e-7
0.286, -1.398e-6, -7.623e-7, 6.353e-7
0.285, -1.395e-6, -7.605e-7, 6.344e-7
0.284, -1.395e-6, -7.617e-7, 6.332e-7
0.283, -1.395e-6, -7.590e-7, 6.365e-7
0.282, -1.393e-6, -7.584e-7, 6.350e-7
0.281, -1.396e-6, -7.593e-7, 6.365e-7
0.280, -1.395e-6, -7.581e-7, 6.365e-7
0.279, -1.396e-6, -7.587e-7, 6.371e-7
0.278, -1.395e-6, -7.587e-7, 6.359e-7
0.277, -1.394e-6, -7.556e-7, 6.386e-7
0.276, -1.392e-6, -7.547e-7, 6.374e-7
0.275, -1.393e-6, -7.556e-7, 6.374e-7
0.274, -1.394e-6, -7.535e-7, 6.402e-7
0.273, -1.392e-6, -7.529e-7, 6.386e-7
0.272, -1.393e-6, -7.535e-7, 6.399e-7
0.271, -1.393e-6, -7.532e-7, 6.402e-7
0.270, -1.391e-6, -7.510e-7, 6.402e-7
0.269, -1.394e-6, -7.523e-7, 6.420e-7
0.268, -1.394e-6, -7.504e-7, 6.435e-7
0.267, -1.392e-6, -7.501e-7, 6.417e-7
0.266, -1.393e-6, -7.480e-7, 6.454e-7
0.265, -1.392e-6, -7.486e-7, 6.432e-7
0.264, -1.392e-6, -7.492e-7, 6.426e-7
0.263, -1.390e-6, -7.456e-7, 6.441e-7
0.262, -1.388e-6, -7.437e-7, 6.444e-7
0.261, -1.391e-6, -7.471e-7, 6.438e-7
0.260, -1.388e-6, -7.443e-7, 6.432e-7
0.259, -1.387e-6, -7.431e-7, 6.438e-7
0.258, -1.386e-6, -7.431e-7, 6.432e-7
0.257, -1.387e-6, -7.410e-7, 6.463e-7
0.256, -1.383e-6, -7.382e-7, 6.447e-7
0.255, -1.384e-6, -7.410e-7, 6.429e-7
0.254, -1.385e-6, -7.394e-7, 6.460e-7
0.253, -1.383e-6, -7.376e-7, 6.454e-7
0.252, -1.385e-6, -7.394e-7, 6.454e-7
0.251, -1.383e-6, -7.367e-7, 6.463e-7
0.250, -1.379e-6, -7.340e-7, 6.447e-7
0.249, -1.379e-6, -7.330e-7, 6.457e-7
0.248, -1.380e-6, -7.330e-7, 6.472e-7
0.247, -1.375e-6, -7.315e-7, 6.438e-7
0.246, -1.379e-6, -7.321e-7, 6.472e-7
0.245, -1.379e-6, -7.306e-7, 6.481e-7
0.244, -1.376e-6, -7.300e-7, 6.463e-7
0.243, -1.376e-6, -7.285e-7, 6.472e-7
0.242, -1.375e-6, -7.282e-7, 6.472e-7
0.241, -1.374e-6, -7.269e-7, 6.472e-7
0.240, -1.373e-6, -7.251e-7, 6.481e-7
0.239, -1.371e-6, -7.248e-7, 6.460e-7
0.238, -1.371e-6, -7.251e-7, 6.463e-7
0.237, -1.370e-6, -7.224e-7, 6.478e-7
0.236, -1.370e-6, -7.227e-7, 6.469e-7
0.235, -1.366e-6, -7.208e-7, 6.457e-7
0.234, -1.366e-6, -7.187e-7, 6.472e-7
0.233, -1.363e-6, -7.184e-7, 6.441e-7
0.232, -1.364e-6, -7.178e-7, 6.460e-7
0.231, -1.363e-6, -7.166e-7, 6.466e-7
0.230, -1.360e-6, -7.153e-7, 6.451e-7
0.229, -1.360e-6, -7.147e-7, 6.451e-7
0.228, -1.360e-6, -7.135e-7, 6.466e-7
0.227, -1.355e-6, -7.126e-7, 6.423e-7
0.226, -1.358e-6, -7.123e-7, 6.457e-7
0.225, -1.356e-6, -7.098e-7, 6.463e-7
0.224, -1.352e-6, -7.095e-7, 6.429e-7
0.223, -1.353e-6, -7.080e-7, 6.451e-7
0.222, -1.349e-6, -7.062e-7, 6.429e-7
0.221, -1.347e-6, -7.062e-7, 6.405e-7
0.220, -1.348e-6, -7.037e-7, 6.444e-7
0.219, -1.343e-6, -7.019e-7, 6.408e-7
0.218, -1.347e-6, -7.044e-7, 6.423e-7
0.217, -1.346e-6, -7.016e-7, 6.444e-7
0.216, -1.339e-6, -7.007e-7, 6.380e-7
0.215, -1.341e-6, -7.016e-7, 6.396e-7
0.214, -1.336e-6, -6.952e-7, 6.408e-7
0.213, -1.334e-6, -6.964e-7, 6.371e-7
0.212, -1.335e-6, -6.964e-7, 6.383e-7
0.211, -1.334e-6, -6.931e-7, 6.405e-7
0.210, -1.327e-6, -6.918e-7, 6.350e-7
0.209, -1.328e-6, -6.931e-7, 6.353e-7
0.208, -1.327e-6, -6.894e-7, 6.374e-7
0.207, -1.325e-6, -6.903e-7, 6.344e-7
0.206, -1.325e-6, -6.903e-7, 6.350e-7
0.205, -1.320e-6, -6.864e-7, 6.338e-7
0.204, -1.319e-6, -6.867e-7, 6.322e-7
0.203, -1.318e-6, -6.864e-7, 6.319e-7
0.202, -1.314e-6, -6.830e-7, 6.310e-7
0.201, -1.314e-6, -6.830e-7, 6.307e-7
0.200, -1.315e-6, -6.827e-7, 6.319e-7
0.199, -1.310e-6, -6.802e-7, 6.295e-7
0.198, -1.308e-6, -6.802e-7, 6.277e-7
0.197, -1.306e-6, -6.784e-7, 6.274e-7
0.196, -1.305e-6, -6.778e-7, 6.267e-7
0.195, -1.303e-6, -6.772e-7, 6.261e-7
0.194, -1.301e-6, -6.745e-7, 6.261e-7
0.193, -1.297e-6, -6.751e-7, 6.222e-7
0.192, -1.296e-6, -6.726e-7, 6.234e-7
0.191, -1.294e-6, -6.711e-7, 6.225e-7
0.190, -1.293e-6, -6.723e-7, 6.209e-7
0.189, -1.291e-6, -6.693e-7, 6.216e-7
0.188, -1.286e-6, -6.674e-7, 6.188e-7
0.187, -1.285e-6, -6.683e-7, 6.167e-7
0.186, -1.284e-6, -6.662e-7, 6.179e-7
0.185, -1.283e-6, -6.656e-7, 6.176e-7
0.184, -1.281e-6, -6.653e-7, 6.155e-7
0.183, -1.279e-6, -6.629e-7, 6.161e-7
0.182, -1.276e-6, -6.622e-7, 6.139e-7
0.181, -1.274e-6, -6.619e-7, 6.118e-7
0.180, -1.273e-6, -6.601e-7, 6.127e-7
0.179, -1.271e-6, -6.598e-7, 6.112e-7
0.178, -1.269e-6, -6.589e-7, 6.100e-7
0.177, -1.269e-6, -6.561e-7, 6.127e-7
0.176, -1.265e-6, -6.571e-7, 6.075e-7
0.175, -1.264e-6, -6.564e-7, 6.078e-7
0.174, -1.262e-6, -6.543e-7, 6.075e-7
0.173, -1.258e-6, -6.540e-7, 6.042e-7
0.172, -1.258e-6, -6.519e-7, 6.060e-7
0.171, -1.255e-6, -6.506e-7, 6.045e-7
0.170, -1.255e-6, -6.516e-7, 6.029e-7
0.169, -1.250e-6, -6.488e-7, 6.014e-7
0.168, -1.247e-6, -6.473e-7, 5.993e-7
0.167, -1.248e-6, -6.497e-7, 5.981e-7
0.166, -1.247e-6, -6.470e-7, 5.999e-7
0.165, -1.246e-6, -6.458e-7, 5.999e-7
0.164, -1.242e-6, -6.464e-7, 5.956e-7
0.163, -1.241e-6, -6.436e-7, 5.974e-7
0.162, -1.237e-6, -6.430e-7, 5.944e-7
0.161, -1.236e-6, -6.442e-7, 5.913e-7
0.160, -1.237e-6, -6.418e-7, 5.947e-7
0.159, -1.231e-6, -6.400e-7, 5.907e-7
0.158, -1.231e-6, -6.427e-7, 5.886e-7
0.157, -1.229e-6, -6.394e-7, 5.895e-7
0.156, -1.226e-6, -6.375e-7, 5.883e-7
0.155, -1.225e-6, -6.387e-7, 5.862e-7
0.154, -1.223e-6, -6.357e-7, 5.874e-7
0.153, -1.221e-6, -6.357e-7, 5.855e-7
0.152, -1.221e-6, -6.351e-7, 5.858e-7
0.151, -1.219e-6, -6.342e-7, 5.846e-7
0.150, -1.216e-6, -6.336e-7, 5.825e-7
0.149, -1.215e-6, -6.323e-7, 5.831e-7
0.148, -1.213e-6, -6.330e-7, 5.801e-7
0.147, -1.210e-6, -6.317e-7, 5.785e-7
0.146, -1.211e-6, -6.308e-7, 5.801e-7
0.145, -1.211e-6, -6.311e-7, 5.794e-7
0.144, -1.206e-6, -6.302e-7, 5.755e-7
0.143, -1.205e-6, -6.278e-7, 5.770e-7
0.142, -1.204e-6, -6.293e-7, 5.752e-7
0.141, -1.203e-6, -6.275e-7, 5.752e-7
0.140, -1.199e-6, -6.262e-7, 5.724e-7
0.139, -1.197e-6, -6.247e-7, 5.718e-7
0.138, -1.196e-6, -6.244e-7, 5.712e-7
0.137, -1.197e-6, -6.238e-7, 5.730e-7
0.136, -1.192e-6, -6.235e-7, 5.685e-7
0.135, -1.193e-6, -6.241e-7, 5.685e-7
0.134, -1.188e-6, -6.214e-7, 5.669e-7
0.133, -1.187e-6, -6.217e-7, 5.651e-7
0.132, -1.188e-6, -6.214e-7, 5.663e-7
0.131, -1.182e-6, -6.183e-7, 5.639e-7
0.130, -1.182e-6, -6.201e-7, 5.620e-7
0.129, -1.179e-6, -6.174e-7, 5.617e-7
0.128, -1.178e-6, -6.159e-7, 5.617e-7
0.127, -1.178e-6, -6.174e-7, 5.608e-7
0.126, -1.174e-6, -6.149e-7, 5.593e-7
0.125, -1.173e-6, -6.149e-7, 5.578e-7
0.124, -1.171e-6, -6.140e-7, 5.572e-7
0.123, -1.170e-6, -6.122e-7, 5.578e-7
0.122, -1.165e-6, -6.119e-7, 5.535e-7
0.121, -1.166e-6, -6.122e-7, 5.538e-7
0.120, -1.161e-6, -6.082e-7, 5.532e-7
0.119, -1.161e-6, -6.095e-7, 5.514e-7
0.118, -1.161e-6, -6.095e-7, 5.520e-7
0.117, -1.159e-6, -6.076e-7, 5.511e-7
0.116, -1.158e-6, -6.082e-7, 5.498e-7
0.115, -1.156e-6, -6.079e-7, 5.480e-7
0.114, -1.154e-6, -6.058e-7, 5.486e-7
0.113, -1.152e-6, -6.058e-7, 5.459e-7
0.112, -1.152e-6, -6.064e-7, 5.453e-7
0.111, -1.149e-6, -6.030e-7, 5.462e-7
0.110, -1.146e-6, -6.030e-7, 5.434e-7
0.109, -1.147e-6, -6.037e-7, 5.431e-7
0.108, -1.146e-6, -6.024e-7, 5.431e-7
0.107, -1.143e-6, -6.018e-7, 5.407e-7
0.106, -1.141e-6, -6.003e-7, 5.404e-7
0.105, -1.140e-6, -5.991e-7, 5.407e-7
0.104, -1.138e-6, -5.997e-7, 5.379e-7
0.103, -1.136e-6, -5.988e-7, 5.376e-7
0.102, -1.134e-6, -5.972e-7, 5.370e-7
0.101, -1.133e-6, -5.976e-7, 5.355e-7
0.100, -1.131e-6, -5.951e-7, 5.355e-7
0.099, -1.130e-6, -5.954e-7, 5.343e-7
0.098, -1.128e-6, -5.957e-7, 5.328e-7
0.097, -1.126e-6, -5.936e-7, 5.321e-7
0.096, -1.125e-6, -5.936e-7, 5.309e-7
0.095, -1.126e-6, -5.939e-7, 5.318e-7
0.094, -1.122e-6, -5.911e-7, 5.306e-7
0.093, -1.121e-6, -5.927e-7, 5.279e-7
0.092, -1.121e-6, -5.908e-7, 5.300e-7
0.091, -1.119e-6, -5.908e-7, 5.279e-7
0.090, -1.117e-6, -5.902e-7, 5.263e-7
0.089, -1.117e-6, -5.890e-7, 5.285e-7
0.088, -1.112e-6, -5.860e-7, 5.257e-7
0.087, -1.110e-6, -5.863e-7, 5.239e-7
0.086, -1.112e-6, -5.857e-7, 5.263e-7
0.085, -1.110e-6, -5.860e-7, 5.245e-7
0.084, -1.107e-6, -5.847e-7, 5.224e-7
0.083, -1.107e-6, -5.838e-7, 5.230e-7
0.082, -1.105e-6, -5.841e-7, 5.205e-7
0.081, -1.103e-6, -5.832e-7, 5.202e-7
0.080, -1.105e-6, -5.820e-7, 5.227e-7
0.079, -1.102e-6, -5.826e-7, 5.193e-7
0.078, -1.102e-6, -5.832e-7, 5.190e-7
0.077, -1.100e-6, -5.799e-7, 5.199e-7
0.076, -1.099e-6, -5.817e-7, 5.169e-7
0.075, -1.098e-6, -5.814e-7, 5.169e-7
0.074, -1.096e-6, -5.795e-7, 5.163e-7
0.073, -1.095e-6, -5.792e-7, 5.160e-7
0.072, -1.096e-6, -5.789e-7, 5.169e-7
0.071, -1.091e-6, -5.768e-7, 5.144e-7
0.070, -1.091e-6, -5.780e-7, 5.129e-7
0.069, -1.090e-6, -5.750e-7, 5.151e-7
0.068, -1.090e-6, -5.762e-7, 5.135e-7
0.067, -1.088e-6, -5.762e-7, 5.123e-7
0.066, -1.090e-6, -5.756e-7, 5.144e-7
0.065, -1.086e-6, -5.734e-7, 5.123e-7
0.064, -1.085e-6, -5.747e-7, 5.105e-7
0.063, -1.087e-6, -5.734e-7, 5.132e-7
0.062, -1.083e-6, -5.722e-7, 5.111e-7
0.061, -1.082e-6, -5.719e-7, 5.102e-7
0.060, -1.080e-6, -5.707e-7, 5.096e-7
0.059, -1.081e-6, -5.707e-7, 5.099e-7
0.058, -1.080e-6, -5.704e-7, 5.096e-7
0.057, -1.080e-6, -5.707e-7, 5.089e-7
0.056, -1.078e-6, -5.689e-7, 5.089e-7
0.055, -1.078e-6, -5.698e-7, 5.080e-7
0.054, -1.075e-6, -5.683e-7, 5.068e-7
0.053, -1.075e-6, -5.680e-7, 5.074e-7
0.052, -1.073e-6, -5.664e-7, 5.068e-7
0.051, -1.073e-6, -5.661e-7, 5.065e-7
0.050, -1.074e-6, -5.670e-7, 5.068e-7
0.049, -1.073e-6, -5.661e-7, 5.065e-7
0.048, -1.068e-6, -5.643e-7, 5.041e-7
0.047, -1.070e-6, -5.646e-7, 5.050e-7
0.046, -1.070e-6, -5.643e-7, 5.059e-7
0.045, -1.067e-6, -5.637e-7, 5.038e-7
0.044, -1.066e-6, -5.625e-7, 5.035e-7
0.043, -1.064e-6, -5.615e-7, 5.022e-7
0.042, -1.062e-6, -5.609e-7, 5.010e-7
0.041, -1.065e-6, -5.609e-7, 5.038e-7
0.040, -1.062e-6, -5.600e-7, 5.022e-7
0.039, -1.061e-6, -5.615e-7, 4.998e-7
0.038, -1.060e-6, -5.603e-7, 4.998e-7
0.037, -1.059e-6, -5.579e-7, 5.010e-7
0.036, -1.056e-6, -5.588e-7, 4.977e-7
0.035, -1.058e-6, -5.579e-7, 5.001e-7
0.034, -1.056e-6, -5.551e-7, 5.013e-7
0.033, -1.056e-6, -5.564e-7, 4.992e-7
0.032, -1.053e-6, -5.548e-7, 4.983e-7
0.031, -1.053e-6, -5.539e-7, 4.992e-7
0.030, -1.052e-6, -5.557e-7, 4.961e-7
0.029, -1.052e-6, -5.542e-7, 4.974e-7
0.028, -1.048e-6, -5.524e-7, 4.958e-7
0.027, -1.048e-6, -5.515e-7, 4.961e-7
0.026, -1.047e-6, -5.503e-7, 4.967e-7
0.025, -1.047e-6, -5.518e-7, 4.949e-7
0.024, -1.045e-6, -5.503e-7, 4.952e-7
0.023, -1.044e-6, -5.490e-7, 4.952e-7
0.022, -1.042e-6, -5.493e-7, 4.922e-7
0.021, -1.042e-6, -5.506e-7, 4.919e-7
0.020, -1.040e-6, -5.478e-7, 4.925e-7
0.019, -1.038e-6, -5.466e-7, 4.912e-7
0.018, -1.038e-6, -5.472e-7, 4.903e-7
0.017, -1.037e-6, -5.451e-7, 4.922e-7
0.016, -1.036e-6, -5.448e-7, 4.912e-7
0.015, -1.034e-6, -5.457e-7, 4.885e-7
0.014, -1.033e-6, -5.432e-7, 4.894e-7
0.013, -1.031e-6, -5.423e-7, 4.882e-7
0.012, -1.032e-6, -5.435e-7, 4.888e-7
0.011, -1.030e-6, -5.423e-7, 4.876e-7
0.010, -1.028e-6, -5.408e-7, 4.873e-7
0.009, -1.028e-6, -5.399e-7, 4.882e-7
0.008, -1.027e-6, -5.393e-7, 4.882e-7
0.007, -1.026e-6, -5.402e-7, 4.855e-7
0.006, -1.026e-6, -5.384e-7, 4.876e-7
0.005, -1.023e-6, -5.380e-7, 4.848e-7
0.004, -1.024e-6, -5.371e-7, 4.870e-7
0.003, -1.023e-6, -5.368e-7, 4.858e-7
0.002, -1.019e-6, -5.359e-7, 4.830e-7
0.001, -1.017e-6, -5.338e-7, 4.830e-7
0.000, -1.018e-6, -5.344e-7, 4.839e-7
-0.001, -1.015e-6, -5.326e-7, 4.824e-7
-0.002, -1.015e-6, -5.335e-7, 4.818e-7
-0.003, -1.014e-6, -5.332e-7, 4.806e-7
-0.004, -1.012e-6, -5.310e-7, 4.812e-7
-0.005, -1.013e-6, -5.316e-7, 4.818e-7
-0.006, -1.010e-6, -5.301e-7, 4.803e-7
-0.007, -1.010e-6, -5.310e-7, 4.790e-7
-0.008, -1.012e-6, -5.298e-7, 4.821e-7
-0.009, -1.006e-6, -5.271e-7, 4.787e-7
-0.010, -1.006e-6, -5.280e-7, 4.778e-7
-0.011, -1.005e-6, -5.265e-7, 4.790e-7
-0.012, -1.003e-6, -5.265e-7, 4.769e-7
-0.013, -1.001e-6, -5.252e-7, 4.757e-7
-0.014, -1.000e-6, -5.240e-7, 4.760e-7
-0.015, -1.000e-6, -5.252e-7, 4.748e-7
-0.016, -1.002e-6, -5.252e-7, 4.763e-7
-0.017, -9.976e-7, -5.222e-7, 4.754e-7
-0.018, -9.954e-7, -5.237e-7, 4.717e-7
-0.019, -9.963e-7, -5.219e-7, 4.745e-7
-0.020, -9.960e-7, -5.216e-7, 4.745e-7
-0.021, -9.936e-7, -5.225e-7, 4.711e-7
-0.022, -9.939e-7, -5.203e-7, 4.736e-7
-0.023, -9.890e-7, -5.173e-7, 4.717e-7
-0.024, -9.893e-7, -5.197e-7, 4.696e-7
-0.025, -9.899e-7, -5.176e-7, 4.723e-7
-0.026, -9.863e-7, -5.161e-7, 4.702e-7
-0.027, -9.860e-7, -5.179e-7, 4.681e-7
-0.028, -9.875e-7, -5.170e-7, 4.705e-7
-0.029, -9.832e-7, -5.155e-7, 4.678e-7
-0.030, -9.851e-7, -5.170e-7, 4.681e-7
-0.031, -9.838e-7, -5.158e-7, 4.681e-7
-0.032, -9.799e-7, -5.133e-7, 4.665e-7
-0.033, -9.817e-7, -5.149e-7, 4.668e-7
-0.034, -9.802e-7, -5.118e-7, 4.684e-7
-0.035, -9.783e-7, -5.127e-7, 4.656e-7
-0.036, -9.768e-7, -5.121e-7, 4.647e-7
-0.037, -9.777e-7, -5.118e-7, 4.659e-7
-0.038, -9.747e-7, -5.112e-7, 4.635e-7
-0.039, -9.753e-7, -5.106e-7, 4.647e-7
-0.040, -9.735e-7, -5.097e-7, 4.638e-7
-0.041, -9.741e-7, -5.100e-7, 4.641e-7
-0.042, -9.716e-7, -5.088e-7, 4.629e-7
-0.043, -9.701e-7, -5.075e-7, 4.626e-7
-0.044, -9.713e-7, -5.097e-7, 4.616e-7
-0.045, -9.689e-7, -5.069e-7, 4.620e-7
-0.046, -9.683e-7, -5.075e-7, 4.607e-7
-0.047, -9.677e-7, -5.072e-7, 4.604e-7
-0.048, -9.655e-7, -5.042e-7, 4.613e-7
-0.049, -9.649e-7, -5.060e-7, 4.589e-7
-0.050, -9.634e-7, -5.051e-7, 4.583e-7
-0.051, -9.612e-7, -5.023e-7, 4.589e-7
-0.052, -9.628e-7, -5.039e-7, 4.589e-7
-0.053, -9.594e-7, -5.023e-7, 4.571e-7
-0.054, -9.588e-7, -5.011e-7, 4.577e-7
-0.055, -9.585e-7, -5.023e-7, 4.562e-7
-0.056, -9.594e-7, -5.033e-7, 4.562e-7
-0.057, -9.555e-7, -4.993e-7, 4.562e-7
-0.058, -9.533e-7, -5.008e-7, 4.525e-7
-0.059, -9.561e-7, -5.011e-7, 4.549e-7
-0.060, -9.518e-7, -4.975e-7, 4.543e-7
-0.061, -9.521e-7, -4.993e-7, 4.528e-7
-0.062, -9.512e-7, -4.972e-7, 4.540e-7
-0.063, -9.490e-7, -4.962e-7, 4.528e-7
-0.064, -9.500e-7, -4.978e-7, 4.522e-7
-0.065, -9.475e-7, -4.953e-7, 4.522e-7
-0.066, -9.445e-7, -4.950e-7, 4.494e-7
-0.067, -9.448e-7, -4.947e-7, 4.501e-7
-0.068, -9.448e-7, -4.935e-7, 4.513e-7
-0.069, -9.432e-7, -4.941e-7, 4.491e-7
-0.070, -9.423e-7, -4.932e-7, 4.491e-7
-0.071, -9.411e-7, -4.907e-7, 4.504e-7
-0.072, -9.381e-7, -4.917e-7, 4.464e-7
-0.073, -9.390e-7, -4.920e-7, 4.470e-7
-0.074, -9.393e-7, -4.914e-7, 4.479e-7
-0.075, -9.353e-7, -4.892e-7, 4.461e-7
-0.076, -9.353e-7, -4.895e-7, 4.458e-7
-0.077, -9.323e-7, -4.874e-7, 4.449e-7
-0.078, -9.310e-7, -4.880e-7, 4.430e-7
-0.079, -9.323e-7, -4.886e-7, 4.436e-7
-0.080, -9.301e-7, -4.868e-7, 4.433e-7
-0.081, -9.286e-7, -4.877e-7, 4.409e-7
-0.082, -9.283e-7, -4.865e-7, 4.418e-7
-0.083, -9.249e-7, -4.834e-7, 4.415e-7
-0.084, -9.222e-7, -4.825e-7, 4.397e-7
-0.085, -9.240e-7, -4.831e-7, 4.409e-7
-0.086, -9.228e-7, -4.837e-7, 4.391e-7
-0.087, -9.204e-7, -4.831e-7, 4.372e-7
-0.088, -9.210e-7, -4.816e-7, 4.394e-7
-0.089, -9.204e-7, -4.828e-7, 4.375e-7
-0.090, -9.188e-7, -4.813e-7, 4.375e-7
-0.091, -9.173e-7, -4.807e-7, 4.366e-7
-0.092, -9.149e-7, -4.795e-7, 4.354e-7
-0.093, -9.136e-7, -4.795e-7, 4.342e-7
-0.094, -9.118e-7, -4.773e-7, 4.345e-7
-0.095, -9.109e-7, -4.792e-7, 4.317e-7
-0.096, -9.127e-7, -4.785e-7, 4.342e-7
-0.097, -9.082e-7, -4.764e-7, 4.317e-7
-0.098, -9.091e-7, -4.782e-7, 4.308e-7
-0.099, -9.072e-7, -4.755e-7, 4.317e-7
-0.100, -9.072e-7, -4.755e-7, 4.317e-7
-0.101, -9.078e-7, -4.782e-7, 4.296e-7
-0.102, -9.063e-7, -4.746e-7, 4.317e-7
-0.103, -9.017e-7, -4.740e-7, 4.278e-7
-0.104, -9.033e-7, -4.746e-7, 4.287e-7
-0.105, -9.030e-7, -4.740e-7, 4.290e-7
-0.106, -8.993e-7, -4.718e-7, 4.275e-7
-0.107, -8.990e-7, -4.727e-7, 4.263e-7
-0.108, -8.981e-7, -4.715e-7, 4.266e-7
-0.109, -8.966e-7, -4.712e-7, 4.253e-7
-0.110, -8.969e-7, -4.718e-7, 4.250e-7
-0.111, -8.944e-7, -4.691e-7, 4.253e-7
-0.112, -8.950e-7, -4.700e-7, 4.250e-7
-0.113, -8.941e-7, -4.691e-7, 4.250e-7
-0.114, -8.929e-7, -4.679e-7, 4.250e-7
-0.115, -8.917e-7, -4.703e-7, 4.214e-7
-0.116, -8.914e-7, -4.673e-7, 4.241e-7
-0.117, -8.908e-7, -4.682e-7, 4.226e-7
-0.118, -8.886e-7, -4.676e-7, 4.211e-7
-0.119, -8.886e-7, -4.663e-7, 4.223e-7
-0.120, -8.880e-7, -4.663e-7, 4.217e-7
-0.121, -8.871e-7, -4.685e-7, 4.186e-7
-0.122, -8.847e-7, -4.648e-7, 4.198e-7
-0.123, -8.828e-7, -4.633e-7, 4.195e-7
-0.124, -8.847e-7, -4.651e-7, 4.195e-7
-0.125, -8.850e-7, -4.651e-7, 4.198e-7
-0.126, -8.792e-7, -4.624e-7, 4.168e-7
-0.127, -8.810e-7, -4.645e-7, 4.165e-7
-0.128, -8.801e-7, -4.624e-7, 4.177e-7
-0.129, -8.792e-7, -4.618e-7, 4.174e-7
-0.130, -8.792e-7, -4.630e-7, 4.162e-7
-0.131, -8.801e-7, -4.636e-7, 4.165e-7
-0.132, -8.776e-7, -4.618e-7, 4.159e-7
-0.133, -8.776e-7, -4.608e-7, 4.168e-7
-0.134, -8.758e-7, -4.615e-7, 4.143e-7
-0.135, -8.764e-7, -4.615e-7, 4.150e-7
-0.136, -8.740e-7, -4.596e-7, 4.143e-7
-0.137, -8.737e-7, -4.612e-7, 4.125e-7
-0.138, -8.740e-7, -4.605e-7, 4.134e-7
-0.139, -8.728e-7, -4.602e-7, 4.125e-7
-0.140, -8.703e-7, -4.587e-7, 4.116e-7
-0.141, -8.715e-7, -4.593e-7, 4.122e-7
-0.142, -8.715e-7, -4.593e-7, 4.122e-7
-0.143, -8.685e-7, -4.578e-7, 4.107e-7
-0.144, -8.685e-7, -4.575e-7, 4.110e-7
-0.145, -8.673e-7, -4.569e-7, 4.104e-7
-0.146, -8.673e-7, -4.572e-7, 4.101e-7
-0.147, -8.648e-7, -4.563e-7, 4.086e-7
-0.148, -8.654e-7, -4.566e-7, 4.089e-7
-0.149, -8.663e-7, -4.572e-7, 4.092e-7
-0.150, -8.670e-7, -4.569e-7, 4.101e-7
-0.151, -8.633e-7, -4.547e-7, 4.086e-7
-0.152, -8.599e-7, -4.550e-7, 4.049e-7
-0.153, -8.630e-7, -4.554e-7, 4.076e-7
-0.154, -8.593e-7, -4.526e-7, 4.067e-7
-0.155, -8.612e-7, -4.544e-7, 4.067e-7
-0.156, -8.596e-7, -4.526e-7, 4.070e-7
-0.157, -8.578e-7, -4.523e-7, 4.055e-7
-0.158, -8.578e-7, -4.532e-7, 4.046e-7
-0.159, -8.575e-7, -4.520e-7, 4.055e-7
-0.160, -8.554e-7, -4.523e-7, 4.031e-7
-0.161, -8.544e-7, -4.514e-7, 4.031e-7
-0.162, -8.535e-7, -4.511e-7, 4.024e-7
-0.163, -8.520e-7, -4.505e-7, 4.015e-7
-0.164, -8.551e-7, -4.529e-7, 4.021e-7
-0.165, -8.514e-7, -4.489e-7, 4.024e-7
-0.166, -8.523e-7, -4.517e-7, 4.006e-7
-0.167, -8.508e-7, -4.502e-7, 4.006e-7
-0.168, -8.511e-7, -4.489e-7, 4.021e-7
-0.169, -8.474e-7, -4.480e-7, 3.994e-7
-0.170, -8.517e-7, -4.520e-7, 3.997e-7
-0.171, -8.471e-7, -4.477e-7, 3.994e-7
-0.172, -8.465e-7, -4.480e-7, 3.985e-7
-0.173, -8.438e-7, -4.468e-7, 3.970e-7
-0.174, -8.453e-7, -4.462e-7, 3.991e-7
-0.175, -8.456e-7, -4.483e-7, 3.973e-7
-0.176, -8.468e-7, -4.489e-7, 3.979e-7
-0.177, -8.422e-7, -4.459e-7, 3.963e-7
-0.178, -8.432e-7, -4.486e-7, 3.945e-7
-0.179, -8.428e-7, -4.468e-7, 3.960e-7
-0.180, -8.404e-7, -4.465e-7, 3.939e-7
-0.181, -8.386e-7, -4.441e-7, 3.945e-7
-0.182, -8.404e-7, -4.447e-7, 3.957e-7
-0.183, -8.386e-7, -4.450e-7, 3.936e-7
-0.184, -8.383e-7, -4.447e-7, 3.936e-7
-0.185, -8.374e-7, -4.441e-7, 3.933e-7
-0.186, -8.364e-7, -4.444e-7, 3.921e-7
-0.187, -8.361e-7, -4.444e-7, 3.918e-7
-0.188, -8.340e-7, -4.422e-7, 3.918e-7
-0.189, -8.349e-7, -4.428e-7, 3.921e-7
-0.190, -8.337e-7, -4.422e-7, 3.915e-7
-0.191, -8.331e-7, -4.422e-7, 3.909e-7
-0.192, -8.306e-7, -4.425e-7, 3.881e-7
-0.193, -8.322e-7, -4.416e-7, 3.905e-7
-0.194, -8.300e-7, -4.410e-7, 3.890e-7
-0.195, -8.300e-7, -4.416e-7, 3.884e-7
-0.196, -8.297e-7, -4.407e-7, 3.890e-7
-0.197, -8.279e-7, -4.404e-7, 3.875e-7
-0.198, -8.273e-7, -4.401e-7, 3.872e-7
-0.199, -8.276e-7, -4.398e-7, 3.878e-7
-0.200, -8.255e-7, -4.404e-7, 3.851e-7
-0.201, -8.267e-7, -4.407e-7, 3.860e-7
-0.202, -8.248e-7, -4.392e-7, 3.857e-7
-0.203, -8.227e-7, -4.392e-7, 3.835e-7
-0.204, -8.251e-7, -4.398e-7, 3.854e-7
-0.205, -8.245e-7, -4.386e-7, 3.860e-7
-0.206, -8.230e-7, -4.392e-7, 3.838e-7
-0.207, -8.248e-7, -4.398e-7, 3.851e-7
-0.208, -8.224e-7, -4.383e-7, 3.841e-7
-0.209, -8.227e-7, -4.398e-7, 3.829e-7
-0.210, -8.230e-7, -4.392e-7, 3.838e-7
-0.211, -8.209e-7, -4.377e-7, 3.832e-7
-0.212, -8.218e-7, -4.389e-7, 3.829e-7
-0.213, -8.203e-7, -4.377e-7, 3.826e-7
-0.214, -8.206e-7, -4.377e-7, 3.829e-7
-0.215, -8.227e-7, -4.407e-7, 3.820e-7
-0.216, -8.190e-7, -4.367e-7, 3.823e-7
-0.217, -8.178e-7, -4.373e-7, 3.805e-7
-0.218, -8.181e-7, -4.377e-7, 3.805e-7
-0.219, -8.193e-7, -4.370e-7, 3.823e-7
-0.220, -8.166e-7, -4.352e-7, 3.814e-7
-0.221, -8.178e-7, -4.380e-7, 3.799e-7
-0.222, -8.175e-7, -4.364e-7, 3.811e-7
-0.223, -8.145e-7, -4.361e-7, 3.783e-7
-0.224, -8.157e-7, -4.361e-7, 3.796e-7
-0.225, -8.172e-7, -4.364e-7, 3.808e-7
-0.226, -8.145e-7, -4.370e-7, 3.774e-7
-0.227, -8.136e-7, -4.361e-7, 3.774e-7
-0.228, -8.151e-7, -4.367e-7, 3.783e-7
-0.229, -8.142e-7, -4.367e-7, 3.774e-7
-0.230, -8.151e-7, -4.367e-7, 3.783e-7
-0.231, -8.142e-7, -4.364e-7, 3.777e-7
-0.232, -8.126e-7, -4.364e-7, 3.762e-7
-0.233, -8.136e-7, -4.361e-7, 3.774e-7
-0.234, -8.132e-7, -4.367e-7, 3.765e-7
-0.235, -8.132e-7, -4.364e-7, 3.768e-7
-0.236, -8.108e-7, -4.355e-7, 3.753e-7
-0.237, -8.102e-7, -4.346e-7, 3.756e-7
-0.238, -8.114e-7, -4.364e-7, 3.750e-7
-0.239, -8.108e-7, -4.355e-7, 3.753e-7
-0.240, -8.117e-7, -4.364e-7, 3.753e-7
-0.241, -8.117e-7, -4.364e-7, 3.753e-7
-0.242, -8.093e-7, -4.340e-7, 3.753e-7
-0.243, -8.081e-7, -4.349e-7, 3.732e-7
-0.244, -8.096e-7, -4.364e-7, 3.732e-7
-0.245, -8.093e-7, -4.343e-7, 3.750e-7
-0.246, -8.074e-7, -4.355e-7, 3.719e-7
-0.247, -8.093e-7, -4.367e-7, 3.725e-7
-0.248, -8.081e-7, -4.352e-7, 3.728e-7
-0.249, -8.084e-7, -4.364e-7, 3.719e-7
-0.250, -8.087e-7, -4.358e-7, 3.728e-7
-0.251, -8.062e-7, -4.349e-7, 3.713e-7
-0.252, -8.071e-7, -4.358e-7, 3.713e-7
-0.253, -8.059e-7, -4.346e-7, 3.713e-7
-0.254, -8.074e-7, -4.370e-7, 3.704e-7
-0.255, -8.071e-7, -4.364e-7, 3.707e-7
-0.256, -8.059e-7, -4.346e-7, 3.713e-7
-0.257, -8.032e-7, -4.340e-7, 3.692e-7
-0.258, -8.059e-7, -4.370e-7, 3.689e-7
-0.259, -8.056e-7, -4.340e-7, 3.716e-7
-0.260, -8.038e-7, -4.358e-7, 3.680e-7
-0.261, -8.047e-7, -4.364e-7, 3.683e-7
-0.262, -8.044e-7, -4.343e-7, 3.701e-7
-0.263, -8.017e-7, -4.349e-7, 3.667e-7
-0.264, -8.029e-7, -4.355e-7, 3.674e-7
-0.265, -8.038e-7, -4.358e-7, 3.680e-7
-0.266, -8.017e-7, -4.358e-7, 3.658e-7
-0.267, -8.029e-7, -4.358e-7, 3.670e-7
-0.268, -8.017e-7, -4.331e-7, 3.686e-7
-0.269, -8.017e-7, -4.364e-7, 3.652e-7
-0.270, -8.017e-7, -4.358e-7, 3.658e-7
-0.271, -7.980e-7, -4.337e-7, 3.643e-7
-0.272, -8.007e-7, -4.352e-7, 3.655e-7
-0.273, -8.007e-7, -4.346e-7, 3.661e-7
-0.274, -7.986e-7, -4.346e-7, 3.640e-7
-0.275, -7.992e-7, -4.346e-7, 3.646e-7
-0.276, -7.983e-7, -4.343e-7, 3.640e-7
-0.277, -7.989e-7, -4.364e-7, 3.625e-7
-0.278, -7.983e-7, -4.340e-7, 3.643e-7
-0.279, -7.989e-7, -4.364e-7, 3.625e-7
-0.280, -7.971e-7, -4.349e-7, 3.622e-7
-0.281, -7.992e-7, -4.352e-7, 3.640e-7
-0.282, -7.977e-7, -4.349e-7, 3.628e-7
-0.283, -7.986e-7, -4.358e-7, 3.628e-7
-0.284, -8.056e-7, -4.425e-7, 3.631e-7
-0.285, -7.952e-7, -4.337e-7, 3.616e-7
-0.286, -7.998e-7, -4.383e-7, 3.616e-7
-0.287, -7.974e-7, -4.361e-7, 3.612e-7
-0.288, -7.952e-7, -4.340e-7, 3.612e-7
-0.289, -7.959e-7, -4.355e-7, 3.603e-7
-0.290, -7.968e-7, -4.358e-7, 3.609e-7
-0.291, -7.943e-7, -4.346e-7, 3.597e-7
-0.292, -7.962e-7, -4.370e-7, 3.591e-7
-0.293, -7.959e-7, -4.355e-7, 3.603e-7
-0.294, -7.949e-7, -4.370e-7, 3.579e-7
-0.295, -7.965e-7, -4.377e-7, 3.588e-7
-0.296, -7.952e-7, -4.355e-7, 3.597e-7
-0.297, -7.940e-7, -4.383e-7, 3.558e-7
-0.298, -7.955e-7, -4.367e-7, 3.588e-7
-0.299, -7.943e-7, -4.361e-7, 3.582e-7
-0.300, -7.949e-7, -4.383e-7, 3.567e-7
-0.301, -7.974e-7, -4.383e-7, 3.591e-7
-0.302, -7.965e-7, -4.373e-7, 3.591e-7
-0.303, -7.949e-7, -4.386e-7, 3.564e-7
-0.304, -7.968e-7, -4.392e-7, 3.576e-7
-0.305, -7.940e-7, -4.373e-7, 3.567e-7
-0.306, -7.949e-7, -4.386e-7, 3.564e-7
-0.307, -7.983e-7, -4.398e-7, 3.585e-7
-0.308, -7.931e-7, -4.383e-7, 3.548e-7
-0.309, -7.962e-7, -4.407e-7, 3.555e-7
-0.310, -7.962e-7, -4.392e-7, 3.570e-7
-0.311, -7.962e-7, -4.389e-7, 3.573e-7
-0.312, -7.955e-7, -4.404e-7, 3.551e-7
-0.313, -7.971e-7, -4.395e-7, 3.576e-7
-0.314, -7.949e-7, -4.401e-7, 3.548e-7
-0.315, -7.952e-7, -4.395e-7, 3.558e-7
-0.316, -7.962e-7, -4.398e-7, 3.564e-7
-0.317, -7.968e-7, -4.419e-7, 3.548e-7
-0.318, -7.974e-7, -4.416e-7, 3.558e-7
-0.319, -7.992e-7, -4.431e-7, 3.561e-7
-0.320, -7.946e-7, -4.410e-7, 3.536e-7
-0.321, -7.980e-7, -4.416e-7, 3.564e-7
-0.322, -7.974e-7, -4.422e-7, 3.551e-7
-0.323, -7.965e-7, -4.428e-7, 3.536e-7
-0.324, -7.995e-7, -4.438e-7, 3.558e-7
-0.325, -7.980e-7, -4.441e-7, 3.539e-7
-0.326, -7.992e-7, -4.447e-7, 3.545e-7
-0.327, -7.986e-7, -4.441e-7, 3.545e-7
-0.328, -7.971e-7, -4.431e-7, 3.539e-7
-0.329, -7.989e-7, -4.453e-7, 3.536e-7
-0.330, -7.992e-7, -4.447e-7, 3.545e-7
-0.331, -7.965e-7, -4.444e-7, 3.521e-7
-0.332, -7.986e-7, -4.450e-7, 3.536e-7
-0.333, -7.989e-7, -4.456e-7, 3.533e-7
-0.334, -7.980e-7, -4.465e-7, 3.515e-7
-0.335, -7.998e-7, -4.480e-7, 3.518e-7
-0.336, -8.007e-7, -4.474e-7, 3.533e-7
-0.337, -7.986e-7, -4.459e-7, 3.527e-7
-0.338, -8.010e-7, -4.483e-7, 3.527e-7
-0.339, -7.998e-7, -4.474e-7, 3.524e-7
-0.340, -8.013e-7, -4.489e-7, 3.524e-7
-0.341, -8.017e-7, -4.489e-7, 3.527e-7
-0.342, -8.013e-7, -4.489e-7, 3.524e-7
-0.343, -8.023e-7, -4.502e-7, 3.521e-7
-0.344, -8.017e-7, -4.493e-7, 3.524e-7
-0.345, -8.010e-7, -4.505e-7, 3.506e-7
-0.346, -8.020e-7, -4.511e-7, 3.509e-7
-0.347, -8.010e-7, -4.493e-7, 3.518e-7
-0.348, -7.995e-7, -4.499e-7, 3.497e-7
-0.349, -8.023e-7, -4.517e-7, 3.506e-7
-0.350, -8.050e-7, -4.526e-7, 3.524e-7
-0.351, -8.065e-7, -4.566e-7, 3.500e-7
-0.352, -8.053e-7, -4.550e-7, 3.503e-7
-0.353, -8.013e-7, -4.511e-7, 3.503e-7
-0.354, -8.010e-7, -4.517e-7, 3.493e-7
-0.355, -8.029e-7, -4.541e-7, 3.487e-7
-0.356, -8.032e-7, -4.535e-7, 3.497e-7
-0.357, -8.004e-7, -4.526e-7, 3.478e-7
-0.358, -8.047e-7, -4.557e-7, 3.490e-7
-0.359, -8.035e-7, -4.547e-7, 3.487e-7
-0.360, -8.041e-7, -4.560e-7, 3.481e-7
-0.361, -8.071e-7, -4.575e-7, 3.497e-7
-0.362, -8.038e-7, -4.547e-7, 3.490e-7
-0.363, -8.044e-7, -4.566e-7, 3.478e-7
-0.364, -8.032e-7, -4.560e-7, 3.472e-7
-0.365, -8.056e-7, -4.584e-7, 3.472e-7
-0.366, -8.059e-7, -4.587e-7, 3.472e-7
-0.367, -8.047e-7, -4.572e-7, 3.475e-7
-0.368, -8.044e-7, -4.581e-7, 3.463e-7
-0.369, -8.062e-7, -4.584e-7, 3.478e-7
-0.370, -8.062e-7, -4.584e-7, 3.478e-7
-0.371, -8.065e-7, -4.590e-7, 3.475e-7
-0.372, -8.078e-7, -4.612e-7, 3.466e-7
-0.373, -8.078e-7, -4.608e-7, 3.469e-7
-0.374, -8.071e-7, -4.602e-7, 3.469e-7
-0.375, -7.757e-7, -4.630e-7, 3.127e-7
-0.376, -8.145e-7, -4.685e-7, 3.460e-7
-0.377, -8.059e-7, -4.612e-7, 3.448e-7
-0.378, -8.090e-7, -4.618e-7, 3.472e-7
-0.379, -8.087e-7, -4.630e-7, 3.457e-7
-0.380, -8.105e-7, -4.651e-7, 3.454e-7
-0.381, -8.102e-7, -4.645e-7, 3.457e-7
-0.382, -8.099e-7, -4.654e-7, 3.445e-7
-0.383, -8.084e-7, -4.639e-7, 3.445e-7
-0.384, -8.102e-7, -4.648e-7, 3.454e-7
-0.385, -8.108e-7, -4.654e-7, 3.454e-7
-0.386, -8.129e-7, -4.685e-7, 3.445e-7
-0.387, -8.151e-7, -4.703e-7, 3.448e-7
-0.388, -8.139e-7, -4.703e-7, 3.435e-7
-0.389, -8.132e-7, -4.691e-7, 3.442e-7
-0.390, -8.145e-7, -4.688e-7, 3.457e-7
-0.391, -8.132e-7, -4.697e-7, 3.435e-7
-0.392, -8.151e-7, -4.712e-7, 3.439e-7
-0.393, -8.126e-7, -4.685e-7, 3.442e-7
-0.394, -8.139e-7, -4.715e-7, 3.423e-7
-0.395, -8.166e-7, -4.727e-7, 3.439e-7
-0.396, -8.139e-7, -4.712e-7, 3.426e-7
-0.397, -8.163e-7, -4.740e-7, 3.423e-7
-0.398, -8.181e-7, -4.752e-7, 3.429e-7
-0.399, -8.184e-7, -4.755e-7, 3.429e-7
-0.400, -8.190e-7, -4.767e-7, 3.423e-7
