Mar. 20, 2018   15:32:46
Square Wave Voltammetry
File: c:\users\electrochemist\desktop\2018\20032018_unbufarray_unpap\51_g3_ph7,95_2.txt
Data Source:  Experiment
Instrument Model:  CHI1040A
Header: 
Note: 

Init E (V) = 0.7
Final E (V) = -0.4
Incr E (V) = 0.001
Amplitude (V) = 0.1
Frequency (Hz) = 152
Quiet Time (sec) = 2
Sensitivity (A/V) = 1e-6

Difference:

Forward:

Reverse:

Potential/V, Diff(i/A), For(i/A), Rev(i/A)

0.699, -5.734e-7, -1.606e-7, 4.128e-7
0.698, -7.202e-7, -3.443e-7, 3.759e-7
0.697, -7.217e-7, -3.531e-7, 3.686e-7
0.696, -7.186e-7, -3.546e-7, 3.640e-7
0.695, -7.183e-7, -3.574e-7, 3.610e-7
0.694, -7.147e-7, -3.574e-7, 3.573e-7
0.693, -7.132e-7, -3.580e-7, 3.552e-7
0.692, -7.101e-7, -3.571e-7, 3.530e-7
0.691, -7.104e-7, -3.577e-7, 3.527e-7
0.690, -7.092e-7, -3.586e-7, 3.506e-7
0.689, -7.077e-7, -3.583e-7, 3.494e-7
0.688, -7.077e-7, -3.577e-7, 3.500e-7
0.687, -7.067e-7, -3.592e-7, 3.475e-7
0.686, -7.061e-7, -3.589e-7, 3.472e-7
0.685, -7.022e-7, -3.586e-7, 3.436e-7
0.684, -7.025e-7, -3.595e-7, 3.429e-7
0.683, -7.003e-7, -3.595e-7, 3.408e-7
0.682, -6.991e-7, -3.583e-7, 3.408e-7
0.681, -6.991e-7, -3.595e-7, 3.396e-7
0.680, -6.991e-7, -3.589e-7, 3.402e-7
0.679, -6.979e-7, -3.589e-7, 3.390e-7
0.678, -6.988e-7, -3.607e-7, 3.381e-7
0.677, -6.970e-7, -3.595e-7, 3.375e-7
0.676, -6.933e-7, -3.601e-7, 3.332e-7
0.675, -6.961e-7, -3.611e-7, 3.350e-7
0.674, -6.897e-7, -3.553e-7, 3.344e-7
0.673, -6.912e-7, -3.604e-7, 3.307e-7
0.672, -6.936e-7, -3.611e-7, 3.326e-7
0.671, -6.900e-7, -3.598e-7, 3.301e-7
0.670, -6.921e-7, -3.623e-7, 3.298e-7
0.669, -6.906e-7, -3.607e-7, 3.298e-7
0.668, -6.903e-7, -3.598e-7, 3.304e-7
0.667, -6.872e-7, -3.601e-7, 3.271e-7
0.666, -6.881e-7, -3.614e-7, 3.268e-7
0.665, -6.884e-7, -3.589e-7, 3.295e-7
0.664, -6.878e-7, -3.607e-7, 3.271e-7
0.663, -6.897e-7, -3.623e-7, 3.274e-7
0.662, -6.854e-7, -3.607e-7, 3.246e-7
0.661, -6.860e-7, -3.620e-7, 3.240e-7
0.660, -6.857e-7, -3.614e-7, 3.243e-7
0.659, -6.839e-7, -3.604e-7, 3.234e-7
0.658, -6.823e-7, -3.607e-7, 3.216e-7
0.657, -6.823e-7, -3.589e-7, 3.234e-7
0.656, -6.829e-7, -3.614e-7, 3.216e-7
0.655, -6.817e-7, -3.620e-7, 3.198e-7
0.654, -6.836e-7, -3.620e-7, 3.216e-7
0.653, -6.790e-7, -3.601e-7, 3.188e-7
0.652, -6.823e-7, -3.632e-7, 3.191e-7
0.651, -6.778e-7, -3.595e-7, 3.182e-7
0.650, -6.781e-7, -3.604e-7, 3.176e-7
0.649, -6.839e-7, -3.647e-7, 3.191e-7
0.648, -6.796e-7, -3.611e-7, 3.185e-7
0.647, -6.753e-7, -3.604e-7, 3.149e-7
0.646, -6.805e-7, -3.644e-7, 3.161e-7
0.645, -6.775e-7, -3.617e-7, 3.158e-7
0.644, -6.790e-7, -3.644e-7, 3.146e-7
0.643, -6.787e-7, -3.641e-7, 3.146e-7
0.642, -6.759e-7, -3.604e-7, 3.155e-7
0.641, -6.759e-7, -3.629e-7, 3.130e-7
0.640, -6.771e-7, -3.635e-7, 3.137e-7
0.639, -6.747e-7, -3.620e-7, 3.127e-7
0.638, -6.765e-7, -3.644e-7, 3.121e-7
0.637, -6.741e-7, -3.629e-7, 3.112e-7
0.636, -6.744e-7, -3.604e-7, 3.140e-7
0.635, -6.738e-7, -3.632e-7, 3.106e-7
0.634, -6.753e-7, -3.641e-7, 3.112e-7
0.633, -6.753e-7, -3.629e-7, 3.124e-7
0.632, -6.741e-7, -3.647e-7, 3.094e-7
0.631, -6.726e-7, -3.629e-7, 3.097e-7
0.630, -6.729e-7, -3.638e-7, 3.091e-7
0.629, -6.710e-7, -3.629e-7, 3.082e-7
0.628, -6.741e-7, -3.644e-7, 3.097e-7
0.627, -6.720e-7, -3.641e-7, 3.079e-7
0.626, -6.729e-7, -3.632e-7, 3.097e-7
0.625, -6.723e-7, -3.638e-7, 3.085e-7
0.624, -6.710e-7, -3.653e-7, 3.057e-7
0.623, -6.726e-7, -3.653e-7, 3.072e-7
0.622, -6.717e-7, -3.641e-7, 3.076e-7
0.621, -6.707e-7, -3.647e-7, 3.060e-7
0.620, -6.735e-7, -3.659e-7, 3.076e-7
0.619, -6.701e-7, -3.650e-7, 3.051e-7
0.618, -6.732e-7, -3.659e-7, 3.072e-7
0.617, -6.713e-7, -3.653e-7, 3.060e-7
0.616, -6.683e-7, -3.644e-7, 3.039e-7
0.615, -6.704e-7, -3.647e-7, 3.057e-7
0.614, -6.713e-7, -3.644e-7, 3.069e-7
0.613, -6.686e-7, -3.653e-7, 3.033e-7
0.612, -6.701e-7, -3.675e-7, 3.027e-7
0.611, -6.698e-7, -3.662e-7, 3.036e-7
0.610, -6.689e-7, -3.662e-7, 3.027e-7
0.609, -6.723e-7, -3.690e-7, 3.033e-7
0.608, -6.717e-7, -3.675e-7, 3.042e-7
0.607, -6.698e-7, -3.659e-7, 3.039e-7
0.606, -6.683e-7, -3.672e-7, 3.011e-7
0.605, -6.704e-7, -3.672e-7, 3.033e-7
0.604, -6.713e-7, -3.684e-7, 3.030e-7
0.603, -6.701e-7, -3.681e-7, 3.021e-7
0.602, -6.698e-7, -3.681e-7, 3.018e-7
0.601, -6.701e-7, -3.684e-7, 3.018e-7
0.600, -6.704e-7, -3.693e-7, 3.011e-7
0.599, -6.704e-7, -3.681e-7, 3.024e-7
0.598, -6.710e-7, -3.699e-7, 3.011e-7
0.597, -6.713e-7, -3.696e-7, 3.018e-7
0.596, -6.707e-7, -3.681e-7, 3.027e-7
0.595, -6.692e-7, -3.696e-7, 2.996e-7
0.594, -6.710e-7, -3.693e-7, 3.018e-7
0.593, -6.692e-7, -3.681e-7, 3.011e-7
0.592, -6.735e-7, -3.739e-7, 2.996e-7
0.591, -6.735e-7, -3.699e-7, 3.036e-7
0.590, -6.720e-7, -3.693e-7, 3.027e-7
0.589, -6.717e-7, -3.730e-7, 2.987e-7
0.588, -6.726e-7, -3.720e-7, 3.005e-7
0.587, -6.732e-7, -3.711e-7, 3.021e-7
0.586, -6.723e-7, -3.733e-7, 2.990e-7
0.585, -6.704e-7, -3.708e-7, 2.996e-7
0.584, -6.723e-7, -3.711e-7, 3.011e-7
0.583, -6.723e-7, -3.720e-7, 3.002e-7
0.582, -6.747e-7, -3.730e-7, 3.018e-7
0.581, -6.720e-7, -3.730e-7, 2.990e-7
0.580, -6.771e-7, -3.748e-7, 3.024e-7
0.579, -6.753e-7, -3.733e-7, 3.021e-7
0.578, -6.741e-7, -3.739e-7, 3.002e-7
0.577, -6.741e-7, -3.742e-7, 2.999e-7
0.576, -6.741e-7, -3.730e-7, 3.011e-7
0.575, -6.771e-7, -3.757e-7, 3.014e-7
0.574, -6.750e-7, -3.748e-7, 3.002e-7
0.573, -6.741e-7, -3.742e-7, 2.999e-7
0.572, -6.750e-7, -3.760e-7, 2.990e-7
0.571, -6.771e-7, -3.763e-7, 3.008e-7
0.570, -6.759e-7, -3.766e-7, 2.993e-7
0.569, -6.765e-7, -3.769e-7, 2.996e-7
0.568, -6.778e-7, -3.760e-7, 3.018e-7
0.567, -6.775e-7, -3.769e-7, 3.005e-7
0.566, -6.756e-7, -3.772e-7, 2.984e-7
0.565, -6.775e-7, -3.766e-7, 3.008e-7
0.564, -6.759e-7, -3.775e-7, 2.984e-7
0.563, -6.768e-7, -3.778e-7, 2.990e-7
0.562, -6.793e-7, -3.781e-7, 3.011e-7
0.561, -6.778e-7, -3.788e-7, 2.990e-7
0.560, -6.811e-7, -3.800e-7, 3.011e-7
0.559, -6.817e-7, -3.806e-7, 3.011e-7
0.558, -6.796e-7, -3.809e-7, 2.987e-7
0.557, -6.808e-7, -3.809e-7, 2.999e-7
0.556, -6.820e-7, -3.812e-7, 3.008e-7
0.555, -6.829e-7, -3.824e-7, 3.005e-7
0.554, -6.836e-7, -3.827e-7, 3.008e-7
0.553, -6.811e-7, -3.800e-7, 3.011e-7
0.552, -6.839e-7, -3.833e-7, 3.005e-7
0.551, -6.836e-7, -3.827e-7, 3.008e-7
0.550, -6.829e-7, -3.821e-7, 3.008e-7
0.549, -6.839e-7, -3.836e-7, 3.002e-7
0.548, -6.839e-7, -3.830e-7, 3.008e-7
0.547, -6.848e-7, -3.833e-7, 3.014e-7
0.546, -6.826e-7, -3.849e-7, 2.978e-7
0.545, -6.829e-7, -3.818e-7, 3.011e-7
0.544, -6.848e-7, -3.845e-7, 3.002e-7
0.543, -6.860e-7, -3.867e-7, 2.993e-7
0.542, -6.869e-7, -3.845e-7, 3.024e-7
0.541, -6.826e-7, -3.839e-7, 2.987e-7
0.540, -6.863e-7, -3.864e-7, 2.999e-7
0.539, -6.848e-7, -3.842e-7, 3.005e-7
0.538, -6.854e-7, -3.855e-7, 2.999e-7
0.537, -6.878e-7, -3.885e-7, 2.993e-7
0.536, -6.878e-7, -3.861e-7, 3.018e-7
0.535, -6.869e-7, -3.879e-7, 2.990e-7
0.534, -6.900e-7, -3.879e-7, 3.021e-7
0.533, -6.878e-7, -3.858e-7, 3.021e-7
0.532, -6.884e-7, -3.891e-7, 2.993e-7
0.531, -6.875e-7, -3.876e-7, 2.999e-7
0.530, -6.884e-7, -3.867e-7, 3.018e-7
0.529, -6.900e-7, -3.888e-7, 3.011e-7
0.528, -6.903e-7, -3.903e-7, 2.999e-7
0.527, -6.903e-7, -3.891e-7, 3.011e-7
0.526, -6.930e-7, -3.897e-7, 3.033e-7
0.525, -6.921e-7, -3.910e-7, 3.011e-7
0.524, -6.909e-7, -3.913e-7, 2.996e-7
0.523, -6.921e-7, -3.913e-7, 3.008e-7
0.522, -6.918e-7, -3.916e-7, 3.002e-7
0.521, -6.912e-7, -3.919e-7, 2.993e-7
0.520, -6.927e-7, -3.919e-7, 3.008e-7
0.519, -6.915e-7, -3.900e-7, 3.014e-7
0.518, -6.927e-7, -3.931e-7, 2.996e-7
0.517, -6.942e-7, -3.937e-7, 3.005e-7
0.516, -6.942e-7, -3.925e-7, 3.018e-7
0.515, -6.939e-7, -3.931e-7, 3.008e-7
0.514, -6.948e-7, -3.946e-7, 3.002e-7
0.513, -6.942e-7, -3.931e-7, 3.011e-7
0.512, -6.955e-7, -3.965e-7, 2.990e-7
0.511, -6.958e-7, -3.940e-7, 3.018e-7
0.510, -6.955e-7, -3.955e-7, 2.999e-7
0.509, -6.952e-7, -3.958e-7, 2.993e-7
0.508, -6.970e-7, -3.949e-7, 3.021e-7
0.507, -6.976e-7, -3.955e-7, 3.021e-7
0.506, -6.967e-7, -3.971e-7, 2.996e-7
0.505, -6.985e-7, -3.965e-7, 3.021e-7
0.504, -6.994e-7, -3.971e-7, 3.024e-7
0.503, -7.003e-7, -3.983e-7, 3.021e-7
0.502, -7.000e-7, -3.980e-7, 3.021e-7
0.501, -6.988e-7, -3.968e-7, 3.021e-7
0.500, -6.985e-7, -3.983e-7, 3.002e-7
0.499, -7.003e-7, -3.986e-7, 3.018e-7
0.498, -6.985e-7, -3.980e-7, 3.005e-7
0.497, -7.019e-7, -4.007e-7, 3.011e-7
0.496, -7.009e-7, -3.995e-7, 3.014e-7
0.495, -7.003e-7, -4.004e-7, 2.999e-7
0.494, -7.009e-7, -4.019e-7, 2.990e-7
0.493, -7.043e-7, -4.007e-7, 3.036e-7
0.492, -7.043e-7, -4.029e-7, 3.014e-7
0.491, -7.049e-7, -4.022e-7, 3.027e-7
0.490, -7.037e-7, -4.016e-7, 3.021e-7
0.489, -7.055e-7, -4.041e-7, 3.014e-7
0.488, -7.058e-7, -4.038e-7, 3.021e-7
0.487, -7.058e-7, -4.029e-7, 3.030e-7
0.486, -7.067e-7, -4.053e-7, 3.014e-7
0.485, -7.095e-7, -4.050e-7, 3.045e-7
0.484, -7.074e-7, -4.041e-7, 3.033e-7
0.483, -7.071e-7, -4.065e-7, 3.005e-7
0.482, -7.098e-7, -4.068e-7, 3.030e-7
0.481, -7.077e-7, -4.050e-7, 3.027e-7
0.480, -7.098e-7, -4.074e-7, 3.024e-7
0.479, -7.116e-7, -4.059e-7, 3.057e-7
0.478, -7.113e-7, -4.065e-7, 3.048e-7
0.477, -7.132e-7, -4.105e-7, 3.027e-7
0.476, -7.135e-7, -4.084e-7, 3.051e-7
0.475, -7.116e-7, -4.077e-7, 3.039e-7
0.474, -7.162e-7, -4.114e-7, 3.048e-7
0.473, -7.162e-7, -4.105e-7, 3.057e-7
0.472, -7.156e-7, -4.090e-7, 3.066e-7
0.471, -7.159e-7, -4.117e-7, 3.042e-7
0.470, -7.183e-7, -4.117e-7, 3.066e-7
0.469, -7.162e-7, -4.108e-7, 3.054e-7
0.468, -7.180e-7, -4.126e-7, 3.054e-7
0.467, -7.177e-7, -4.123e-7, 3.054e-7
0.466, -7.202e-7, -4.135e-7, 3.066e-7
0.465, -7.208e-7, -4.145e-7, 3.063e-7
0.464, -7.220e-7, -4.148e-7, 3.072e-7
0.463, -7.217e-7, -4.157e-7, 3.060e-7
0.462, -7.235e-7, -4.163e-7, 3.072e-7
0.461, -7.223e-7, -4.160e-7, 3.063e-7
0.460, -7.235e-7, -4.169e-7, 3.066e-7
0.459, -7.248e-7, -4.169e-7, 3.079e-7
0.458, -7.254e-7, -4.175e-7, 3.079e-7
0.457, -7.278e-7, -4.190e-7, 3.088e-7
0.456, -7.266e-7, -4.193e-7, 3.072e-7
0.455, -7.278e-7, -4.199e-7, 3.079e-7
0.454, -7.299e-7, -4.212e-7, 3.088e-7
0.453, -7.302e-7, -4.212e-7, 3.091e-7
0.452, -7.296e-7, -4.212e-7, 3.085e-7
0.451, -7.302e-7, -4.215e-7, 3.088e-7
0.450, -7.321e-7, -4.230e-7, 3.091e-7
0.449, -7.309e-7, -4.221e-7, 3.088e-7
0.448, -7.342e-7, -4.233e-7, 3.109e-7
0.447, -7.354e-7, -4.236e-7, 3.118e-7
0.446, -7.351e-7, -4.248e-7, 3.103e-7
0.445, -7.373e-7, -4.273e-7, 3.100e-7
0.444, -7.354e-7, -4.248e-7, 3.106e-7
0.443, -7.382e-7, -4.279e-7, 3.103e-7
0.442, -7.397e-7, -4.270e-7, 3.127e-7
0.441, -7.391e-7, -4.273e-7, 3.118e-7
0.440, -7.385e-7, -4.282e-7, 3.103e-7
0.439, -7.412e-7, -4.288e-7, 3.124e-7
0.438, -7.391e-7, -4.273e-7, 3.118e-7
0.437, -7.394e-7, -4.288e-7, 3.106e-7
0.436, -7.412e-7, -4.303e-7, 3.109e-7
0.435, -7.421e-7, -4.300e-7, 3.121e-7
0.434, -7.425e-7, -4.309e-7, 3.115e-7
0.433, -7.458e-7, -4.306e-7, 3.152e-7
0.432, -7.409e-7, -4.322e-7, 3.088e-7
0.431, -7.452e-7, -4.325e-7, 3.127e-7
0.430, -7.452e-7, -4.318e-7, 3.133e-7
0.429, -7.449e-7, -4.322e-7, 3.127e-7
0.428, -7.473e-7, -4.343e-7, 3.130e-7
0.427, -7.464e-7, -4.322e-7, 3.143e-7
0.426, -7.464e-7, -4.343e-7, 3.121e-7
0.425, -7.501e-7, -4.364e-7, 3.137e-7
0.424, -7.501e-7, -4.358e-7, 3.143e-7
0.423, -7.495e-7, -4.364e-7, 3.130e-7
0.422, -7.544e-7, -4.383e-7, 3.161e-7
0.421, -7.519e-7, -4.364e-7, 3.155e-7
0.420, -7.513e-7, -4.380e-7, 3.133e-7
0.419, -7.553e-7, -4.395e-7, 3.158e-7
0.418, -7.534e-7, -4.386e-7, 3.149e-7
0.417, -7.540e-7, -4.389e-7, 3.152e-7
0.416, -7.580e-7, -4.404e-7, 3.176e-7
0.415, -7.559e-7, -4.398e-7, 3.161e-7
0.414, -7.559e-7, -4.404e-7, 3.155e-7
0.413, -7.592e-7, -4.419e-7, 3.173e-7
0.412, -7.580e-7, -4.413e-7, 3.167e-7
0.411, -7.592e-7, -4.431e-7, 3.161e-7
0.410, -7.601e-7, -4.431e-7, 3.170e-7
0.409, -7.611e-7, -4.431e-7, 3.179e-7
0.408, -7.620e-7, -4.447e-7, 3.173e-7
0.407, -7.617e-7, -4.441e-7, 3.176e-7
0.406, -7.629e-7, -4.453e-7, 3.176e-7
0.405, -7.650e-7, -4.468e-7, 3.182e-7
0.404, -7.656e-7, -4.462e-7, 3.195e-7
0.403, -7.620e-7, -4.450e-7, 3.170e-7
0.402, -7.663e-7, -4.471e-7, 3.191e-7
0.401, -7.672e-7, -4.471e-7, 3.201e-7
0.400, -7.678e-7, -4.483e-7, 3.194e-7
0.399, -7.681e-7, -4.486e-7, 3.194e-7
0.398, -7.693e-7, -4.499e-7, 3.194e-7
0.397, -7.699e-7, -4.502e-7, 3.198e-7
0.396, -7.696e-7, -4.495e-7, 3.201e-7
0.395, -7.702e-7, -4.508e-7, 3.194e-7
0.394, -7.693e-7, -4.502e-7, 3.191e-7
0.393, -7.736e-7, -4.526e-7, 3.210e-7
0.392, -7.711e-7, -4.514e-7, 3.198e-7
0.391, -7.763e-7, -4.544e-7, 3.219e-7
0.390, -7.763e-7, -4.547e-7, 3.216e-7
0.389, -7.763e-7, -4.538e-7, 3.225e-7
0.388, -7.766e-7, -4.563e-7, 3.204e-7
0.387, -7.763e-7, -4.541e-7, 3.222e-7
0.386, -7.778e-7, -4.557e-7, 3.222e-7
0.385, -7.815e-7, -4.581e-7, 3.234e-7
0.384, -7.806e-7, -4.566e-7, 3.240e-7
0.383, -7.788e-7, -4.581e-7, 3.207e-7
0.382, -7.824e-7, -4.581e-7, 3.243e-7
0.381, -7.836e-7, -4.587e-7, 3.249e-7
0.380, -7.843e-7, -4.596e-7, 3.246e-7
0.379, -7.861e-7, -4.602e-7, 3.259e-7
0.378, -7.836e-7, -4.593e-7, 3.243e-7
0.377, -7.858e-7, -4.618e-7, 3.240e-7
0.376, -7.894e-7, -4.611e-7, 3.283e-7
0.375, -7.897e-7, -4.627e-7, 3.271e-7
0.374, -7.891e-7, -4.639e-7, 3.252e-7
0.373, -7.925e-7, -4.642e-7, 3.283e-7
0.372, -7.888e-7, -4.624e-7, 3.265e-7
0.371, -7.925e-7, -4.676e-7, 3.249e-7
0.370, -7.959e-7, -4.663e-7, 3.295e-7
0.369, -7.925e-7, -4.660e-7, 3.265e-7
0.368, -7.934e-7, -4.676e-7, 3.259e-7
0.367, -7.977e-7, -4.672e-7, 3.304e-7
0.366, -7.949e-7, -4.676e-7, 3.274e-7
0.365, -7.983e-7, -4.700e-7, 3.283e-7
0.364, -8.020e-7, -4.709e-7, 3.310e-7
0.363, -7.998e-7, -4.700e-7, 3.298e-7
0.362, -8.038e-7, -4.734e-7, 3.304e-7
0.361, -8.020e-7, -4.709e-7, 3.310e-7
0.360, -8.026e-7, -4.721e-7, 3.304e-7
0.359, -8.041e-7, -4.730e-7, 3.310e-7
0.358, -8.056e-7, -4.730e-7, 3.326e-7
0.357, -8.050e-7, -4.740e-7, 3.310e-7
0.356, -8.078e-7, -4.761e-7, 3.317e-7
0.355, -8.102e-7, -4.761e-7, 3.341e-7
0.354, -8.117e-7, -4.785e-7, 3.332e-7
0.353, -8.111e-7, -4.779e-7, 3.332e-7
0.352, -8.114e-7, -4.776e-7, 3.338e-7
0.351, -8.132e-7, -4.791e-7, 3.341e-7
0.350, -8.160e-7, -4.801e-7, 3.359e-7
0.349, -8.163e-7, -4.813e-7, 3.350e-7
0.348, -8.160e-7, -4.804e-7, 3.356e-7
0.347, -8.200e-7, -4.825e-7, 3.375e-7
0.346, -8.187e-7, -4.834e-7, 3.353e-7
0.345, -8.190e-7, -4.831e-7, 3.359e-7
0.344, -8.233e-7, -4.837e-7, 3.396e-7
0.343, -8.233e-7, -4.843e-7, 3.390e-7
0.342, -8.255e-7, -4.865e-7, 3.390e-7
0.341, -8.251e-7, -4.859e-7, 3.393e-7
0.340, -8.245e-7, -4.868e-7, 3.378e-7
0.339, -8.264e-7, -4.877e-7, 3.387e-7
0.338, -8.279e-7, -4.880e-7, 3.399e-7
0.337, -8.279e-7, -4.880e-7, 3.399e-7
0.336, -8.306e-7, -4.895e-7, 3.411e-7
0.335, -8.319e-7, -4.901e-7, 3.417e-7
0.334, -8.313e-7, -4.920e-7, 3.393e-7
0.333, -8.325e-7, -4.920e-7, 3.405e-7
0.332, -8.349e-7, -4.920e-7, 3.429e-7
0.331, -8.349e-7, -4.932e-7, 3.417e-7
0.330, -8.383e-7, -4.950e-7, 3.433e-7
0.329, -8.386e-7, -4.947e-7, 3.439e-7
0.328, -8.380e-7, -4.956e-7, 3.423e-7
0.327, -8.422e-7, -4.965e-7, 3.457e-7
0.326, -8.404e-7, -4.962e-7, 3.442e-7
0.325, -8.416e-7, -4.972e-7, 3.445e-7
0.324, -8.441e-7, -4.978e-7, 3.463e-7
0.323, -8.453e-7, -4.999e-7, 3.454e-7
0.322, -8.459e-7, -5.008e-7, 3.451e-7
0.321, -8.483e-7, -4.996e-7, 3.487e-7
0.320, -8.474e-7, -5.023e-7, 3.451e-7
0.319, -8.486e-7, -5.023e-7, 3.463e-7
0.318, -8.526e-7, -5.039e-7, 3.487e-7
0.317, -8.508e-7, -5.033e-7, 3.475e-7
0.316, -8.523e-7, -5.042e-7, 3.481e-7
0.315, -8.554e-7, -5.048e-7, 3.506e-7
0.314, -8.554e-7, -5.063e-7, 3.490e-7
0.313, -8.578e-7, -5.078e-7, 3.500e-7
0.312, -8.584e-7, -5.057e-7, 3.527e-7
0.311, -8.584e-7, -5.081e-7, 3.503e-7
0.310, -8.596e-7, -5.081e-7, 3.515e-7
0.309, -8.618e-7, -5.081e-7, 3.536e-7
0.308, -8.624e-7, -5.112e-7, 3.512e-7
0.307, -8.633e-7, -5.100e-7, 3.533e-7
0.306, -8.657e-7, -5.106e-7, 3.552e-7
0.305, -8.670e-7, -5.136e-7, 3.533e-7
0.304, -8.670e-7, -5.130e-7, 3.539e-7
0.303, -8.673e-7, -5.133e-7, 3.539e-7
0.302, -8.694e-7, -5.145e-7, 3.548e-7
0.301, -8.712e-7, -5.155e-7, 3.558e-7
0.300, -8.718e-7, -5.161e-7, 3.558e-7
0.299, -8.718e-7, -5.158e-7, 3.561e-7
0.298, -8.731e-7, -5.179e-7, 3.552e-7
0.297, -8.746e-7, -5.182e-7, 3.564e-7
0.296, -8.767e-7, -5.203e-7, 3.564e-7
0.295, -8.767e-7, -5.191e-7, 3.576e-7
0.294, -8.779e-7, -5.197e-7, 3.582e-7
0.293, -8.813e-7, -5.225e-7, 3.588e-7
0.292, -8.813e-7, -5.219e-7, 3.594e-7
0.291, -8.819e-7, -5.231e-7, 3.588e-7
0.290, -8.831e-7, -5.234e-7, 3.597e-7
0.289, -8.840e-7, -5.231e-7, 3.610e-7
0.288, -8.843e-7, -5.252e-7, 3.591e-7
0.287, -8.868e-7, -5.255e-7, 3.613e-7
0.286, -8.877e-7, -5.274e-7, 3.603e-7
0.285, -8.892e-7, -5.277e-7, 3.616e-7
0.284, -8.905e-7, -5.277e-7, 3.628e-7
0.283, -8.926e-7, -5.292e-7, 3.634e-7
0.282, -8.898e-7, -5.301e-7, 3.597e-7
0.281, -8.966e-7, -5.316e-7, 3.649e-7
0.280, -8.975e-7, -5.326e-7, 3.649e-7
0.279, -8.966e-7, -5.335e-7, 3.631e-7
0.278, -9.014e-7, -5.335e-7, 3.680e-7
0.277, -8.987e-7, -5.335e-7, 3.652e-7
0.276, -9.005e-7, -5.353e-7, 3.652e-7
0.275, -9.024e-7, -5.356e-7, 3.667e-7
0.274, -9.033e-7, -5.368e-7, 3.664e-7
0.273, -9.057e-7, -5.387e-7, 3.671e-7
0.272, -9.100e-7, -5.396e-7, 3.704e-7
0.271, -9.085e-7, -5.396e-7, 3.689e-7
0.270, -9.106e-7, -5.411e-7, 3.695e-7
0.269, -9.097e-7, -5.408e-7, 3.689e-7
0.268, -9.121e-7, -5.435e-7, 3.686e-7
0.267, -9.155e-7, -5.438e-7, 3.716e-7
0.266, -9.152e-7, -5.429e-7, 3.722e-7
0.265, -9.167e-7, -5.457e-7, 3.710e-7
0.264, -9.225e-7, -5.481e-7, 3.744e-7
0.263, -9.207e-7, -5.472e-7, 3.735e-7
0.262, -9.213e-7, -5.496e-7, 3.716e-7
0.261, -9.252e-7, -5.490e-7, 3.762e-7
0.260, -9.231e-7, -5.487e-7, 3.744e-7
0.259, -9.262e-7, -5.512e-7, 3.750e-7
0.258, -9.301e-7, -5.530e-7, 3.771e-7
0.257, -9.289e-7, -5.521e-7, 3.768e-7
0.256, -9.289e-7, -5.542e-7, 3.747e-7
0.255, -9.347e-7, -5.548e-7, 3.799e-7
0.254, -9.341e-7, -5.548e-7, 3.793e-7
0.253, -9.359e-7, -5.585e-7, 3.774e-7
0.252, -9.396e-7, -5.585e-7, 3.811e-7
0.251, -9.399e-7, -5.591e-7, 3.808e-7
0.250, -9.426e-7, -5.625e-7, 3.802e-7
0.249, -9.454e-7, -5.631e-7, 3.823e-7
0.248, -9.463e-7, -5.640e-7, 3.823e-7
0.247, -9.463e-7, -5.643e-7, 3.820e-7
0.246, -9.497e-7, -5.661e-7, 3.835e-7
0.245, -9.509e-7, -5.667e-7, 3.841e-7
0.244, -9.536e-7, -5.676e-7, 3.860e-7
0.243, -9.548e-7, -5.683e-7, 3.866e-7
0.242, -9.561e-7, -5.698e-7, 3.863e-7
0.241, -9.600e-7, -5.725e-7, 3.875e-7
0.240, -9.612e-7, -5.722e-7, 3.890e-7
0.239, -9.606e-7, -5.725e-7, 3.881e-7
0.238, -9.640e-7, -5.744e-7, 3.896e-7
0.237, -9.643e-7, -5.747e-7, 3.896e-7
0.236, -9.670e-7, -5.768e-7, 3.902e-7
0.235, -9.683e-7, -5.771e-7, 3.912e-7
0.234, -9.710e-7, -5.789e-7, 3.921e-7
0.233, -9.738e-7, -5.805e-7, 3.933e-7
0.232, -9.756e-7, -5.814e-7, 3.942e-7
0.231, -9.750e-7, -5.811e-7, 3.939e-7
0.230, -9.799e-7, -5.850e-7, 3.948e-7
0.229, -9.796e-7, -5.835e-7, 3.960e-7
0.228, -9.820e-7, -5.863e-7, 3.957e-7
0.227, -9.841e-7, -5.872e-7, 3.970e-7
0.226, -9.863e-7, -5.884e-7, 3.979e-7
0.225, -9.890e-7, -5.905e-7, 3.985e-7
0.224, -9.896e-7, -5.905e-7, 3.991e-7
0.223, -9.930e-7, -5.924e-7, 4.006e-7
0.222, -9.939e-7, -5.933e-7, 4.006e-7
0.221, -9.957e-7, -5.948e-7, 4.009e-7
0.220, -9.988e-7, -5.960e-7, 4.028e-7
0.219, -1.001e-6, -5.976e-7, 4.037e-7
0.218, -1.002e-6, -5.982e-7, 4.034e-7
0.217, -1.003e-6, -5.982e-7, 4.046e-7
0.216, -1.005e-6, -6.009e-7, 4.046e-7
0.215, -1.009e-6, -6.021e-7, 4.064e-7
0.214, -1.008e-6, -6.021e-7, 4.055e-7
0.213, -1.013e-6, -6.052e-7, 4.073e-7
0.212, -1.014e-6, -6.049e-7, 4.089e-7
0.211, -1.015e-6, -6.070e-7, 4.082e-7
0.210, -1.020e-6, -6.104e-7, 4.092e-7
0.209, -1.019e-6, -6.073e-7, 4.113e-7
0.208, -1.020e-6, -6.091e-7, 4.107e-7
0.207, -1.025e-6, -6.122e-7, 4.128e-7
0.206, -1.027e-6, -6.125e-7, 4.144e-7
0.205, -1.026e-6, -6.134e-7, 4.122e-7
0.204, -1.030e-6, -6.159e-7, 4.137e-7
0.203, -1.033e-6, -6.168e-7, 4.162e-7
0.202, -1.032e-6, -6.168e-7, 4.156e-7
0.201, -1.037e-6, -6.207e-7, 4.162e-7
0.200, -1.038e-6, -6.189e-7, 4.189e-7
0.199, -1.038e-6, -6.210e-7, 4.168e-7
0.198, -1.045e-6, -6.247e-7, 4.205e-7
0.197, -1.044e-6, -6.235e-7, 4.208e-7
0.196, -1.045e-6, -6.253e-7, 4.198e-7
0.195, -1.050e-6, -6.281e-7, 4.223e-7
0.194, -1.052e-6, -6.275e-7, 4.247e-7
0.193, -1.051e-6, -6.290e-7, 4.223e-7
0.192, -1.056e-6, -6.311e-7, 4.244e-7
0.191, -1.056e-6, -6.305e-7, 4.259e-7
0.190, -1.057e-6, -6.330e-7, 4.244e-7
0.189, -1.062e-6, -6.342e-7, 4.278e-7
0.188, -1.066e-6, -6.372e-7, 4.290e-7
0.187, -1.065e-6, -6.366e-7, 4.284e-7
0.186, -1.068e-6, -6.378e-7, 4.299e-7
0.185, -1.070e-6, -6.394e-7, 4.302e-7
0.184, -1.074e-6, -6.424e-7, 4.317e-7
0.183, -1.074e-6, -6.415e-7, 4.330e-7
0.182, -1.077e-6, -6.442e-7, 4.324e-7
0.181, -1.079e-6, -6.458e-7, 4.330e-7
0.180, -1.080e-6, -6.449e-7, 4.354e-7
0.179, -1.081e-6, -6.467e-7, 4.345e-7
0.178, -1.085e-6, -6.494e-7, 4.357e-7
0.177, -1.086e-6, -6.491e-7, 4.366e-7
0.176, -1.090e-6, -6.522e-7, 4.375e-7
0.175, -1.092e-6, -6.528e-7, 4.388e-7
0.174, -1.092e-6, -6.528e-7, 4.391e-7
0.173, -1.094e-6, -6.543e-7, 4.394e-7
0.172, -1.096e-6, -6.546e-7, 4.415e-7
0.171, -1.100e-6, -6.571e-7, 4.427e-7
0.170, -1.103e-6, -6.607e-7, 4.424e-7
0.169, -1.104e-6, -6.598e-7, 4.443e-7
0.168, -1.105e-6, -6.616e-7, 4.433e-7
0.167, -1.109e-6, -6.638e-7, 4.449e-7
0.166, -1.110e-6, -6.629e-7, 4.473e-7
0.165, -1.114e-6, -6.659e-7, 4.479e-7
0.164, -1.116e-6, -6.674e-7, 4.488e-7
0.163, -1.118e-6, -6.668e-7, 4.513e-7
0.162, -1.120e-6, -6.693e-7, 4.504e-7
0.161, -1.123e-6, -6.714e-7, 4.519e-7
0.160, -1.125e-6, -6.708e-7, 4.546e-7
0.159, -1.128e-6, -6.745e-7, 4.537e-7
0.158, -1.130e-6, -6.757e-7, 4.546e-7
0.157, -1.132e-6, -6.757e-7, 4.562e-7
0.156, -1.132e-6, -6.772e-7, 4.552e-7
0.155, -1.137e-6, -6.784e-7, 4.586e-7
0.154, -1.138e-6, -6.790e-7, 4.589e-7
0.153, -1.140e-6, -6.806e-7, 4.592e-7
0.152, -1.144e-6, -6.830e-7, 4.610e-7
0.151, -1.148e-6, -6.839e-7, 4.638e-7
0.150, -1.148e-6, -6.867e-7, 4.617e-7
0.149, -1.153e-6, -6.876e-7, 4.650e-7
0.148, -1.151e-6, -6.867e-7, 4.647e-7
0.147, -1.156e-6, -6.903e-7, 4.653e-7
0.146, -1.160e-6, -6.909e-7, 4.690e-7
0.145, -1.159e-6, -6.909e-7, 4.684e-7
0.144, -1.161e-6, -6.934e-7, 4.681e-7
0.143, -1.166e-6, -6.943e-7, 4.717e-7
0.142, -1.166e-6, -6.946e-7, 4.714e-7
0.141, -1.170e-6, -6.986e-7, 4.711e-7
0.140, -1.172e-6, -6.976e-7, 4.748e-7
0.139, -1.176e-6, -7.007e-7, 4.751e-7
0.138, -1.176e-6, -7.016e-7, 4.742e-7
0.137, -1.180e-6, -7.007e-7, 4.793e-7
0.136, -1.180e-6, -7.028e-7, 4.775e-7
0.135, -1.185e-6, -7.068e-7, 4.781e-7
0.134, -1.187e-6, -7.062e-7, 4.812e-7
0.133, -1.187e-6, -7.068e-7, 4.803e-7
0.132, -1.191e-6, -7.077e-7, 4.833e-7
0.131, -1.193e-6, -7.095e-7, 4.839e-7
0.130, -1.197e-6, -7.120e-7, 4.848e-7
0.129, -1.200e-6, -7.138e-7, 4.864e-7
0.128, -1.200e-6, -7.126e-7, 4.873e-7
0.127, -1.203e-6, -7.147e-7, 4.882e-7
0.126, -1.207e-6, -7.163e-7, 4.906e-7
0.125, -1.208e-6, -7.178e-7, 4.906e-7
0.124, -1.209e-6, -7.184e-7, 4.906e-7
0.123, -1.212e-6, -7.196e-7, 4.925e-7
0.122, -1.216e-6, -7.214e-7, 4.946e-7
0.121, -1.218e-6, -7.239e-7, 4.937e-7
0.120, -1.222e-6, -7.245e-7, 4.974e-7
0.119, -1.220e-6, -7.242e-7, 4.958e-7
0.118, -1.224e-6, -7.257e-7, 4.983e-7
0.117, -1.227e-6, -7.269e-7, 4.998e-7
0.116, -1.229e-6, -7.288e-7, 5.001e-7
0.115, -1.230e-6, -7.291e-7, 5.010e-7
0.114, -1.234e-6, -7.300e-7, 5.038e-7
0.113, -1.235e-6, -7.321e-7, 5.032e-7
0.112, -1.237e-6, -7.330e-7, 5.035e-7
0.111, -1.239e-6, -7.327e-7, 5.062e-7
0.110, -1.240e-6, -7.333e-7, 5.062e-7
0.109, -1.246e-6, -7.364e-7, 5.096e-7
0.108, -1.246e-6, -7.361e-7, 5.096e-7
0.107, -1.247e-6, -7.379e-7, 5.086e-7
0.106, -1.250e-6, -7.382e-7, 5.117e-7
0.105, -1.251e-6, -7.379e-7, 5.132e-7
0.104, -1.253e-6, -7.410e-7, 5.120e-7
0.103, -1.256e-6, -7.410e-7, 5.147e-7
0.102, -1.257e-6, -7.425e-7, 5.147e-7
0.101, -1.261e-6, -7.446e-7, 5.160e-7
0.100, -1.263e-6, -7.440e-7, 5.190e-7
0.099, -1.264e-6, -7.462e-7, 5.181e-7
0.098, -1.267e-6, -7.468e-7, 5.199e-7
0.097, -1.268e-6, -7.468e-7, 5.212e-7
0.096, -1.270e-6, -7.480e-7, 5.218e-7
0.095, -1.271e-6, -7.483e-7, 5.224e-7
0.094, -1.274e-6, -7.492e-7, 5.251e-7
0.093, -1.275e-6, -7.507e-7, 5.245e-7
0.092, -1.279e-6, -7.532e-7, 5.260e-7
0.091, -1.279e-6, -7.507e-7, 5.279e-7
0.090, -1.279e-6, -7.532e-7, 5.260e-7
0.089, -1.283e-6, -7.553e-7, 5.273e-7
0.088, -1.284e-6, -7.544e-7, 5.297e-7
0.087, -1.284e-6, -7.544e-7, 5.300e-7
0.086, -1.288e-6, -7.572e-7, 5.312e-7
0.085, -1.293e-6, -7.587e-7, 5.346e-7
0.084, -1.291e-6, -7.584e-7, 5.328e-7
0.083, -1.293e-6, -7.590e-7, 5.343e-7
0.082, -1.294e-6, -7.587e-7, 5.355e-7
0.081, -1.296e-6, -7.617e-7, 5.343e-7
0.080, -1.299e-6, -7.614e-7, 5.379e-7
0.079, -1.302e-6, -7.623e-7, 5.398e-7
0.078, -1.299e-6, -7.614e-7, 5.379e-7
0.077, -1.301e-6, -7.617e-7, 5.395e-7
0.076, -1.305e-6, -7.633e-7, 5.422e-7
0.075, -1.305e-6, -7.639e-7, 5.410e-7
0.074, -1.305e-6, -7.629e-7, 5.416e-7
0.073, -1.307e-6, -7.645e-7, 5.428e-7
0.072, -1.309e-6, -7.648e-7, 5.440e-7
0.071, -1.309e-6, -7.633e-7, 5.456e-7
0.070, -1.310e-6, -7.651e-7, 5.453e-7
0.069, -1.315e-6, -7.669e-7, 5.477e-7
0.068, -1.315e-6, -7.663e-7, 5.486e-7
0.067, -1.316e-6, -7.678e-7, 5.480e-7
0.066, -1.316e-6, -7.672e-7, 5.492e-7
0.065, -1.316e-6, -7.660e-7, 5.495e-7
0.064, -1.319e-6, -7.678e-7, 5.511e-7
0.063, -1.322e-6, -7.694e-7, 5.529e-7
0.062, -1.321e-6, -7.678e-7, 5.529e-7
0.061, -1.323e-6, -7.694e-7, 5.532e-7
0.060, -1.324e-6, -7.697e-7, 5.547e-7
0.059, -1.323e-6, -7.687e-7, 5.541e-7
0.058, -1.327e-6, -7.709e-7, 5.556e-7
0.057, -1.326e-6, -7.694e-7, 5.569e-7
0.056, -1.327e-6, -7.697e-7, 5.575e-7
0.055, -1.329e-6, -7.715e-7, 5.572e-7
0.054, -1.329e-6, -7.706e-7, 5.584e-7
0.053, -1.330e-6, -7.715e-7, 5.590e-7
0.052, -1.332e-6, -7.709e-7, 5.611e-7
0.051, -1.332e-6, -7.703e-7, 5.617e-7
0.050, -1.331e-6, -7.706e-7, 5.605e-7
0.049, -1.336e-6, -7.724e-7, 5.636e-7
0.048, -1.335e-6, -7.718e-7, 5.630e-7
0.047, -1.336e-6, -7.724e-7, 5.633e-7
0.046, -1.339e-6, -7.724e-7, 5.663e-7
0.045, -1.337e-6, -7.718e-7, 5.654e-7
0.044, -1.338e-6, -7.721e-7, 5.663e-7
0.043, -1.340e-6, -7.727e-7, 5.672e-7
0.042, -1.338e-6, -7.709e-7, 5.675e-7
0.041, -1.342e-6, -7.736e-7, 5.688e-7
0.040, -1.342e-6, -7.721e-7, 5.703e-7
0.039, -1.341e-6, -7.709e-7, 5.697e-7
0.038, -1.343e-6, -7.721e-7, 5.709e-7
0.037, -1.346e-6, -7.727e-7, 5.730e-7
0.036, -1.343e-6, -7.715e-7, 5.712e-7
0.035, -1.342e-6, -7.718e-7, 5.700e-7
0.034, -1.347e-6, -7.715e-7, 5.752e-7
0.033, -1.345e-6, -7.715e-7, 5.739e-7
0.032, -1.345e-6, -7.724e-7, 5.727e-7
0.031, -1.345e-6, -7.697e-7, 5.749e-7
0.030, -1.345e-6, -7.691e-7, 5.761e-7
0.029, -1.347e-6, -7.712e-7, 5.761e-7
0.028, -1.347e-6, -7.703e-7, 5.770e-7
0.027, -1.346e-6, -7.694e-7, 5.767e-7
0.026, -1.347e-6, -7.697e-7, 5.773e-7
0.025, -1.347e-6, -7.675e-7, 5.794e-7
0.024, -1.347e-6, -7.681e-7, 5.788e-7
0.023, -1.348e-6, -7.691e-7, 5.785e-7
0.022, -1.347e-6, -7.672e-7, 5.801e-7
0.021, -1.347e-6, -7.666e-7, 5.801e-7
0.020, -1.349e-6, -7.675e-7, 5.816e-7
0.019, -1.347e-6, -7.663e-7, 5.810e-7
0.018, -1.349e-6, -7.672e-7, 5.816e-7
0.017, -1.348e-6, -7.660e-7, 5.819e-7
0.016, -1.347e-6, -7.657e-7, 5.813e-7
0.015, -1.349e-6, -7.660e-7, 5.828e-7
0.014, -1.348e-6, -7.639e-7, 5.837e-7
0.013, -1.347e-6, -7.639e-7, 5.831e-7
0.012, -1.348e-6, -7.639e-7, 5.837e-7
0.011, -1.349e-6, -7.633e-7, 5.858e-7
0.010, -1.347e-6, -7.626e-7, 5.846e-7
0.009, -1.345e-6, -7.611e-7, 5.843e-7
0.008, -1.348e-6, -7.620e-7, 5.855e-7
0.007, -1.346e-6, -7.608e-7, 5.852e-7
0.006, -1.345e-6, -7.602e-7, 5.846e-7
0.005, -1.345e-6, -7.599e-7, 5.855e-7
0.004, -1.345e-6, -7.590e-7, 5.858e-7
0.003, -1.345e-6, -7.581e-7, 5.868e-7
0.002, -1.343e-6, -7.562e-7, 5.865e-7
0.001, -1.341e-6, -7.562e-7, 5.852e-7
0.000, -1.342e-6, -7.547e-7, 5.877e-7
-0.001, -1.342e-6, -7.541e-7, 5.880e-7
-0.002, -1.341e-6, -7.544e-7, 5.868e-7
-0.003, -1.342e-6, -7.541e-7, 5.880e-7
-0.004, -1.342e-6, -7.529e-7, 5.892e-7
-0.005, -1.340e-6, -7.526e-7, 5.874e-7
-0.006, -1.337e-6, -7.489e-7, 5.877e-7
-0.007, -1.339e-6, -7.495e-7, 5.892e-7
-0.008, -1.337e-6, -7.489e-7, 5.877e-7
-0.009, -1.339e-6, -7.492e-7, 5.895e-7
-0.010, -1.334e-6, -7.471e-7, 5.868e-7
-0.011, -1.336e-6, -7.474e-7, 5.886e-7
-0.012, -1.334e-6, -7.449e-7, 5.889e-7
-0.013, -1.332e-6, -7.453e-7, 5.865e-7
-0.014, -1.331e-6, -7.440e-7, 5.874e-7
-0.015, -1.330e-6, -7.416e-7, 5.883e-7
-0.016, -1.328e-6, -7.416e-7, 5.868e-7
-0.017, -1.329e-6, -7.416e-7, 5.877e-7
-0.018, -1.327e-6, -7.388e-7, 5.886e-7
-0.019, -1.325e-6, -7.385e-7, 5.868e-7
-0.020, -1.325e-6, -7.379e-7, 5.874e-7
-0.021, -1.327e-6, -7.376e-7, 5.889e-7
-0.022, -1.322e-6, -7.343e-7, 5.874e-7
-0.023, -1.320e-6, -7.340e-7, 5.865e-7
-0.024, -1.320e-6, -7.330e-7, 5.868e-7
-0.025, -1.319e-6, -7.324e-7, 5.865e-7
-0.026, -1.318e-6, -7.312e-7, 5.871e-7
-0.027, -1.316e-6, -7.294e-7, 5.871e-7
-0.028, -1.313e-6, -7.272e-7, 5.858e-7
-0.029, -1.315e-6, -7.282e-7, 5.865e-7
-0.030, -1.313e-6, -7.257e-7, 5.871e-7
-0.031, -1.309e-6, -7.245e-7, 5.843e-7
-0.032, -1.309e-6, -7.233e-7, 5.862e-7
-0.033, -1.307e-6, -7.221e-7, 5.849e-7
-0.034, -1.305e-6, -7.211e-7, 5.834e-7
-0.035, -1.305e-6, -7.199e-7, 5.846e-7
-0.036, -1.303e-6, -7.187e-7, 5.843e-7
-0.037, -1.300e-6, -7.172e-7, 5.828e-7
-0.038, -1.298e-6, -7.157e-7, 5.825e-7
-0.039, -1.298e-6, -7.157e-7, 5.828e-7
-0.040, -1.297e-6, -7.144e-7, 5.825e-7
-0.041, -1.294e-6, -7.123e-7, 5.813e-7
-0.042, -1.294e-6, -7.126e-7, 5.816e-7
-0.043, -1.293e-6, -7.105e-7, 5.822e-7
-0.044, -1.288e-6, -7.068e-7, 5.816e-7
-0.045, -1.288e-6, -7.086e-7, 5.797e-7
-0.046, -1.288e-6, -7.059e-7, 5.819e-7
-0.047, -1.285e-6, -7.044e-7, 5.804e-7
-0.048, -1.282e-6, -7.041e-7, 5.779e-7
-0.049, -1.282e-6, -7.025e-7, 5.794e-7
-0.050, -1.279e-6, -7.001e-7, 5.788e-7
-0.051, -1.279e-6, -7.004e-7, 5.782e-7
-0.052, -1.278e-6, -6.995e-7, 5.785e-7
-0.053, -1.273e-6, -6.961e-7, 5.770e-7
-0.054, -1.273e-6, -6.967e-7, 5.761e-7
-0.055, -1.273e-6, -6.949e-7, 5.776e-7
-0.056, -1.270e-6, -6.922e-7, 5.776e-7
-0.057, -1.269e-6, -6.931e-7, 5.764e-7
-0.058, -1.266e-6, -6.900e-7, 5.761e-7
-0.059, -1.264e-6, -6.894e-7, 5.743e-7
-0.060, -1.264e-6, -6.897e-7, 5.743e-7
-0.061, -1.260e-6, -6.873e-7, 5.730e-7
-0.062, -1.259e-6, -6.870e-7, 5.718e-7
-0.063, -1.258e-6, -6.854e-7, 5.730e-7
-0.064, -1.254e-6, -6.818e-7, 5.721e-7
-0.065, -1.254e-6, -6.827e-7, 5.709e-7
-0.066, -1.254e-6, -6.824e-7, 5.718e-7
-0.067, -1.251e-6, -6.790e-7, 5.715e-7
-0.068, -1.247e-6, -6.790e-7, 5.681e-7
-0.069, -1.249e-6, -6.775e-7, 5.712e-7
-0.070, -1.244e-6, -6.754e-7, 5.688e-7
-0.071, -1.244e-6, -6.757e-7, 5.678e-7
-0.072, -1.244e-6, -6.751e-7, 5.691e-7
-0.073, -1.240e-6, -6.732e-7, 5.672e-7
-0.074, -1.238e-6, -6.729e-7, 5.648e-7
-0.075, -1.239e-6, -6.708e-7, 5.678e-7
-0.076, -1.235e-6, -6.687e-7, 5.663e-7
-0.077, -1.233e-6, -6.690e-7, 5.639e-7
-0.078, -1.234e-6, -6.690e-7, 5.654e-7
-0.079, -1.231e-6, -6.656e-7, 5.651e-7
-0.080, -1.228e-6, -6.647e-7, 5.636e-7
-0.081, -1.228e-6, -6.647e-7, 5.633e-7
-0.082, -1.224e-6, -6.619e-7, 5.617e-7
-0.083, -1.226e-6, -6.632e-7, 5.624e-7
-0.084, -1.223e-6, -6.610e-7, 5.617e-7
-0.085, -1.218e-6, -6.580e-7, 5.602e-7
-0.086, -1.217e-6, -6.589e-7, 5.581e-7
-0.087, -1.217e-6, -6.571e-7, 5.596e-7
-0.088, -1.216e-6, -6.565e-7, 5.599e-7
-0.089, -1.215e-6, -6.561e-7, 5.587e-7
-0.090, -1.213e-6, -6.543e-7, 5.587e-7
-0.091, -1.211e-6, -6.531e-7, 5.575e-7
-0.092, -1.210e-6, -6.528e-7, 5.569e-7
-0.093, -1.206e-6, -6.500e-7, 5.559e-7
-0.094, -1.206e-6, -6.494e-7, 5.562e-7
-0.095, -1.203e-6, -6.482e-7, 5.550e-7
-0.096, -1.202e-6, -6.485e-7, 5.532e-7
-0.097, -1.200e-6, -6.467e-7, 5.532e-7
-0.098, -1.202e-6, -6.485e-7, 5.532e-7
-0.099, -1.198e-6, -6.445e-7, 5.538e-7
-0.100, -1.198e-6, -6.458e-7, 5.520e-7
-0.101, -1.196e-6, -6.427e-7, 5.529e-7
-0.102, -1.193e-6, -6.427e-7, 5.504e-7
-0.103, -1.190e-6, -6.403e-7, 5.495e-7
-0.104, -1.192e-6, -6.409e-7, 5.514e-7
-0.105, -1.186e-6, -6.388e-7, 5.474e-7
-0.106, -1.186e-6, -6.381e-7, 5.474e-7
-0.107, -1.185e-6, -6.369e-7, 5.483e-7
-0.108, -1.182e-6, -6.351e-7, 5.471e-7
-0.109, -1.180e-6, -6.348e-7, 5.450e-7
-0.110, -1.180e-6, -6.342e-7, 5.462e-7
-0.111, -1.179e-6, -6.330e-7, 5.459e-7
-0.112, -1.180e-6, -6.348e-7, 5.450e-7
-0.113, -1.176e-6, -6.317e-7, 5.447e-7
-0.114, -1.172e-6, -6.305e-7, 5.419e-7
-0.115, -1.175e-6, -6.311e-7, 5.440e-7
-0.116, -1.171e-6, -6.281e-7, 5.425e-7
-0.117, -1.169e-6, -6.284e-7, 5.404e-7
-0.118, -1.169e-6, -6.275e-7, 5.413e-7
-0.119, -1.164e-6, -6.244e-7, 5.398e-7
-0.120, -1.165e-6, -6.265e-7, 5.389e-7
-0.121, -1.163e-6, -6.238e-7, 5.389e-7
-0.122, -1.160e-6, -6.220e-7, 5.382e-7
-0.123, -1.161e-6, -6.253e-7, 5.358e-7
-0.124, -1.157e-6, -6.204e-7, 5.370e-7
-0.125, -1.155e-6, -6.201e-7, 5.346e-7
-0.126, -1.157e-6, -6.217e-7, 5.352e-7
-0.127, -1.153e-6, -6.183e-7, 5.352e-7
-0.128, -1.152e-6, -6.189e-7, 5.331e-7
-0.129, -1.151e-6, -6.186e-7, 5.324e-7
-0.130, -1.150e-6, -6.165e-7, 5.334e-7
-0.131, -1.148e-6, -6.168e-7, 5.315e-7
-0.132, -1.150e-6, -6.174e-7, 5.321e-7
-0.133, -1.145e-6, -6.149e-7, 5.300e-7
-0.134, -1.143e-6, -6.140e-7, 5.288e-7
-0.135, -1.147e-6, -6.165e-7, 5.306e-7
-0.136, -1.141e-6, -6.116e-7, 5.297e-7
-0.137, -1.139e-6, -6.122e-7, 5.266e-7
-0.138, -1.138e-6, -6.116e-7, 5.266e-7
-0.139, -1.139e-6, -6.107e-7, 5.279e-7
-0.140, -1.135e-6, -6.095e-7, 5.260e-7
-0.141, -1.134e-6, -6.085e-7, 5.251e-7
-0.142, -1.131e-6, -6.073e-7, 5.239e-7
-0.143, -1.132e-6, -6.079e-7, 5.236e-7
-0.144, -1.132e-6, -6.076e-7, 5.242e-7
-0.145, -1.129e-6, -6.067e-7, 5.227e-7
-0.146, -1.128e-6, -6.058e-7, 5.221e-7
-0.147, -1.126e-6, -6.046e-7, 5.215e-7
-0.148, -1.123e-6, -6.027e-7, 5.202e-7
-0.149, -1.123e-6, -6.030e-7, 5.199e-7
-0.150, -1.122e-6, -6.030e-7, 5.187e-7
-0.151, -1.119e-6, -6.006e-7, 5.187e-7
-0.152, -1.117e-6, -6.000e-7, 5.175e-7
-0.153, -1.118e-6, -6.000e-7, 5.178e-7
-0.154, -1.117e-6, -6.003e-7, 5.166e-7
-0.155, -1.115e-6, -5.985e-7, 5.163e-7
-0.156, -1.115e-6, -5.988e-7, 5.163e-7
-0.157, -1.113e-6, -5.982e-7, 5.147e-7
-0.158, -1.113e-6, -5.966e-7, 5.160e-7
-0.159, -1.111e-6, -5.963e-7, 5.144e-7
-0.160, -1.110e-6, -5.966e-7, 5.132e-7
-0.161, -1.111e-6, -5.973e-7, 5.141e-7
-0.162, -1.106e-6, -5.945e-7, 5.117e-7
-0.163, -1.109e-6, -5.960e-7, 5.129e-7
-0.164, -1.107e-6, -5.945e-7, 5.123e-7
-0.165, -1.104e-6, -5.939e-7, 5.105e-7
-0.166, -1.104e-6, -5.942e-7, 5.102e-7
-0.167, -1.100e-6, -5.902e-7, 5.099e-7
-0.168, -1.099e-6, -5.908e-7, 5.080e-7
-0.169, -1.100e-6, -5.936e-7, 5.065e-7
-0.170, -1.101e-6, -5.927e-7, 5.083e-7
-0.171, -1.098e-6, -5.915e-7, 5.068e-7
-0.172, -1.100e-6, -5.933e-7, 5.071e-7
-0.173, -1.096e-6, -5.887e-7, 5.077e-7
-0.174, -1.095e-6, -5.896e-7, 5.056e-7
-0.175, -1.096e-6, -5.896e-7, 5.059e-7
-0.176, -1.094e-6, -5.890e-7, 5.053e-7
-0.177, -1.091e-6, -5.869e-7, 5.038e-7
-0.178, -1.092e-6, -5.863e-7, 5.053e-7
-0.179, -1.087e-6, -5.829e-7, 5.044e-7
-0.180, -1.090e-6, -5.872e-7, 5.031e-7
-0.181, -1.094e-6, -5.890e-7, 5.050e-7
-0.182, -1.089e-6, -5.853e-7, 5.038e-7
-0.183, -1.088e-6, -5.860e-7, 5.016e-7
-0.184, -1.089e-6, -5.850e-7, 5.038e-7
-0.185, -1.085e-6, -5.838e-7, 5.016e-7
-0.186, -1.086e-6, -5.857e-7, 5.007e-7
-0.187, -1.085e-6, -5.829e-7, 5.016e-7
-0.188, -1.081e-6, -5.820e-7, 4.995e-7
-0.189, -1.085e-6, -5.853e-7, 4.995e-7
-0.190, -1.083e-6, -5.829e-7, 5.001e-7
-0.191, -1.082e-6, -5.817e-7, 5.001e-7
-0.192, -1.083e-6, -5.832e-7, 4.995e-7
-0.193, -1.082e-6, -5.835e-7, 4.989e-7
-0.194, -1.079e-6, -5.799e-7, 4.989e-7
-0.195, -1.078e-6, -5.792e-7, 4.983e-7
-0.196, -1.078e-6, -5.802e-7, 4.974e-7
-0.197, -1.077e-6, -5.805e-7, 4.967e-7
-0.198, -1.080e-6, -5.820e-7, 4.980e-7
-0.199, -1.077e-6, -5.792e-7, 4.974e-7
-0.200, -1.077e-6, -5.799e-7, 4.974e-7
-0.201, -1.075e-6, -5.783e-7, 4.970e-7
-0.202, -1.075e-6, -5.783e-7, 4.970e-7
-0.203, -1.073e-6, -5.777e-7, 4.955e-7
-0.204, -1.077e-6, -5.811e-7, 4.961e-7
-0.205, -1.071e-6, -5.759e-7, 4.949e-7
-0.206, -1.074e-6, -5.792e-7, 4.952e-7
-0.207, -1.071e-6, -5.759e-7, 4.952e-7
-0.208, -1.073e-6, -5.771e-7, 4.955e-7
-0.209, -1.071e-6, -5.768e-7, 4.940e-7
-0.210, -1.073e-6, -5.783e-7, 4.949e-7
-0.211, -1.075e-6, -5.802e-7, 4.949e-7
-0.212, -1.069e-6, -5.756e-7, 4.934e-7
-0.213, -1.069e-6, -5.750e-7, 4.940e-7
-0.214, -1.065e-6, -5.734e-7, 4.916e-7
-0.215, -1.069e-6, -5.759e-7, 4.928e-7
-0.216, -1.068e-6, -5.753e-7, 4.928e-7
-0.217, -1.065e-6, -5.738e-7, 4.909e-7
-0.218, -1.064e-6, -5.731e-7, 4.912e-7
-0.219, -1.064e-6, -5.725e-7, 4.916e-7
-0.220, -1.064e-6, -5.731e-7, 4.906e-7
-0.221, -1.065e-6, -5.731e-7, 4.922e-7
-0.222, -1.061e-6, -5.701e-7, 4.906e-7
-0.223, -1.063e-6, -5.707e-7, 4.922e-7
-0.224, -1.063e-6, -5.713e-7, 4.912e-7
-0.225, -1.061e-6, -5.692e-7, 4.916e-7
-0.226, -1.060e-6, -5.716e-7, 4.888e-7
-0.227, -1.061e-6, -5.713e-7, 4.894e-7
-0.228, -1.060e-6, -5.704e-7, 4.894e-7
-0.229, -1.059e-6, -5.695e-7, 4.894e-7
-0.230, -1.060e-6, -5.701e-7, 4.897e-7
-0.231, -1.059e-6, -5.710e-7, 4.882e-7
-0.232, -1.056e-6, -5.677e-7, 4.879e-7
-0.233, -1.056e-6, -5.683e-7, 4.882e-7
-0.234, -1.056e-6, -5.680e-7, 4.882e-7
-0.235, -1.057e-6, -5.698e-7, 4.876e-7
-0.236, -1.055e-6, -5.655e-7, 4.894e-7
-0.237, -1.052e-6, -5.652e-7, 4.867e-7
-0.238, -1.055e-6, -5.667e-7, 4.879e-7
-0.239, -1.053e-6, -5.643e-7, 4.885e-7
-0.240, -1.049e-6, -5.631e-7, 4.861e-7
-0.241, -1.052e-6, -5.652e-7, 4.873e-7
-0.242, -1.052e-6, -5.652e-7, 4.867e-7
-0.243, -1.049e-6, -5.652e-7, 4.839e-7
-0.244, -1.052e-6, -5.658e-7, 4.861e-7
-0.245, -1.050e-6, -5.649e-7, 4.848e-7
-0.246, -1.045e-6, -5.612e-7, 4.842e-7
-0.247, -1.051e-6, -5.646e-7, 4.861e-7
-0.248, -1.050e-6, -5.640e-7, 4.858e-7
-0.249, -1.051e-6, -5.680e-7, 4.830e-7
-0.250, -1.047e-6, -5.612e-7, 4.854e-7
-0.251, -1.045e-6, -5.603e-7, 4.845e-7
-0.252, -1.043e-6, -5.597e-7, 4.833e-7
-0.253, -1.045e-6, -5.622e-7, 4.830e-7
-0.254, -1.043e-6, -5.594e-7, 4.833e-7
-0.255, -1.042e-6, -5.597e-7, 4.824e-7
-0.256, -1.042e-6, -5.591e-7, 4.830e-7
-0.257, -1.040e-6, -5.573e-7, 4.830e-7
-0.258, -1.039e-6, -5.579e-7, 4.812e-7
-0.259, -1.040e-6, -5.585e-7, 4.815e-7
-0.260, -1.038e-6, -5.579e-7, 4.806e-7
-0.261, -1.038e-6, -5.570e-7, 4.815e-7
-0.262, -1.038e-6, -5.558e-7, 4.821e-7
-0.263, -1.036e-6, -5.558e-7, 4.800e-7
-0.264, -1.036e-6, -5.554e-7, 4.809e-7
-0.265, -1.038e-6, -5.573e-7, 4.806e-7
-0.266, -1.032e-6, -5.536e-7, 4.787e-7
-0.267, -1.036e-6, -5.551e-7, 4.809e-7
-0.268, -1.031e-6, -5.527e-7, 4.784e-7
-0.269, -1.031e-6, -5.536e-7, 4.775e-7
-0.270, -1.031e-6, -5.539e-7, 4.775e-7
-0.271, -1.031e-6, -5.518e-7, 4.797e-7
-0.272, -1.033e-6, -5.542e-7, 4.790e-7
-0.273, -1.036e-6, -5.551e-7, 4.806e-7
-0.274, -1.027e-6, -5.496e-7, 4.769e-7
-0.275, -1.028e-6, -5.506e-7, 4.772e-7
-0.276, -1.027e-6, -5.500e-7, 4.775e-7
-0.277, -1.027e-6, -5.500e-7, 4.766e-7
-0.278, -1.027e-6, -5.503e-7, 4.763e-7
-0.279, -1.026e-6, -5.500e-7, 4.763e-7
-0.280, -1.028e-6, -5.521e-7, 4.760e-7
-0.281, -1.031e-6, -5.554e-7, 4.757e-7
-0.282, -1.025e-6, -5.484e-7, 4.766e-7
-0.283, -1.027e-6, -5.512e-7, 4.757e-7
-0.284, -1.025e-6, -5.493e-7, 4.754e-7
-0.285, -1.023e-6, -5.478e-7, 4.754e-7
-0.286, -1.023e-6, -5.487e-7, 4.742e-7
-0.287, -1.022e-6, -5.472e-7, 4.745e-7
-0.288, -1.022e-6, -5.469e-7, 4.751e-7
-0.289, -1.021e-6, -5.481e-7, 4.726e-7
-0.290, -1.020e-6, -5.466e-7, 4.739e-7
-0.291, -1.021e-6, -5.469e-7, 4.745e-7
-0.292, -1.023e-6, -5.493e-7, 4.739e-7
-0.293, -1.020e-6, -5.460e-7, 4.739e-7
-0.294, -1.020e-6, -5.460e-7, 4.742e-7
-0.295, -1.018e-6, -5.472e-7, 4.711e-7
-0.296, -1.019e-6, -5.460e-7, 4.732e-7
-0.297, -1.015e-6, -5.445e-7, 4.705e-7
-0.298, -1.017e-6, -5.463e-7, 4.708e-7
-0.299, -1.016e-6, -5.438e-7, 4.726e-7
-0.300, -1.012e-6, -5.414e-7, 4.702e-7
-0.301, -1.016e-6, -5.451e-7, 4.708e-7
-0.302, -1.016e-6, -5.442e-7, 4.717e-7
-0.303, -1.013e-6, -5.417e-7, 4.711e-7
-0.304, -1.013e-6, -5.432e-7, 4.699e-7
-0.305, -1.017e-6, -5.454e-7, 4.714e-7
-0.306, -1.010e-6, -5.405e-7, 4.696e-7
-0.307, -1.014e-6, -5.442e-7, 4.702e-7
-0.308, -1.011e-6, -5.420e-7, 4.687e-7
-0.309, -1.010e-6, -5.411e-7, 4.690e-7
-0.310, -1.015e-6, -5.445e-7, 4.702e-7
-0.311, -1.012e-6, -5.423e-7, 4.693e-7
-0.312, -1.009e-6, -5.411e-7, 4.684e-7
-0.313, -1.012e-6, -5.438e-7, 4.684e-7
-0.314, -1.013e-6, -5.457e-7, 4.674e-7
-0.315, -1.012e-6, -5.432e-7, 4.684e-7
-0.316, -1.011e-6, -5.417e-7, 4.693e-7
-0.317, -1.009e-6, -5.411e-7, 4.677e-7
-0.318, -1.007e-6, -5.399e-7, 4.674e-7
-0.319, -1.008e-6, -5.399e-7, 4.681e-7
-0.320, -1.008e-6, -5.411e-7, 4.665e-7
-0.321, -1.007e-6, -5.411e-7, 4.656e-7
-0.322, -1.007e-6, -5.396e-7, 4.677e-7
-0.323, -1.005e-6, -5.402e-7, 4.650e-7
-0.324, -1.007e-6, -5.420e-7, 4.653e-7
-0.325, -1.007e-6, -5.408e-7, 4.665e-7
-0.326, -1.003e-6, -5.381e-7, 4.650e-7
-0.327, -1.007e-6, -5.417e-7, 4.650e-7
-0.328, -1.005e-6, -5.390e-7, 4.659e-7
-0.329, -1.005e-6, -5.393e-7, 4.653e-7
-0.330, -1.002e-6, -5.384e-7, 4.641e-7
-0.331, -1.002e-6, -5.381e-7, 4.644e-7
-0.332, -1.003e-6, -5.402e-7, 4.632e-7
-0.333, -1.000e-6, -5.374e-7, 4.629e-7
-0.334, -1.005e-6, -5.429e-7, 4.623e-7
-0.335, -1.002e-6, -5.399e-7, 4.616e-7
-0.336, -1.001e-6, -5.384e-7, 4.629e-7
-0.337, -9.988e-7, -5.374e-7, 4.613e-7
-0.338, -1.000e-6, -5.399e-7, 4.604e-7
-0.339, -1.005e-6, -5.420e-7, 4.626e-7
-0.340, -1.002e-6, -5.396e-7, 4.620e-7
-0.341, -1.006e-6, -5.448e-7, 4.610e-7
-0.342, -1.002e-6, -5.399e-7, 4.616e-7
-0.343, -9.979e-7, -5.377e-7, 4.601e-7
-0.344, -9.994e-7, -5.399e-7, 4.595e-7
-0.345, -9.997e-7, -5.396e-7, 4.601e-7
-0.346, -9.957e-7, -5.384e-7, 4.574e-7
-0.347, -9.957e-7, -5.377e-7, 4.580e-7
-0.348, -9.985e-7, -5.390e-7, 4.595e-7
-0.349, -9.951e-7, -5.384e-7, 4.568e-7
-0.350, -9.970e-7, -5.393e-7, 4.577e-7
-0.351, -9.966e-7, -5.371e-7, 4.595e-7
-0.352, -9.970e-7, -5.405e-7, 4.565e-7
-0.353, -9.979e-7, -5.417e-7, 4.562e-7
-0.354, -9.970e-7, -5.393e-7, 4.577e-7
-0.355, -9.951e-7, -5.399e-7, 4.552e-7
-0.356, -9.960e-7, -5.408e-7, 4.552e-7
-0.357, -9.948e-7, -5.399e-7, 4.549e-7
-0.358, -9.933e-7, -5.390e-7, 4.543e-7
-0.359, -9.927e-7, -5.384e-7, 4.543e-7
-0.360, -9.942e-7, -5.399e-7, 4.543e-7
-0.361, -9.921e-7, -5.396e-7, 4.525e-7
-0.362, -9.930e-7, -5.396e-7, 4.534e-7
-0.363, -9.930e-7, -5.390e-7, 4.540e-7
-0.364, -9.942e-7, -5.411e-7, 4.531e-7
-0.365, -9.915e-7, -5.390e-7, 4.525e-7
-0.366, -9.912e-7, -5.390e-7, 4.522e-7
-0.367, -9.902e-7, -5.399e-7, 4.504e-7
-0.368, -9.896e-7, -5.377e-7, 4.519e-7
-0.369, -9.915e-7, -5.411e-7, 4.504e-7
-0.370, -9.912e-7, -5.405e-7, 4.507e-7
-0.371, -9.908e-7, -5.399e-7, 4.510e-7
-0.372, -9.902e-7, -5.411e-7, 4.491e-7
-0.373, -9.890e-7, -5.408e-7, 4.482e-7
-0.374, -9.881e-7, -5.390e-7, 4.491e-7
-0.375, -9.896e-7, -5.426e-7, 4.470e-7
-0.376, -9.915e-7, -5.423e-7, 4.491e-7
-0.377, -9.899e-7, -5.417e-7, 4.482e-7
-0.378, -9.887e-7, -5.414e-7, 4.473e-7
-0.379, -9.887e-7, -5.408e-7, 4.479e-7
-0.380, -9.887e-7, -5.417e-7, 4.470e-7
-0.381, -9.884e-7, -5.417e-7, 4.467e-7
-0.382, -9.887e-7, -5.426e-7, 4.461e-7
-0.383, -9.915e-7, -5.448e-7, 4.467e-7
-0.384, -9.893e-7, -5.439e-7, 4.455e-7
-0.385, -9.887e-7, -5.420e-7, 4.467e-7
-0.386, -9.869e-7, -5.432e-7, 4.436e-7
-0.387, -9.887e-7, -5.432e-7, 4.455e-7
-0.388, -9.890e-7, -5.439e-7, 4.452e-7
-0.389, -9.878e-7, -5.442e-7, 4.436e-7
-0.390, -9.908e-7, -5.466e-7, 4.443e-7
-0.391, -9.890e-7, -5.454e-7, 4.436e-7
-0.392, -9.872e-7, -5.457e-7, 4.415e-7
-0.393, -9.869e-7, -5.448e-7, 4.421e-7
-0.394, -9.878e-7, -5.451e-7, 4.427e-7
-0.395, -9.890e-7, -5.469e-7, 4.421e-7
-0.396, -9.899e-7, -5.481e-7, 4.418e-7
-0.397, -9.905e-7, -5.487e-7, 4.418e-7
-0.398, -9.902e-7, -5.487e-7, 4.415e-7
-0.399, -9.878e-7, -5.472e-7, 4.406e-7
-0.400, -9.902e-7, -5.490e-7, 4.412e-7
