Mar. 20, 2018   15:32:36
Square Wave Voltammetry
File: c:\users\electrochemist\desktop\2018\20032018_unbufarray_unpap\51_g3_ph7,95_1.txt
Data Source:  Experiment
Instrument Model:  CHI1040A
Header: 
Note: 

Init E (V) = 0.7
Final E (V) = -0.4
Incr E (V) = 0.001
Amplitude (V) = 0.1
Frequency (Hz) = 152
Quiet Time (sec) = 2
Sensitivity (A/V) = 1e-6

Difference:

Forward:

Reverse:

Potential/V, Diff(i/A), For(i/A), Rev(i/A)

0.699, -5.792e-7, -1.630e-7, 4.162e-7
0.698, -7.229e-7, -3.440e-7, 3.790e-7
0.697, -7.238e-7, -3.534e-7, 3.704e-7
0.696, -7.217e-7, -3.562e-7, 3.655e-7
0.695, -7.174e-7, -3.568e-7, 3.606e-7
0.694, -7.177e-7, -3.577e-7, 3.600e-7
0.693, -7.153e-7, -3.571e-7, 3.582e-7
0.692, -7.128e-7, -3.589e-7, 3.539e-7
0.691, -7.132e-7, -3.595e-7, 3.536e-7
0.690, -7.083e-7, -3.577e-7, 3.506e-7
0.689, -7.074e-7, -3.586e-7, 3.487e-7
0.688, -7.092e-7, -3.586e-7, 3.506e-7
0.687, -7.040e-7, -3.586e-7, 3.454e-7
0.686, -7.034e-7, -3.586e-7, 3.448e-7
0.685, -7.013e-7, -3.571e-7, 3.442e-7
0.684, -6.994e-7, -3.592e-7, 3.402e-7
0.683, -7.028e-7, -3.595e-7, 3.433e-7
0.682, -7.000e-7, -3.580e-7, 3.420e-7
0.681, -6.958e-7, -3.574e-7, 3.384e-7
0.680, -6.985e-7, -3.592e-7, 3.393e-7
0.679, -6.970e-7, -3.583e-7, 3.387e-7
0.678, -6.967e-7, -3.601e-7, 3.365e-7
0.677, -6.939e-7, -3.601e-7, 3.338e-7
0.676, -6.958e-7, -3.589e-7, 3.368e-7
0.675, -6.903e-7, -3.577e-7, 3.326e-7
0.674, -6.958e-7, -3.611e-7, 3.347e-7
0.673, -6.918e-7, -3.589e-7, 3.329e-7
0.672, -6.915e-7, -3.604e-7, 3.310e-7
0.671, -6.918e-7, -3.611e-7, 3.307e-7
0.670, -6.872e-7, -3.577e-7, 3.295e-7
0.669, -6.866e-7, -3.592e-7, 3.274e-7
0.668, -6.866e-7, -3.580e-7, 3.286e-7
0.667, -6.860e-7, -3.580e-7, 3.280e-7
0.666, -6.857e-7, -3.601e-7, 3.256e-7
0.665, -6.878e-7, -3.620e-7, 3.259e-7
0.664, -6.851e-7, -3.589e-7, 3.262e-7
0.663, -6.832e-7, -3.595e-7, 3.237e-7
0.662, -6.842e-7, -3.614e-7, 3.228e-7
0.661, -6.820e-7, -3.604e-7, 3.216e-7
0.660, -6.814e-7, -3.592e-7, 3.222e-7
0.659, -6.814e-7, -3.595e-7, 3.219e-7
0.658, -6.796e-7, -3.592e-7, 3.204e-7
0.657, -6.823e-7, -3.601e-7, 3.222e-7
0.656, -6.778e-7, -3.577e-7, 3.201e-7
0.655, -6.808e-7, -3.598e-7, 3.210e-7
0.654, -6.793e-7, -3.598e-7, 3.195e-7
0.653, -6.762e-7, -3.586e-7, 3.176e-7
0.652, -6.771e-7, -3.604e-7, 3.167e-7
0.651, -6.839e-7, -3.607e-7, 3.231e-7
0.650, -6.768e-7, -3.592e-7, 3.176e-7
0.649, -6.750e-7, -3.611e-7, 3.140e-7
0.648, -6.750e-7, -3.589e-7, 3.161e-7
0.647, -6.738e-7, -3.595e-7, 3.143e-7
0.646, -6.750e-7, -3.607e-7, 3.143e-7
0.645, -6.729e-7, -3.595e-7, 3.133e-7
0.644, -6.717e-7, -3.586e-7, 3.130e-7
0.643, -6.726e-7, -3.604e-7, 3.121e-7
0.642, -6.759e-7, -3.617e-7, 3.143e-7
0.641, -6.717e-7, -3.595e-7, 3.121e-7
0.640, -6.710e-7, -3.611e-7, 3.100e-7
0.639, -6.710e-7, -3.604e-7, 3.106e-7
0.638, -6.713e-7, -3.604e-7, 3.109e-7
0.637, -6.698e-7, -3.620e-7, 3.079e-7
0.636, -6.735e-7, -3.629e-7, 3.106e-7
0.635, -6.707e-7, -3.623e-7, 3.085e-7
0.634, -6.686e-7, -3.614e-7, 3.072e-7
0.633, -6.704e-7, -3.614e-7, 3.091e-7
0.632, -6.710e-7, -3.626e-7, 3.085e-7
0.631, -6.720e-7, -3.635e-7, 3.085e-7
0.630, -6.713e-7, -3.614e-7, 3.100e-7
0.629, -6.701e-7, -3.632e-7, 3.069e-7
0.628, -6.720e-7, -3.632e-7, 3.088e-7
0.627, -6.665e-7, -3.601e-7, 3.063e-7
0.626, -6.698e-7, -3.644e-7, 3.054e-7
0.625, -6.692e-7, -3.617e-7, 3.076e-7
0.624, -6.674e-7, -3.623e-7, 3.051e-7
0.623, -6.686e-7, -3.647e-7, 3.039e-7
0.622, -6.701e-7, -3.632e-7, 3.069e-7
0.621, -6.683e-7, -3.626e-7, 3.057e-7
0.620, -6.707e-7, -3.662e-7, 3.045e-7
0.619, -6.689e-7, -3.647e-7, 3.042e-7
0.618, -6.656e-7, -3.617e-7, 3.039e-7
0.617, -6.674e-7, -3.638e-7, 3.036e-7
0.616, -6.713e-7, -3.653e-7, 3.060e-7
0.615, -6.692e-7, -3.650e-7, 3.042e-7
0.614, -6.707e-7, -3.678e-7, 3.030e-7
0.613, -6.723e-7, -3.659e-7, 3.063e-7
0.612, -6.701e-7, -3.665e-7, 3.036e-7
0.611, -6.695e-7, -3.668e-7, 3.027e-7
0.610, -6.683e-7, -3.659e-7, 3.024e-7
0.609, -6.704e-7, -3.659e-7, 3.045e-7
0.608, -6.707e-7, -3.678e-7, 3.030e-7
0.607, -6.707e-7, -3.659e-7, 3.048e-7
0.606, -6.698e-7, -3.678e-7, 3.021e-7
0.605, -6.692e-7, -3.675e-7, 3.018e-7
0.604, -6.720e-7, -3.681e-7, 3.039e-7
0.603, -6.720e-7, -3.690e-7, 3.030e-7
0.602, -6.695e-7, -3.675e-7, 3.021e-7
0.601, -6.707e-7, -3.687e-7, 3.021e-7
0.600, -6.726e-7, -3.693e-7, 3.033e-7
0.599, -6.677e-7, -3.653e-7, 3.024e-7
0.598, -6.729e-7, -3.699e-7, 3.030e-7
0.597, -6.720e-7, -3.696e-7, 3.024e-7
0.596, -6.713e-7, -3.696e-7, 3.018e-7
0.595, -6.707e-7, -3.705e-7, 3.002e-7
0.594, -6.741e-7, -3.726e-7, 3.014e-7
0.593, -6.738e-7, -3.714e-7, 3.024e-7
0.592, -6.713e-7, -3.714e-7, 2.999e-7
0.591, -6.732e-7, -3.717e-7, 3.014e-7
0.590, -6.729e-7, -3.711e-7, 3.018e-7
0.589, -6.729e-7, -3.720e-7, 3.008e-7
0.588, -6.726e-7, -3.714e-7, 3.011e-7
0.587, -6.756e-7, -3.723e-7, 3.033e-7
0.586, -6.726e-7, -3.723e-7, 3.002e-7
0.585, -6.713e-7, -3.717e-7, 2.996e-7
0.584, -6.744e-7, -3.717e-7, 3.027e-7
0.583, -6.738e-7, -3.739e-7, 2.999e-7
0.582, -6.753e-7, -3.742e-7, 3.011e-7
0.581, -6.750e-7, -3.726e-7, 3.024e-7
0.580, -6.753e-7, -3.751e-7, 3.002e-7
0.579, -6.762e-7, -3.751e-7, 3.011e-7
0.578, -6.756e-7, -3.745e-7, 3.011e-7
0.577, -6.741e-7, -3.754e-7, 2.987e-7
0.576, -6.762e-7, -3.748e-7, 3.014e-7
0.575, -6.735e-7, -3.736e-7, 2.999e-7
0.574, -6.775e-7, -3.769e-7, 3.005e-7
0.573, -6.771e-7, -3.754e-7, 3.018e-7
0.572, -6.741e-7, -3.763e-7, 2.978e-7
0.571, -6.756e-7, -3.775e-7, 2.981e-7
0.570, -6.750e-7, -3.745e-7, 3.005e-7
0.569, -6.759e-7, -3.769e-7, 2.990e-7
0.568, -6.796e-7, -3.788e-7, 3.008e-7
0.567, -6.781e-7, -3.778e-7, 3.002e-7
0.566, -6.741e-7, -3.772e-7, 2.969e-7
0.565, -6.771e-7, -3.781e-7, 2.990e-7
0.564, -6.781e-7, -3.781e-7, 2.999e-7
0.563, -6.771e-7, -3.791e-7, 2.981e-7
0.562, -6.775e-7, -3.788e-7, 2.987e-7
0.561, -6.784e-7, -3.772e-7, 3.011e-7
0.560, -6.768e-7, -3.794e-7, 2.975e-7
0.559, -6.805e-7, -3.812e-7, 2.993e-7
0.558, -6.805e-7, -3.803e-7, 3.002e-7
0.557, -6.784e-7, -3.800e-7, 2.984e-7
0.556, -6.796e-7, -3.815e-7, 2.981e-7
0.555, -6.793e-7, -3.803e-7, 2.990e-7
0.554, -6.796e-7, -3.815e-7, 2.981e-7
0.553, -6.808e-7, -3.830e-7, 2.978e-7
0.552, -6.805e-7, -3.815e-7, 2.990e-7
0.551, -6.805e-7, -3.830e-7, 2.975e-7
0.550, -6.811e-7, -3.815e-7, 2.996e-7
0.549, -6.787e-7, -3.809e-7, 2.978e-7
0.548, -6.811e-7, -3.842e-7, 2.969e-7
0.547, -6.817e-7, -3.833e-7, 2.984e-7
0.546, -6.805e-7, -3.830e-7, 2.975e-7
0.545, -6.836e-7, -3.839e-7, 2.996e-7
0.544, -6.817e-7, -3.830e-7, 2.987e-7
0.543, -6.823e-7, -3.849e-7, 2.975e-7
0.542, -6.826e-7, -3.842e-7, 2.984e-7
0.541, -6.832e-7, -3.849e-7, 2.984e-7
0.540, -6.823e-7, -3.861e-7, 2.963e-7
0.539, -6.811e-7, -3.836e-7, 2.975e-7
0.538, -6.820e-7, -3.839e-7, 2.981e-7
0.537, -6.832e-7, -3.858e-7, 2.975e-7
0.536, -6.836e-7, -3.858e-7, 2.978e-7
0.535, -6.842e-7, -3.864e-7, 2.978e-7
0.534, -6.857e-7, -3.876e-7, 2.981e-7
0.533, -6.848e-7, -3.873e-7, 2.975e-7
0.532, -6.848e-7, -3.858e-7, 2.990e-7
0.531, -6.872e-7, -3.894e-7, 2.978e-7
0.530, -6.869e-7, -3.876e-7, 2.993e-7
0.529, -6.848e-7, -3.870e-7, 2.978e-7
0.528, -6.872e-7, -3.894e-7, 2.978e-7
0.527, -6.884e-7, -3.888e-7, 2.996e-7
0.526, -6.866e-7, -3.888e-7, 2.978e-7
0.525, -6.857e-7, -3.894e-7, 2.963e-7
0.524, -6.878e-7, -3.885e-7, 2.993e-7
0.523, -6.875e-7, -3.897e-7, 2.978e-7
0.522, -6.869e-7, -3.916e-7, 2.953e-7
0.521, -6.897e-7, -3.916e-7, 2.981e-7
0.520, -6.890e-7, -3.910e-7, 2.981e-7
0.519, -6.930e-7, -3.937e-7, 2.993e-7
0.518, -6.897e-7, -3.925e-7, 2.972e-7
0.517, -6.906e-7, -3.937e-7, 2.969e-7
0.516, -6.918e-7, -3.925e-7, 2.993e-7
0.515, -6.915e-7, -3.919e-7, 2.996e-7
0.514, -6.955e-7, -3.968e-7, 2.987e-7
0.513, -6.952e-7, -3.940e-7, 3.011e-7
0.512, -6.918e-7, -3.934e-7, 2.984e-7
0.511, -6.970e-7, -3.980e-7, 2.990e-7
0.510, -6.958e-7, -3.949e-7, 3.008e-7
0.509, -6.964e-7, -3.961e-7, 3.002e-7
0.508, -6.945e-7, -3.965e-7, 2.981e-7
0.507, -6.982e-7, -3.968e-7, 3.014e-7
0.506, -6.948e-7, -3.955e-7, 2.993e-7
0.505, -6.979e-7, -3.992e-7, 2.987e-7
0.504, -6.970e-7, -3.977e-7, 2.993e-7
0.503, -6.967e-7, -3.977e-7, 2.990e-7
0.502, -6.991e-7, -3.986e-7, 3.005e-7
0.501, -7.013e-7, -3.986e-7, 3.027e-7
0.500, -6.994e-7, -3.983e-7, 3.011e-7
0.499, -6.988e-7, -3.992e-7, 2.996e-7
0.498, -7.003e-7, -4.001e-7, 3.002e-7
0.497, -6.994e-7, -3.998e-7, 2.996e-7
0.496, -7.028e-7, -4.019e-7, 3.008e-7
0.495, -7.034e-7, -4.022e-7, 3.011e-7
0.494, -7.009e-7, -4.013e-7, 2.996e-7
0.493, -7.028e-7, -4.026e-7, 3.002e-7
0.492, -7.061e-7, -4.032e-7, 3.030e-7
0.491, -7.028e-7, -4.026e-7, 3.002e-7
0.490, -7.067e-7, -4.041e-7, 3.027e-7
0.489, -7.058e-7, -4.047e-7, 3.011e-7
0.488, -7.083e-7, -4.059e-7, 3.024e-7
0.487, -7.092e-7, -4.050e-7, 3.042e-7
0.486, -7.071e-7, -4.050e-7, 3.021e-7
0.485, -7.095e-7, -4.065e-7, 3.030e-7
0.484, -7.113e-7, -4.074e-7, 3.039e-7
0.483, -7.083e-7, -4.068e-7, 3.014e-7
0.482, -7.113e-7, -4.077e-7, 3.036e-7
0.481, -7.107e-7, -4.065e-7, 3.042e-7
0.480, -7.125e-7, -4.096e-7, 3.030e-7
0.479, -7.150e-7, -4.123e-7, 3.027e-7
0.478, -7.119e-7, -4.084e-7, 3.036e-7
0.477, -7.144e-7, -4.117e-7, 3.027e-7
0.476, -7.141e-7, -4.111e-7, 3.030e-7
0.475, -7.156e-7, -4.105e-7, 3.051e-7
0.474, -7.165e-7, -4.120e-7, 3.045e-7
0.473, -7.208e-7, -4.151e-7, 3.057e-7
0.472, -7.196e-7, -4.126e-7, 3.069e-7
0.471, -7.180e-7, -4.135e-7, 3.045e-7
0.470, -7.186e-7, -4.141e-7, 3.045e-7
0.469, -7.186e-7, -4.135e-7, 3.051e-7
0.468, -7.196e-7, -4.148e-7, 3.048e-7
0.467, -7.205e-7, -4.154e-7, 3.051e-7
0.466, -7.211e-7, -4.160e-7, 3.051e-7
0.465, -7.202e-7, -4.148e-7, 3.054e-7
0.464, -7.214e-7, -4.148e-7, 3.066e-7
0.463, -7.226e-7, -4.166e-7, 3.060e-7
0.462, -7.229e-7, -4.172e-7, 3.057e-7
0.461, -7.238e-7, -4.175e-7, 3.063e-7
0.460, -7.229e-7, -4.175e-7, 3.054e-7
0.459, -7.263e-7, -4.199e-7, 3.063e-7
0.458, -7.278e-7, -4.196e-7, 3.082e-7
0.457, -7.251e-7, -4.193e-7, 3.057e-7
0.456, -7.275e-7, -4.209e-7, 3.066e-7
0.455, -7.281e-7, -4.187e-7, 3.094e-7
0.454, -7.251e-7, -4.206e-7, 3.045e-7
0.453, -7.287e-7, -4.218e-7, 3.069e-7
0.452, -7.293e-7, -4.215e-7, 3.079e-7
0.451, -7.299e-7, -4.221e-7, 3.079e-7
0.450, -7.327e-7, -4.242e-7, 3.085e-7
0.449, -7.318e-7, -4.218e-7, 3.100e-7
0.448, -7.345e-7, -4.248e-7, 3.097e-7
0.447, -7.351e-7, -4.257e-7, 3.094e-7
0.446, -7.348e-7, -4.251e-7, 3.097e-7
0.445, -7.333e-7, -4.251e-7, 3.082e-7
0.444, -7.348e-7, -4.273e-7, 3.075e-7
0.443, -7.360e-7, -4.261e-7, 3.100e-7
0.442, -7.348e-7, -4.261e-7, 3.088e-7
0.441, -7.373e-7, -4.285e-7, 3.088e-7
0.440, -7.363e-7, -4.276e-7, 3.088e-7
0.439, -7.373e-7, -4.276e-7, 3.097e-7
0.438, -7.391e-7, -4.291e-7, 3.100e-7
0.437, -7.391e-7, -4.294e-7, 3.097e-7
0.436, -7.394e-7, -4.300e-7, 3.094e-7
0.435, -7.400e-7, -4.297e-7, 3.103e-7
0.434, -7.403e-7, -4.309e-7, 3.094e-7
0.433, -7.415e-7, -4.318e-7, 3.097e-7
0.432, -7.428e-7, -4.315e-7, 3.112e-7
0.431, -7.428e-7, -4.325e-7, 3.103e-7
0.430, -7.434e-7, -4.322e-7, 3.112e-7
0.429, -7.434e-7, -4.318e-7, 3.115e-7
0.428, -7.461e-7, -4.340e-7, 3.121e-7
0.427, -7.455e-7, -4.334e-7, 3.121e-7
0.426, -7.458e-7, -4.340e-7, 3.118e-7
0.425, -7.461e-7, -4.352e-7, 3.109e-7
0.424, -7.482e-7, -4.358e-7, 3.124e-7
0.423, -7.464e-7, -4.349e-7, 3.115e-7
0.422, -7.482e-7, -4.380e-7, 3.103e-7
0.421, -7.504e-7, -4.380e-7, 3.124e-7
0.420, -7.486e-7, -4.364e-7, 3.121e-7
0.419, -7.516e-7, -4.389e-7, 3.127e-7
0.418, -7.531e-7, -4.392e-7, 3.140e-7
0.417, -7.534e-7, -4.383e-7, 3.152e-7
0.416, -7.540e-7, -4.407e-7, 3.133e-7
0.415, -7.550e-7, -4.401e-7, 3.149e-7
0.414, -7.540e-7, -4.407e-7, 3.133e-7
0.413, -7.565e-7, -4.416e-7, 3.149e-7
0.412, -7.571e-7, -4.410e-7, 3.161e-7
0.411, -7.534e-7, -4.410e-7, 3.124e-7
0.410, -7.574e-7, -4.425e-7, 3.149e-7
0.409, -7.586e-7, -4.428e-7, 3.158e-7
0.408, -7.586e-7, -4.434e-7, 3.152e-7
0.407, -7.601e-7, -4.444e-7, 3.158e-7
0.406, -7.620e-7, -4.462e-7, 3.158e-7
0.405, -7.629e-7, -4.471e-7, 3.158e-7
0.404, -7.672e-7, -4.483e-7, 3.188e-7
0.403, -7.623e-7, -4.462e-7, 3.161e-7
0.402, -7.653e-7, -4.489e-7, 3.164e-7
0.401, -7.666e-7, -4.489e-7, 3.176e-7
0.400, -7.647e-7, -4.489e-7, 3.158e-7
0.399, -7.659e-7, -4.499e-7, 3.161e-7
0.398, -7.684e-7, -4.495e-7, 3.188e-7
0.397, -7.684e-7, -4.499e-7, 3.185e-7
0.396, -7.699e-7, -4.517e-7, 3.182e-7
0.395, -7.708e-7, -4.517e-7, 3.191e-7
0.394, -7.711e-7, -4.523e-7, 3.188e-7
0.393, -7.748e-7, -4.560e-7, 3.188e-7
0.392, -7.721e-7, -4.535e-7, 3.185e-7
0.391, -7.736e-7, -4.535e-7, 3.201e-7
0.390, -7.763e-7, -4.553e-7, 3.210e-7
0.389, -7.760e-7, -4.560e-7, 3.201e-7
0.388, -7.772e-7, -4.563e-7, 3.210e-7
0.387, -7.769e-7, -4.572e-7, 3.198e-7
0.386, -7.812e-7, -4.575e-7, 3.237e-7
0.385, -7.794e-7, -4.584e-7, 3.210e-7
0.384, -7.821e-7, -4.605e-7, 3.216e-7
0.383, -7.827e-7, -4.593e-7, 3.234e-7
0.382, -7.818e-7, -4.599e-7, 3.219e-7
0.381, -7.843e-7, -4.602e-7, 3.240e-7
0.380, -7.858e-7, -4.608e-7, 3.249e-7
0.379, -7.876e-7, -4.642e-7, 3.234e-7
0.378, -7.894e-7, -4.645e-7, 3.249e-7
0.377, -7.864e-7, -4.621e-7, 3.243e-7
0.376, -7.910e-7, -4.645e-7, 3.265e-7
0.375, -7.916e-7, -4.651e-7, 3.265e-7
0.374, -7.931e-7, -4.663e-7, 3.268e-7
0.373, -7.940e-7, -4.691e-7, 3.249e-7
0.372, -7.940e-7, -4.669e-7, 3.271e-7
0.371, -7.943e-7, -4.672e-7, 3.271e-7
0.370, -7.955e-7, -4.694e-7, 3.262e-7
0.369, -7.971e-7, -4.685e-7, 3.286e-7
0.368, -7.986e-7, -4.703e-7, 3.283e-7
0.367, -7.992e-7, -4.709e-7, 3.283e-7
0.366, -8.007e-7, -4.712e-7, 3.295e-7
0.365, -8.007e-7, -4.718e-7, 3.289e-7
0.364, -8.035e-7, -4.746e-7, 3.289e-7
0.363, -8.023e-7, -4.712e-7, 3.310e-7
0.362, -8.047e-7, -4.752e-7, 3.295e-7
0.361, -8.062e-7, -4.755e-7, 3.307e-7
0.360, -8.056e-7, -4.743e-7, 3.314e-7
0.359, -8.059e-7, -4.755e-7, 3.304e-7
0.358, -8.081e-7, -4.767e-7, 3.314e-7
0.357, -8.074e-7, -4.746e-7, 3.329e-7
0.356, -8.096e-7, -4.776e-7, 3.320e-7
0.355, -8.123e-7, -4.785e-7, 3.338e-7
0.354, -8.111e-7, -4.788e-7, 3.323e-7
0.353, -8.129e-7, -4.795e-7, 3.335e-7
0.352, -8.126e-7, -4.798e-7, 3.329e-7
0.351, -8.129e-7, -4.807e-7, 3.323e-7
0.350, -8.145e-7, -4.819e-7, 3.326e-7
0.349, -8.157e-7, -4.798e-7, 3.359e-7
0.348, -8.172e-7, -4.822e-7, 3.350e-7
0.347, -8.193e-7, -4.843e-7, 3.350e-7
0.346, -8.203e-7, -4.840e-7, 3.362e-7
0.345, -8.212e-7, -4.853e-7, 3.359e-7
0.344, -8.212e-7, -4.862e-7, 3.350e-7
0.343, -8.227e-7, -4.846e-7, 3.381e-7
0.342, -8.221e-7, -4.880e-7, 3.341e-7
0.341, -8.251e-7, -4.898e-7, 3.353e-7
0.340, -8.267e-7, -4.868e-7, 3.399e-7
0.339, -8.267e-7, -4.898e-7, 3.368e-7
0.338, -8.282e-7, -4.898e-7, 3.384e-7
0.337, -8.309e-7, -4.911e-7, 3.399e-7
0.336, -8.303e-7, -4.911e-7, 3.393e-7
0.335, -8.331e-7, -4.926e-7, 3.405e-7
0.334, -8.325e-7, -4.920e-7, 3.405e-7
0.333, -8.316e-7, -4.926e-7, 3.390e-7
0.332, -8.352e-7, -4.953e-7, 3.399e-7
0.331, -8.343e-7, -4.941e-7, 3.402e-7
0.330, -8.370e-7, -4.962e-7, 3.408e-7
0.329, -8.398e-7, -4.975e-7, 3.423e-7
0.328, -8.367e-7, -4.953e-7, 3.414e-7
0.327, -8.392e-7, -4.978e-7, 3.414e-7
0.326, -8.395e-7, -4.975e-7, 3.420e-7
0.325, -8.419e-7, -4.984e-7, 3.436e-7
0.324, -8.428e-7, -4.999e-7, 3.429e-7
0.323, -8.432e-7, -4.993e-7, 3.439e-7
0.322, -8.428e-7, -4.999e-7, 3.429e-7
0.321, -8.462e-7, -5.017e-7, 3.445e-7
0.320, -8.462e-7, -5.014e-7, 3.448e-7
0.319, -8.480e-7, -5.026e-7, 3.454e-7
0.318, -8.502e-7, -5.042e-7, 3.460e-7
0.317, -8.499e-7, -5.036e-7, 3.463e-7
0.316, -8.490e-7, -5.042e-7, 3.448e-7
0.315, -8.511e-7, -5.048e-7, 3.463e-7
0.314, -8.520e-7, -5.054e-7, 3.466e-7
0.313, -8.547e-7, -5.078e-7, 3.469e-7
0.312, -8.572e-7, -5.081e-7, 3.490e-7
0.311, -8.554e-7, -5.069e-7, 3.484e-7
0.310, -8.566e-7, -5.100e-7, 3.466e-7
0.309, -8.581e-7, -5.094e-7, 3.487e-7
0.308, -8.596e-7, -5.103e-7, 3.494e-7
0.307, -8.605e-7, -5.121e-7, 3.484e-7
0.306, -8.615e-7, -5.112e-7, 3.503e-7
0.305, -8.618e-7, -5.124e-7, 3.494e-7
0.304, -8.651e-7, -5.139e-7, 3.512e-7
0.303, -8.654e-7, -5.136e-7, 3.518e-7
0.302, -8.645e-7, -5.155e-7, 3.490e-7
0.301, -8.694e-7, -5.173e-7, 3.521e-7
0.300, -8.700e-7, -5.158e-7, 3.542e-7
0.299, -8.694e-7, -5.173e-7, 3.521e-7
0.298, -8.743e-7, -5.200e-7, 3.542e-7
0.297, -8.737e-7, -5.185e-7, 3.552e-7
0.296, -8.743e-7, -5.207e-7, 3.536e-7
0.295, -8.770e-7, -5.219e-7, 3.552e-7
0.294, -8.752e-7, -5.200e-7, 3.552e-7
0.293, -8.782e-7, -5.240e-7, 3.542e-7
0.292, -8.807e-7, -5.234e-7, 3.573e-7
0.291, -8.786e-7, -5.222e-7, 3.564e-7
0.290, -8.828e-7, -5.261e-7, 3.567e-7
0.289, -8.837e-7, -5.249e-7, 3.588e-7
0.288, -8.831e-7, -5.255e-7, 3.576e-7
0.287, -8.871e-7, -5.292e-7, 3.579e-7
0.286, -8.880e-7, -5.277e-7, 3.603e-7
0.285, -8.883e-7, -5.292e-7, 3.591e-7
0.284, -8.926e-7, -5.326e-7, 3.600e-7
0.283, -8.929e-7, -5.304e-7, 3.625e-7
0.282, -8.944e-7, -5.326e-7, 3.619e-7
0.281, -8.950e-7, -5.341e-7, 3.610e-7
0.280, -8.978e-7, -5.332e-7, 3.646e-7
0.279, -8.959e-7, -5.335e-7, 3.625e-7
0.278, -8.996e-7, -5.371e-7, 3.625e-7
0.277, -9.024e-7, -5.368e-7, 3.655e-7
0.276, -9.027e-7, -5.380e-7, 3.646e-7
0.275, -9.039e-7, -5.393e-7, 3.646e-7
0.274, -9.057e-7, -5.399e-7, 3.658e-7
0.273, -9.072e-7, -5.405e-7, 3.667e-7
0.272, -9.103e-7, -5.426e-7, 3.677e-7
0.271, -9.112e-7, -5.432e-7, 3.680e-7
0.270, -9.112e-7, -5.432e-7, 3.680e-7
0.269, -9.124e-7, -5.438e-7, 3.686e-7
0.268, -9.152e-7, -5.460e-7, 3.692e-7
0.267, -9.191e-7, -5.481e-7, 3.710e-7
0.266, -9.216e-7, -5.503e-7, 3.713e-7
0.265, -9.210e-7, -5.493e-7, 3.716e-7
0.264, -9.204e-7, -5.499e-7, 3.704e-7
0.263, -9.231e-7, -5.503e-7, 3.729e-7
0.262, -9.243e-7, -5.506e-7, 3.738e-7
0.261, -9.268e-7, -5.518e-7, 3.750e-7
0.260, -9.274e-7, -5.527e-7, 3.747e-7
0.259, -9.289e-7, -5.545e-7, 3.744e-7
0.258, -9.323e-7, -5.564e-7, 3.759e-7
0.257, -9.335e-7, -5.564e-7, 3.771e-7
0.256, -9.335e-7, -5.582e-7, 3.753e-7
0.255, -9.365e-7, -5.597e-7, 3.768e-7
0.254, -9.374e-7, -5.591e-7, 3.783e-7
0.253, -9.396e-7, -5.615e-7, 3.780e-7
0.252, -9.420e-7, -5.622e-7, 3.799e-7
0.251, -9.432e-7, -5.618e-7, 3.814e-7
0.250, -9.457e-7, -5.655e-7, 3.802e-7
0.249, -9.481e-7, -5.664e-7, 3.817e-7
0.248, -9.457e-7, -5.631e-7, 3.826e-7
0.247, -9.497e-7, -5.689e-7, 3.808e-7
0.246, -9.518e-7, -5.692e-7, 3.826e-7
0.245, -9.515e-7, -5.670e-7, 3.844e-7
0.244, -9.539e-7, -5.713e-7, 3.826e-7
0.243, -9.579e-7, -5.719e-7, 3.860e-7
0.242, -9.573e-7, -5.725e-7, 3.848e-7
0.241, -9.616e-7, -5.756e-7, 3.860e-7
0.240, -9.625e-7, -5.741e-7, 3.884e-7
0.239, -9.609e-7, -5.747e-7, 3.863e-7
0.238, -9.637e-7, -5.768e-7, 3.869e-7
0.237, -9.683e-7, -5.777e-7, 3.906e-7
0.236, -9.692e-7, -5.795e-7, 3.896e-7
0.235, -9.707e-7, -5.814e-7, 3.893e-7
0.234, -9.753e-7, -5.832e-7, 3.921e-7
0.233, -9.725e-7, -5.826e-7, 3.899e-7
0.232, -9.771e-7, -5.853e-7, 3.918e-7
0.231, -9.796e-7, -5.857e-7, 3.939e-7
0.230, -9.835e-7, -5.887e-7, 3.948e-7
0.229, -9.826e-7, -5.884e-7, 3.942e-7
0.228, -9.817e-7, -5.872e-7, 3.945e-7
0.227, -9.844e-7, -5.899e-7, 3.945e-7
0.226, -9.863e-7, -5.908e-7, 3.954e-7
0.225, -9.869e-7, -5.890e-7, 3.979e-7
0.224, -9.878e-7, -5.924e-7, 3.954e-7
0.223, -9.921e-7, -5.942e-7, 3.979e-7
0.222, -9.939e-7, -5.942e-7, 3.997e-7
0.221, -9.933e-7, -5.960e-7, 3.973e-7
0.220, -9.957e-7, -5.969e-7, 3.988e-7
0.219, -9.994e-7, -5.988e-7, 4.006e-7
0.218, -1.000e-6, -6.000e-7, 4.000e-7
0.217, -1.004e-6, -6.009e-7, 4.028e-7
0.216, -1.004e-6, -6.012e-7, 4.025e-7
0.215, -1.006e-6, -6.037e-7, 4.021e-7
0.214, -1.010e-6, -6.049e-7, 4.052e-7
0.213, -1.009e-6, -6.046e-7, 4.043e-7
0.212, -1.011e-6, -6.061e-7, 4.049e-7
0.211, -1.013e-6, -6.067e-7, 4.058e-7
0.210, -1.015e-6, -6.091e-7, 4.058e-7
0.209, -1.017e-6, -6.101e-7, 4.073e-7
0.208, -1.020e-6, -6.104e-7, 4.092e-7
0.207, -1.022e-6, -6.134e-7, 4.089e-7
0.206, -1.025e-6, -6.156e-7, 4.095e-7
0.205, -1.025e-6, -6.153e-7, 4.095e-7
0.204, -1.027e-6, -6.165e-7, 4.110e-7
0.203, -1.030e-6, -6.171e-7, 4.131e-7
0.202, -1.030e-6, -6.174e-7, 4.128e-7
0.201, -1.032e-6, -6.195e-7, 4.128e-7
0.200, -1.037e-6, -6.220e-7, 4.150e-7
0.199, -1.037e-6, -6.220e-7, 4.150e-7
0.198, -1.041e-6, -6.247e-7, 4.159e-7
0.197, -1.041e-6, -6.241e-7, 4.168e-7
0.196, -1.043e-6, -6.256e-7, 4.177e-7
0.195, -1.046e-6, -6.275e-7, 4.183e-7
0.194, -1.048e-6, -6.278e-7, 4.198e-7
0.193, -1.049e-6, -6.296e-7, 4.198e-7
0.192, -1.050e-6, -6.305e-7, 4.198e-7
0.191, -1.056e-6, -6.330e-7, 4.226e-7
0.190, -1.054e-6, -6.333e-7, 4.208e-7
0.189, -1.059e-6, -6.357e-7, 4.235e-7
0.188, -1.062e-6, -6.357e-7, 4.259e-7
0.187, -1.063e-6, -6.375e-7, 4.253e-7
0.186, -1.065e-6, -6.397e-7, 4.256e-7
0.185, -1.068e-6, -6.400e-7, 4.284e-7
0.184, -1.069e-6, -6.424e-7, 4.266e-7
0.183, -1.074e-6, -6.439e-7, 4.296e-7
0.182, -1.074e-6, -6.430e-7, 4.305e-7
0.181, -1.076e-6, -6.461e-7, 4.296e-7
0.180, -1.079e-6, -6.467e-7, 4.324e-7
0.179, -1.078e-6, -6.464e-7, 4.321e-7
0.178, -1.083e-6, -6.513e-7, 4.317e-7
0.177, -1.085e-6, -6.503e-7, 4.345e-7
0.176, -1.088e-6, -6.513e-7, 4.369e-7
0.175, -1.090e-6, -6.546e-7, 4.354e-7
0.174, -1.094e-6, -6.552e-7, 4.385e-7
0.173, -1.093e-6, -6.552e-7, 4.378e-7
0.172, -1.096e-6, -6.571e-7, 4.391e-7
0.171, -1.099e-6, -6.577e-7, 4.409e-7
0.170, -1.099e-6, -6.595e-7, 4.391e-7
0.169, -1.103e-6, -6.626e-7, 4.409e-7
0.168, -1.106e-6, -6.626e-7, 4.430e-7
0.167, -1.109e-6, -6.638e-7, 4.452e-7
0.166, -1.111e-6, -6.665e-7, 4.446e-7
0.165, -1.113e-6, -6.671e-7, 4.458e-7
0.164, -1.114e-6, -6.671e-7, 4.470e-7
0.163, -1.118e-6, -6.696e-7, 4.482e-7
0.162, -1.120e-6, -6.708e-7, 4.494e-7
0.161, -1.122e-6, -6.711e-7, 4.513e-7
0.160, -1.125e-6, -6.738e-7, 4.513e-7
0.159, -1.126e-6, -6.732e-7, 4.528e-7
0.158, -1.130e-6, -6.769e-7, 4.531e-7
0.157, -1.131e-6, -6.766e-7, 4.543e-7
0.156, -1.133e-6, -6.778e-7, 4.552e-7
0.155, -1.137e-6, -6.818e-7, 4.555e-7
0.154, -1.140e-6, -6.815e-7, 4.583e-7
0.153, -1.141e-6, -6.830e-7, 4.577e-7
0.152, -1.144e-6, -6.839e-7, 4.601e-7
0.151, -1.145e-6, -6.857e-7, 4.595e-7
0.150, -1.147e-6, -6.851e-7, 4.623e-7
0.149, -1.150e-6, -6.876e-7, 4.629e-7
0.148, -1.153e-6, -6.891e-7, 4.638e-7
0.147, -1.152e-6, -6.891e-7, 4.629e-7
0.146, -1.157e-6, -6.915e-7, 4.659e-7
0.145, -1.161e-6, -6.931e-7, 4.681e-7
0.144, -1.162e-6, -6.940e-7, 4.684e-7
0.143, -1.164e-6, -6.958e-7, 4.687e-7
0.142, -1.165e-6, -6.955e-7, 4.699e-7
0.141, -1.168e-6, -6.970e-7, 4.705e-7
0.140, -1.173e-6, -7.007e-7, 4.723e-7
0.139, -1.175e-6, -6.998e-7, 4.748e-7
0.138, -1.175e-6, -7.016e-7, 4.729e-7
0.137, -1.178e-6, -7.028e-7, 4.751e-7
0.136, -1.177e-6, -7.013e-7, 4.760e-7
0.135, -1.182e-6, -7.059e-7, 4.766e-7
0.134, -1.185e-6, -7.056e-7, 4.793e-7
0.133, -1.186e-6, -7.062e-7, 4.797e-7
0.132, -1.188e-6, -7.089e-7, 4.790e-7
0.131, -1.190e-6, -7.086e-7, 4.809e-7
0.130, -1.190e-6, -7.102e-7, 4.803e-7
0.129, -1.196e-6, -7.132e-7, 4.830e-7
0.128, -1.194e-6, -7.108e-7, 4.836e-7
0.127, -1.200e-6, -7.144e-7, 4.855e-7
0.126, -1.201e-6, -7.160e-7, 4.851e-7
0.125, -1.202e-6, -7.150e-7, 4.873e-7
0.124, -1.204e-6, -7.172e-7, 4.864e-7
0.123, -1.208e-6, -7.196e-7, 4.888e-7
0.122, -1.210e-6, -7.193e-7, 4.909e-7
0.121, -1.213e-6, -7.208e-7, 4.925e-7
0.120, -1.215e-6, -7.218e-7, 4.931e-7
0.119, -1.215e-6, -7.218e-7, 4.937e-7
0.118, -1.215e-6, -7.230e-7, 4.916e-7
0.117, -1.220e-6, -7.254e-7, 4.943e-7
0.116, -1.221e-6, -7.248e-7, 4.961e-7
0.115, -1.222e-6, -7.269e-7, 4.955e-7
0.114, -1.225e-6, -7.282e-7, 4.970e-7
0.113, -1.226e-6, -7.276e-7, 4.989e-7
0.112, -1.228e-6, -7.300e-7, 4.983e-7
0.111, -1.230e-6, -7.282e-7, 5.016e-7
0.110, -1.232e-6, -7.291e-7, 5.032e-7
0.109, -1.235e-6, -7.330e-7, 5.016e-7
0.108, -1.237e-6, -7.327e-7, 5.038e-7
0.107, -1.238e-6, -7.337e-7, 5.044e-7
0.106, -1.238e-6, -7.340e-7, 5.041e-7
0.105, -1.242e-6, -7.361e-7, 5.062e-7
0.104, -1.244e-6, -7.361e-7, 5.083e-7
0.103, -1.246e-6, -7.370e-7, 5.086e-7
0.102, -1.247e-6, -7.376e-7, 5.099e-7
0.101, -1.248e-6, -7.379e-7, 5.099e-7
0.100, -1.252e-6, -7.401e-7, 5.117e-7
0.099, -1.252e-6, -7.395e-7, 5.123e-7
0.098, -1.255e-6, -7.407e-7, 5.138e-7
0.097, -1.258e-6, -7.422e-7, 5.154e-7
0.096, -1.255e-6, -7.410e-7, 5.144e-7
0.095, -1.258e-6, -7.425e-7, 5.154e-7
0.094, -1.261e-6, -7.434e-7, 5.178e-7
0.093, -1.263e-6, -7.443e-7, 5.187e-7
0.092, -1.265e-6, -7.468e-7, 5.178e-7
0.091, -1.268e-6, -7.474e-7, 5.202e-7
0.090, -1.267e-6, -7.471e-7, 5.202e-7
0.089, -1.269e-6, -7.477e-7, 5.212e-7
0.088, -1.271e-6, -7.474e-7, 5.239e-7
0.087, -1.272e-6, -7.495e-7, 5.224e-7
0.086, -1.275e-6, -7.507e-7, 5.245e-7
0.085, -1.277e-6, -7.507e-7, 5.263e-7
0.084, -1.276e-6, -7.501e-7, 5.257e-7
0.083, -1.278e-6, -7.510e-7, 5.266e-7
0.082, -1.281e-6, -7.517e-7, 5.291e-7
0.081, -1.279e-6, -7.507e-7, 5.285e-7
0.080, -1.284e-6, -7.541e-7, 5.300e-7
0.079, -1.284e-6, -7.526e-7, 5.318e-7
0.078, -1.286e-6, -7.553e-7, 5.309e-7
0.077, -1.287e-6, -7.550e-7, 5.315e-7
0.076, -1.288e-6, -7.550e-7, 5.331e-7
0.075, -1.288e-6, -7.550e-7, 5.331e-7
0.074, -1.292e-6, -7.559e-7, 5.358e-7
0.073, -1.293e-6, -7.562e-7, 5.364e-7
0.072, -1.295e-6, -7.581e-7, 5.370e-7
0.071, -1.296e-6, -7.590e-7, 5.373e-7
0.070, -1.297e-6, -7.581e-7, 5.389e-7
0.069, -1.297e-6, -7.590e-7, 5.379e-7
0.068, -1.300e-6, -7.599e-7, 5.404e-7
0.067, -1.299e-6, -7.584e-7, 5.404e-7
0.066, -1.301e-6, -7.605e-7, 5.401e-7
0.065, -1.303e-6, -7.593e-7, 5.437e-7
0.064, -1.302e-6, -7.587e-7, 5.431e-7
0.063, -1.305e-6, -7.623e-7, 5.428e-7
0.062, -1.308e-6, -7.617e-7, 5.465e-7
0.061, -1.307e-6, -7.599e-7, 5.471e-7
0.060, -1.308e-6, -7.617e-7, 5.459e-7
0.059, -1.309e-6, -7.620e-7, 5.474e-7
0.058, -1.309e-6, -7.620e-7, 5.471e-7
0.057, -1.313e-6, -7.636e-7, 5.498e-7
0.056, -1.312e-6, -7.623e-7, 5.498e-7
0.055, -1.312e-6, -7.633e-7, 5.486e-7
0.054, -1.313e-6, -7.629e-7, 5.505e-7
0.053, -1.315e-6, -7.623e-7, 5.523e-7
0.052, -1.316e-6, -7.629e-7, 5.529e-7
0.051, -1.319e-6, -7.639e-7, 5.550e-7
0.050, -1.317e-6, -7.620e-7, 5.547e-7
0.049, -1.317e-6, -7.629e-7, 5.541e-7
0.048, -1.319e-6, -7.642e-7, 5.550e-7
0.047, -1.320e-6, -7.629e-7, 5.569e-7
0.046, -1.321e-6, -7.639e-7, 5.572e-7
0.045, -1.323e-6, -7.642e-7, 5.593e-7
0.044, -1.323e-6, -7.633e-7, 5.596e-7
0.043, -1.322e-6, -7.642e-7, 5.575e-7
0.042, -1.322e-6, -7.626e-7, 5.590e-7
0.041, -1.324e-6, -7.642e-7, 5.602e-7
0.040, -1.326e-6, -7.645e-7, 5.611e-7
0.039, -1.326e-6, -7.642e-7, 5.617e-7
0.038, -1.324e-6, -7.629e-7, 5.611e-7
0.037, -1.328e-6, -7.642e-7, 5.636e-7
0.036, -1.326e-6, -7.629e-7, 5.633e-7
0.035, -1.327e-6, -7.639e-7, 5.627e-7
0.034, -1.327e-6, -7.639e-7, 5.636e-7
0.033, -1.326e-6, -7.608e-7, 5.654e-7
0.032, -1.327e-6, -7.620e-7, 5.645e-7
0.031, -1.330e-6, -7.620e-7, 5.675e-7
0.030, -1.329e-6, -7.611e-7, 5.675e-7
0.029, -1.327e-6, -7.611e-7, 5.654e-7
0.028, -1.328e-6, -7.605e-7, 5.675e-7
0.027, -1.327e-6, -7.584e-7, 5.681e-7
0.026, -1.328e-6, -7.599e-7, 5.685e-7
0.025, -1.328e-6, -7.593e-7, 5.691e-7
0.024, -1.327e-6, -7.578e-7, 5.697e-7
0.023, -1.329e-6, -7.593e-7, 5.697e-7
0.022, -1.327e-6, -7.575e-7, 5.694e-7
0.021, -1.326e-6, -7.562e-7, 5.697e-7
0.020, -1.327e-6, -7.575e-7, 5.694e-7
0.019, -1.328e-6, -7.575e-7, 5.709e-7
0.018, -1.323e-6, -7.547e-7, 5.685e-7
0.017, -1.328e-6, -7.568e-7, 5.712e-7
0.016, -1.326e-6, -7.541e-7, 5.718e-7
0.015, -1.324e-6, -7.535e-7, 5.709e-7
0.014, -1.326e-6, -7.547e-7, 5.715e-7
0.013, -1.324e-6, -7.532e-7, 5.712e-7
0.012, -1.325e-6, -7.523e-7, 5.724e-7
0.011, -1.327e-6, -7.544e-7, 5.727e-7
0.010, -1.324e-6, -7.498e-7, 5.746e-7
0.009, -1.322e-6, -7.501e-7, 5.718e-7
0.008, -1.325e-6, -7.504e-7, 5.743e-7
0.007, -1.321e-6, -7.471e-7, 5.743e-7
0.006, -1.320e-6, -7.477e-7, 5.724e-7
0.005, -1.322e-6, -7.480e-7, 5.743e-7
0.004, -1.320e-6, -7.465e-7, 5.739e-7
0.003, -1.320e-6, -7.471e-7, 5.724e-7
0.002, -1.320e-6, -7.459e-7, 5.739e-7
0.001, -1.318e-6, -7.449e-7, 5.733e-7
0.000, -1.316e-6, -7.434e-7, 5.730e-7
-0.001, -1.317e-6, -7.422e-7, 5.752e-7
-0.002, -1.317e-6, -7.425e-7, 5.743e-7
-0.003, -1.314e-6, -7.401e-7, 5.736e-7
-0.004, -1.314e-6, -7.407e-7, 5.736e-7
-0.005, -1.312e-6, -7.388e-7, 5.736e-7
-0.006, -1.310e-6, -7.373e-7, 5.730e-7
-0.007, -1.312e-6, -7.379e-7, 5.736e-7
-0.008, -1.308e-6, -7.358e-7, 5.721e-7
-0.009, -1.309e-6, -7.358e-7, 5.736e-7
-0.010, -1.307e-6, -7.330e-7, 5.736e-7
-0.011, -1.307e-6, -7.340e-7, 5.727e-7
-0.012, -1.306e-6, -7.318e-7, 5.739e-7
-0.013, -1.302e-6, -7.303e-7, 5.721e-7
-0.014, -1.303e-6, -7.303e-7, 5.730e-7
-0.015, -1.303e-6, -7.300e-7, 5.730e-7
-0.016, -1.300e-6, -7.269e-7, 5.730e-7
-0.017, -1.301e-6, -7.276e-7, 5.733e-7
-0.018, -1.298e-6, -7.257e-7, 5.727e-7
-0.019, -1.297e-6, -7.248e-7, 5.724e-7
-0.020, -1.296e-6, -7.236e-7, 5.721e-7
-0.021, -1.294e-6, -7.224e-7, 5.718e-7
-0.022, -1.293e-6, -7.214e-7, 5.715e-7
-0.023, -1.293e-6, -7.214e-7, 5.712e-7
-0.024, -1.291e-6, -7.193e-7, 5.721e-7
-0.025, -1.289e-6, -7.178e-7, 5.709e-7
-0.026, -1.289e-6, -7.181e-7, 5.706e-7
-0.027, -1.285e-6, -7.141e-7, 5.712e-7
-0.028, -1.284e-6, -7.147e-7, 5.697e-7
-0.029, -1.284e-6, -7.147e-7, 5.694e-7
-0.030, -1.283e-6, -7.120e-7, 5.712e-7
-0.031, -1.283e-6, -7.123e-7, 5.703e-7
-0.032, -1.283e-6, -7.126e-7, 5.703e-7
-0.033, -1.278e-6, -7.077e-7, 5.703e-7
-0.034, -1.276e-6, -7.086e-7, 5.672e-7
-0.035, -1.275e-6, -7.065e-7, 5.685e-7
-0.036, -1.273e-6, -7.044e-7, 5.688e-7
-0.037, -1.273e-6, -7.050e-7, 5.681e-7
-0.038, -1.272e-6, -7.041e-7, 5.678e-7
-0.039, -1.270e-6, -7.025e-7, 5.675e-7
-0.040, -1.269e-6, -7.025e-7, 5.660e-7
-0.041, -1.268e-6, -7.004e-7, 5.675e-7
-0.042, -1.264e-6, -6.983e-7, 5.657e-7
-0.043, -1.264e-6, -6.989e-7, 5.648e-7
-0.044, -1.264e-6, -6.973e-7, 5.666e-7
-0.045, -1.262e-6, -6.964e-7, 5.654e-7
-0.046, -1.261e-6, -6.961e-7, 5.648e-7
-0.047, -1.258e-6, -6.931e-7, 5.645e-7
-0.048, -1.256e-6, -6.918e-7, 5.642e-7
-0.049, -1.253e-6, -6.906e-7, 5.624e-7
-0.050, -1.255e-6, -6.891e-7, 5.660e-7
-0.051, -1.250e-6, -6.870e-7, 5.627e-7
-0.052, -1.252e-6, -6.894e-7, 5.624e-7
-0.053, -1.248e-6, -6.851e-7, 5.633e-7
-0.054, -1.247e-6, -6.842e-7, 5.630e-7
-0.055, -1.245e-6, -6.845e-7, 5.602e-7
-0.056, -1.244e-6, -6.824e-7, 5.617e-7
-0.057, -1.242e-6, -6.803e-7, 5.614e-7
-0.058, -1.241e-6, -6.809e-7, 5.605e-7
-0.059, -1.239e-6, -6.799e-7, 5.593e-7
-0.060, -1.239e-6, -6.793e-7, 5.599e-7
-0.061, -1.236e-6, -6.772e-7, 5.584e-7
-0.062, -1.234e-6, -6.754e-7, 5.587e-7
-0.063, -1.234e-6, -6.775e-7, 5.566e-7
-0.064, -1.233e-6, -6.732e-7, 5.593e-7
-0.065, -1.231e-6, -6.738e-7, 5.575e-7
-0.066, -1.228e-6, -6.720e-7, 5.562e-7
-0.067, -1.227e-6, -6.705e-7, 5.562e-7
-0.068, -1.224e-6, -6.687e-7, 5.550e-7
-0.069, -1.225e-6, -6.693e-7, 5.553e-7
-0.070, -1.220e-6, -6.629e-7, 5.569e-7
-0.071, -1.220e-6, -6.644e-7, 5.553e-7
-0.072, -1.218e-6, -6.647e-7, 5.532e-7
-0.073, -1.216e-6, -6.635e-7, 5.523e-7
-0.074, -1.214e-6, -6.626e-7, 5.514e-7
-0.075, -1.212e-6, -6.601e-7, 5.520e-7
-0.076, -1.213e-6, -6.601e-7, 5.529e-7
-0.077, -1.209e-6, -6.589e-7, 5.501e-7
-0.078, -1.208e-6, -6.583e-7, 5.501e-7
-0.079, -1.208e-6, -6.568e-7, 5.508e-7
-0.080, -1.206e-6, -6.574e-7, 5.483e-7
-0.081, -1.204e-6, -6.552e-7, 5.492e-7
-0.082, -1.203e-6, -6.543e-7, 5.483e-7
-0.083, -1.200e-6, -6.534e-7, 5.471e-7
-0.084, -1.200e-6, -6.522e-7, 5.480e-7
-0.085, -1.195e-6, -6.491e-7, 5.459e-7
-0.086, -1.195e-6, -6.507e-7, 5.443e-7
-0.087, -1.195e-6, -6.488e-7, 5.459e-7
-0.088, -1.192e-6, -6.479e-7, 5.437e-7
-0.089, -1.190e-6, -6.476e-7, 5.419e-7
-0.090, -1.191e-6, -6.470e-7, 5.440e-7
-0.091, -1.186e-6, -6.436e-7, 5.425e-7
-0.092, -1.186e-6, -6.436e-7, 5.425e-7
-0.093, -1.184e-6, -6.415e-7, 5.428e-7
-0.094, -1.181e-6, -6.421e-7, 5.385e-7
-0.095, -1.180e-6, -6.403e-7, 5.395e-7
-0.096, -1.178e-6, -6.381e-7, 5.401e-7
-0.097, -1.176e-6, -6.388e-7, 5.373e-7
-0.098, -1.177e-6, -6.400e-7, 5.367e-7
-0.099, -1.175e-6, -6.366e-7, 5.382e-7
-0.100, -1.170e-6, -6.345e-7, 5.355e-7
-0.101, -1.172e-6, -6.357e-7, 5.358e-7
-0.102, -1.170e-6, -6.326e-7, 5.370e-7
-0.103, -1.165e-6, -6.326e-7, 5.321e-7
-0.104, -1.165e-6, -6.317e-7, 5.334e-7
-0.105, -1.163e-6, -6.290e-7, 5.340e-7
-0.106, -1.163e-6, -6.299e-7, 5.334e-7
-0.107, -1.163e-6, -6.305e-7, 5.321e-7
-0.108, -1.159e-6, -6.275e-7, 5.312e-7
-0.109, -1.155e-6, -6.262e-7, 5.288e-7
-0.110, -1.155e-6, -6.259e-7, 5.288e-7
-0.111, -1.155e-6, -6.253e-7, 5.294e-7
-0.112, -1.152e-6, -6.244e-7, 5.279e-7
-0.113, -1.153e-6, -6.244e-7, 5.285e-7
-0.114, -1.150e-6, -6.229e-7, 5.273e-7
-0.115, -1.149e-6, -6.220e-7, 5.273e-7
-0.116, -1.147e-6, -6.211e-7, 5.263e-7
-0.117, -1.144e-6, -6.198e-7, 5.242e-7
-0.118, -1.142e-6, -6.195e-7, 5.221e-7
-0.119, -1.142e-6, -6.180e-7, 5.239e-7
-0.120, -1.139e-6, -6.162e-7, 5.227e-7
-0.121, -1.139e-6, -6.159e-7, 5.230e-7
-0.122, -1.138e-6, -6.171e-7, 5.212e-7
-0.123, -1.135e-6, -6.149e-7, 5.202e-7
-0.124, -1.135e-6, -6.146e-7, 5.202e-7
-0.125, -1.132e-6, -6.125e-7, 5.190e-7
-0.126, -1.129e-6, -6.110e-7, 5.184e-7
-0.127, -1.134e-6, -6.137e-7, 5.205e-7
-0.128, -1.129e-6, -6.110e-7, 5.181e-7
-0.129, -1.127e-6, -6.116e-7, 5.151e-7
-0.130, -1.128e-6, -6.116e-7, 5.160e-7
-0.131, -1.125e-6, -6.098e-7, 5.157e-7
-0.132, -1.123e-6, -6.085e-7, 5.141e-7
-0.133, -1.126e-6, -6.116e-7, 5.144e-7
-0.134, -1.119e-6, -6.058e-7, 5.135e-7
-0.135, -1.119e-6, -6.067e-7, 5.120e-7
-0.136, -1.119e-6, -6.055e-7, 5.132e-7
-0.137, -1.117e-6, -6.061e-7, 5.111e-7
-0.138, -1.116e-6, -6.043e-7, 5.120e-7
-0.139, -1.114e-6, -6.037e-7, 5.105e-7
-0.140, -1.113e-6, -6.034e-7, 5.099e-7
-0.141, -1.116e-6, -6.073e-7, 5.089e-7
-0.142, -1.112e-6, -6.015e-7, 5.108e-7
-0.143, -1.110e-6, -6.015e-7, 5.080e-7
-0.144, -1.110e-6, -6.012e-7, 5.086e-7
-0.145, -1.107e-6, -5.997e-7, 5.071e-7
-0.146, -1.108e-6, -6.012e-7, 5.065e-7
-0.147, -1.107e-6, -5.997e-7, 5.074e-7
-0.148, -1.104e-6, -5.985e-7, 5.056e-7
-0.149, -1.106e-6, -6.015e-7, 5.041e-7
-0.150, -1.103e-6, -5.973e-7, 5.059e-7
-0.151, -1.100e-6, -5.960e-7, 5.041e-7
-0.152, -1.103e-6, -6.000e-7, 5.025e-7
-0.153, -1.098e-6, -5.957e-7, 5.025e-7
-0.154, -1.095e-6, -5.936e-7, 5.010e-7
-0.155, -1.096e-6, -5.948e-7, 5.010e-7
-0.156, -1.100e-6, -5.954e-7, 5.047e-7
-0.157, -1.094e-6, -5.927e-7, 5.013e-7
-0.158, -1.093e-6, -5.948e-7, 4.983e-7
-0.159, -1.094e-6, -5.942e-7, 5.001e-7
-0.160, -1.092e-6, -5.921e-7, 4.995e-7
-0.161, -1.091e-6, -5.936e-7, 4.977e-7
-0.162, -1.094e-6, -5.933e-7, 5.010e-7
-0.163, -1.091e-6, -5.918e-7, 4.989e-7
-0.164, -1.088e-6, -5.921e-7, 4.964e-7
-0.165, -1.088e-6, -5.911e-7, 4.970e-7
-0.166, -1.090e-6, -5.942e-7, 4.958e-7
-0.167, -1.087e-6, -5.911e-7, 4.958e-7
-0.168, -1.090e-6, -5.927e-7, 4.977e-7
-0.169, -1.085e-6, -5.899e-7, 4.955e-7
-0.170, -1.085e-6, -5.893e-7, 4.952e-7
-0.171, -1.081e-6, -5.869e-7, 4.943e-7
-0.172, -1.081e-6, -5.866e-7, 4.949e-7
-0.173, -1.082e-6, -5.890e-7, 4.934e-7
-0.174, -1.083e-6, -5.890e-7, 4.937e-7
-0.175, -1.084e-6, -5.908e-7, 4.934e-7
-0.176, -1.084e-6, -5.890e-7, 4.949e-7
-0.177, -1.080e-6, -5.869e-7, 4.934e-7
-0.178, -1.080e-6, -5.872e-7, 4.925e-7
-0.179, -1.078e-6, -5.857e-7, 4.922e-7
-0.180, -1.078e-6, -5.866e-7, 4.919e-7
-0.181, -1.082e-6, -5.908e-7, 4.909e-7
-0.182, -1.078e-6, -5.857e-7, 4.922e-7
-0.183, -1.076e-6, -5.860e-7, 4.903e-7
-0.184, -1.076e-6, -5.857e-7, 4.903e-7
-0.185, -1.073e-6, -5.826e-7, 4.903e-7
-0.186, -1.073e-6, -5.847e-7, 4.882e-7
-0.187, -1.076e-6, -5.863e-7, 4.897e-7
-0.188, -1.072e-6, -5.835e-7, 4.888e-7
-0.189, -1.070e-6, -5.823e-7, 4.873e-7
-0.190, -1.073e-6, -5.832e-7, 4.894e-7
-0.191, -1.072e-6, -5.820e-7, 4.903e-7
-0.192, -1.074e-6, -5.853e-7, 4.882e-7
-0.193, -1.072e-6, -5.838e-7, 4.882e-7
-0.194, -1.070e-6, -5.817e-7, 4.882e-7
-0.195, -1.066e-6, -5.805e-7, 4.858e-7
-0.196, -1.071e-6, -5.838e-7, 4.870e-7
-0.197, -1.065e-6, -5.774e-7, 4.873e-7
-0.198, -1.064e-6, -5.789e-7, 4.848e-7
-0.199, -1.066e-6, -5.799e-7, 4.864e-7
-0.200, -1.063e-6, -5.774e-7, 4.858e-7
-0.201, -1.065e-6, -5.796e-7, 4.854e-7
-0.202, -1.062e-6, -5.753e-7, 4.870e-7
-0.203, -1.064e-6, -5.799e-7, 4.842e-7
-0.204, -1.063e-6, -5.780e-7, 4.848e-7
-0.205, -1.062e-6, -5.774e-7, 4.848e-7
-0.206, -1.061e-6, -5.777e-7, 4.833e-7
-0.207, -1.069e-6, -5.850e-7, 4.842e-7
-0.208, -1.062e-6, -5.762e-7, 4.858e-7
-0.209, -1.060e-6, -5.768e-7, 4.827e-7
-0.210, -1.062e-6, -5.777e-7, 4.845e-7
-0.211, -1.058e-6, -5.744e-7, 4.833e-7
-0.212, -1.057e-6, -5.750e-7, 4.824e-7
-0.213, -1.056e-6, -5.744e-7, 4.815e-7
-0.214, -1.056e-6, -5.741e-7, 4.821e-7
-0.215, -1.055e-6, -5.738e-7, 4.815e-7
-0.216, -1.056e-6, -5.753e-7, 4.806e-7
-0.217, -1.060e-6, -5.774e-7, 4.830e-7
-0.218, -1.052e-6, -5.725e-7, 4.800e-7
-0.219, -1.055e-6, -5.747e-7, 4.803e-7
-0.220, -1.059e-6, -5.780e-7, 4.809e-7
-0.221, -1.053e-6, -5.747e-7, 4.781e-7
-0.222, -1.057e-6, -5.771e-7, 4.800e-7
-0.223, -1.055e-6, -5.728e-7, 4.821e-7
-0.224, -1.055e-6, -5.747e-7, 4.800e-7
-0.225, -1.051e-6, -5.722e-7, 4.784e-7
-0.226, -1.054e-6, -5.753e-7, 4.790e-7
-0.227, -1.051e-6, -5.731e-7, 4.781e-7
-0.228, -1.048e-6, -5.686e-7, 4.790e-7
-0.229, -1.049e-6, -5.713e-7, 4.775e-7
-0.230, -1.045e-6, -5.680e-7, 4.775e-7
-0.231, -1.047e-6, -5.707e-7, 4.760e-7
-0.232, -1.050e-6, -5.725e-7, 4.772e-7
-0.233, -1.046e-6, -5.683e-7, 4.778e-7
-0.234, -1.047e-6, -5.710e-7, 4.757e-7
-0.235, -1.046e-6, -5.701e-7, 4.757e-7
-0.236, -1.046e-6, -5.698e-7, 4.766e-7
-0.237, -1.045e-6, -5.689e-7, 4.763e-7
-0.238, -1.042e-6, -5.677e-7, 4.748e-7
-0.239, -1.044e-6, -5.677e-7, 4.760e-7
-0.240, -1.046e-6, -5.695e-7, 4.763e-7
-0.241, -1.043e-6, -5.677e-7, 4.754e-7
-0.242, -1.042e-6, -5.670e-7, 4.751e-7
-0.243, -1.039e-6, -5.637e-7, 4.757e-7
-0.244, -1.042e-6, -5.670e-7, 4.748e-7
-0.245, -1.039e-6, -5.634e-7, 4.754e-7
-0.246, -1.038e-6, -5.637e-7, 4.742e-7
-0.247, -1.038e-6, -5.652e-7, 4.732e-7
-0.248, -1.035e-6, -5.609e-7, 4.745e-7
-0.249, -1.038e-6, -5.649e-7, 4.732e-7
-0.250, -1.040e-6, -5.652e-7, 4.751e-7
-0.251, -1.038e-6, -5.634e-7, 4.745e-7
-0.252, -1.037e-6, -5.643e-7, 4.726e-7
-0.253, -1.035e-6, -5.609e-7, 4.742e-7
-0.254, -1.033e-6, -5.594e-7, 4.732e-7
-0.255, -1.032e-6, -5.606e-7, 4.714e-7
-0.256, -1.037e-6, -5.649e-7, 4.717e-7
-0.257, -1.032e-6, -5.588e-7, 4.735e-7
-0.258, -1.031e-6, -5.609e-7, 4.705e-7
-0.259, -1.030e-6, -5.582e-7, 4.714e-7
-0.260, -1.032e-6, -5.594e-7, 4.726e-7
-0.261, -1.034e-6, -5.634e-7, 4.708e-7
-0.262, -1.036e-6, -5.631e-7, 4.732e-7
-0.263, -1.032e-6, -5.606e-7, 4.717e-7
-0.264, -1.030e-6, -5.585e-7, 4.711e-7
-0.265, -1.026e-6, -5.548e-7, 4.711e-7
-0.266, -1.027e-6, -5.548e-7, 4.723e-7
-0.267, -1.030e-6, -5.597e-7, 4.702e-7
-0.268, -1.035e-6, -5.640e-7, 4.714e-7
-0.269, -1.028e-6, -5.576e-7, 4.702e-7
-0.270, -1.029e-6, -5.591e-7, 4.702e-7
-0.271, -1.026e-6, -5.558e-7, 4.702e-7
-0.272, -1.027e-6, -5.576e-7, 4.693e-7
-0.273, -1.026e-6, -5.561e-7, 4.702e-7
-0.274, -1.028e-6, -5.564e-7, 4.714e-7
-0.275, -1.025e-6, -5.570e-7, 4.684e-7
-0.276, -1.025e-6, -5.564e-7, 4.690e-7
-0.277, -1.024e-6, -5.554e-7, 4.687e-7
-0.278, -1.022e-6, -5.530e-7, 4.693e-7
-0.279, -1.024e-6, -5.554e-7, 4.684e-7
-0.280, -1.025e-6, -5.542e-7, 4.705e-7
-0.281, -1.025e-6, -5.561e-7, 4.687e-7
-0.282, -1.025e-6, -5.570e-7, 4.681e-7
-0.283, -1.020e-6, -5.518e-7, 4.684e-7
-0.284, -1.023e-6, -5.542e-7, 4.687e-7
-0.285, -1.025e-6, -5.567e-7, 4.681e-7
-0.286, -1.024e-6, -5.558e-7, 4.684e-7
-0.287, -1.026e-6, -5.576e-7, 4.681e-7
-0.288, -1.027e-6, -5.564e-7, 4.702e-7
-0.289, -1.023e-6, -5.545e-7, 4.681e-7
-0.290, -1.028e-6, -5.600e-7, 4.681e-7
-0.291, -1.021e-6, -5.542e-7, 4.665e-7
-0.292, -1.017e-6, -5.515e-7, 4.656e-7
-0.293, -1.024e-6, -5.554e-7, 4.687e-7
-0.294, -1.017e-6, -5.506e-7, 4.668e-7
-0.295, -1.018e-6, -5.518e-7, 4.665e-7
-0.296, -1.024e-6, -5.564e-7, 4.671e-7
-0.297, -1.019e-6, -5.524e-7, 4.665e-7
-0.298, -1.018e-6, -5.536e-7, 4.647e-7
-0.299, -1.020e-6, -5.542e-7, 4.653e-7
-0.300, -1.014e-6, -5.496e-7, 4.647e-7
-0.301, -1.015e-6, -5.509e-7, 4.644e-7
-0.302, -1.019e-6, -5.536e-7, 4.650e-7
-0.303, -1.018e-6, -5.527e-7, 4.650e-7
-0.304, -1.014e-6, -5.509e-7, 4.635e-7
-0.305, -1.017e-6, -5.521e-7, 4.650e-7
-0.306, -1.016e-6, -5.518e-7, 4.641e-7
-0.307, -1.014e-6, -5.503e-7, 4.638e-7
-0.308, -1.016e-6, -5.515e-7, 4.641e-7
-0.309, -1.016e-6, -5.518e-7, 4.638e-7
-0.310, -1.012e-6, -5.515e-7, 4.607e-7
-0.311, -1.016e-6, -5.515e-7, 4.641e-7
-0.312, -1.023e-6, -5.597e-7, 4.632e-7
-0.313, -1.012e-6, -5.481e-7, 4.638e-7
-0.314, -1.015e-6, -5.533e-7, 4.620e-7
-0.315, -1.011e-6, -5.484e-7, 4.623e-7
-0.316, -1.013e-6, -5.521e-7, 4.613e-7
-0.317, -1.011e-6, -5.487e-7, 4.620e-7
-0.318, -1.010e-6, -5.509e-7, 4.595e-7
-0.319, -1.011e-6, -5.500e-7, 4.610e-7
-0.320, -1.011e-6, -5.484e-7, 4.626e-7
-0.321, -1.013e-6, -5.536e-7, 4.592e-7
-0.322, -1.008e-6, -5.478e-7, 4.598e-7
-0.323, -1.022e-6, -5.615e-7, 4.604e-7
-0.324, -1.007e-6, -5.493e-7, 4.577e-7
-0.325, -1.015e-6, -5.539e-7, 4.610e-7
-0.326, -1.008e-6, -5.475e-7, 4.601e-7
-0.327, -1.008e-6, -5.490e-7, 4.589e-7
-0.328, -1.009e-6, -5.503e-7, 4.583e-7
-0.329, -1.008e-6, -5.484e-7, 4.598e-7
-0.330, -1.004e-6, -5.478e-7, 4.565e-7
-0.331, -1.007e-6, -5.496e-7, 4.574e-7
-0.332, -1.005e-6, -5.478e-7, 4.568e-7
-0.333, -1.004e-6, -5.475e-7, 4.565e-7
-0.334, -1.006e-6, -5.490e-7, 4.571e-7
-0.335, -1.005e-6, -5.472e-7, 4.577e-7
-0.336, -1.002e-6, -5.478e-7, 4.546e-7
-0.337, -1.005e-6, -5.490e-7, 4.562e-7
-0.338, -1.006e-6, -5.518e-7, 4.540e-7
-0.339, -1.004e-6, -5.493e-7, 4.546e-7
-0.340, -1.008e-6, -5.548e-7, 4.534e-7
-0.341, -1.003e-6, -5.487e-7, 4.546e-7
-0.342, -1.003e-6, -5.496e-7, 4.531e-7
-0.343, -1.005e-6, -5.503e-7, 4.546e-7
-0.344, -1.006e-6, -5.527e-7, 4.531e-7
-0.345, -1.011e-6, -5.567e-7, 4.543e-7
-0.346, -1.002e-6, -5.487e-7, 4.528e-7
-0.347, -1.001e-6, -5.493e-7, 4.516e-7
-0.348, -1.003e-6, -5.500e-7, 4.531e-7
-0.349, -1.002e-6, -5.496e-7, 4.525e-7
-0.350, -1.012e-6, -5.591e-7, 4.525e-7
-0.351, -9.997e-7, -5.500e-7, 4.497e-7
-0.352, -1.004e-6, -5.533e-7, 4.510e-7
-0.353, -1.000e-6, -5.503e-7, 4.497e-7
-0.354, -1.002e-6, -5.506e-7, 4.519e-7
-0.355, -1.001e-6, -5.515e-7, 4.497e-7
-0.356, -1.005e-6, -5.554e-7, 4.500e-7
-0.357, -9.997e-7, -5.506e-7, 4.491e-7
-0.358, -1.002e-6, -5.539e-7, 4.482e-7
-0.359, -9.997e-7, -5.509e-7, 4.488e-7
-0.360, -1.005e-6, -5.567e-7, 4.482e-7
-0.361, -1.002e-6, -5.539e-7, 4.482e-7
-0.362, -1.001e-6, -5.533e-7, 4.476e-7
-0.363, -1.002e-6, -5.518e-7, 4.497e-7
-0.364, -1.001e-6, -5.524e-7, 4.485e-7
-0.365, -1.005e-6, -5.576e-7, 4.470e-7
-0.366, -1.004e-6, -5.573e-7, 4.467e-7
-0.367, -1.002e-6, -5.554e-7, 4.470e-7
-0.368, -1.005e-6, -5.582e-7, 4.464e-7
-0.369, -1.002e-6, -5.551e-7, 4.473e-7
-0.370, -1.000e-6, -5.545e-7, 4.458e-7
-0.371, -1.006e-6, -5.585e-7, 4.473e-7
-0.372, -1.003e-6, -5.564e-7, 4.464e-7
-0.373, -1.003e-6, -5.579e-7, 4.449e-7
-0.374, -1.003e-6, -5.570e-7, 4.461e-7
-0.375, -1.001e-6, -5.567e-7, 4.443e-7
-0.376, -1.004e-6, -5.600e-7, 4.439e-7
-0.377, -1.004e-6, -5.585e-7, 4.452e-7
-0.378, -1.002e-6, -5.564e-7, 4.452e-7
-0.379, -1.002e-6, -5.597e-7, 4.421e-7
-0.380, -1.002e-6, -5.582e-7, 4.439e-7
-0.381, -1.002e-6, -5.591e-7, 4.427e-7
-0.382, -9.997e-7, -5.591e-7, 4.406e-7
-0.383, -1.002e-6, -5.585e-7, 4.439e-7
-0.384, -1.002e-6, -5.600e-7, 4.421e-7
-0.385, -1.005e-6, -5.628e-7, 4.421e-7
-0.386, -1.004e-6, -5.609e-7, 4.433e-7
-0.387, -1.004e-6, -5.625e-7, 4.415e-7
-0.388, -1.004e-6, -5.625e-7, 4.415e-7
-0.389, -1.005e-6, -5.619e-7, 4.427e-7
-0.390, -1.005e-6, -5.643e-7, 4.406e-7
-0.391, -1.012e-6, -5.701e-7, 4.421e-7
-0.392, -1.006e-6, -5.643e-7, 4.418e-7
-0.393, -1.006e-6, -5.655e-7, 4.406e-7
-0.394, -1.006e-6, -5.655e-7, 4.406e-7
-0.395, -1.004e-6, -5.637e-7, 4.406e-7
-0.396, -1.009e-6, -5.698e-7, 4.397e-7
-0.397, -1.010e-6, -5.695e-7, 4.406e-7
-0.398, -1.010e-6, -5.719e-7, 4.381e-7
-0.399, -1.009e-6, -5.683e-7, 4.403e-7
-0.400, -1.008e-6, -5.692e-7, 4.388e-7
