Mar. 20, 2018   15:33:07
Square Wave Voltammetry
File: c:\users\electrochemist\desktop\2018\20032018_unbufarray_unpap\51_g3_ph7,95_4.txt
Data Source:  Experiment
Instrument Model:  CHI1040A
Header: 
Note: 

Init E (V) = 0.7
Final E (V) = -0.4
Incr E (V) = 0.001
Amplitude (V) = 0.1
Frequency (Hz) = 152
Quiet Time (sec) = 2
Sensitivity (A/V) = 1e-6

Difference:

Forward:

Reverse:

Potential/V, Diff(i/A), For(i/A), Rev(i/A)

0.699, -5.703e-7, -1.630e-7, 4.073e-7
0.698, -7.144e-7, -3.424e-7, 3.719e-7
0.697, -7.138e-7, -3.519e-7, 3.619e-7
0.696, -7.128e-7, -3.553e-7, 3.576e-7
0.695, -7.116e-7, -3.546e-7, 3.570e-7
0.694, -7.071e-7, -3.559e-7, 3.512e-7
0.693, -7.086e-7, -3.583e-7, 3.503e-7
0.692, -7.046e-7, -3.559e-7, 3.487e-7
0.691, -7.061e-7, -3.580e-7, 3.481e-7
0.690, -7.037e-7, -3.583e-7, 3.454e-7
0.689, -7.028e-7, -3.580e-7, 3.448e-7
0.688, -6.985e-7, -3.559e-7, 3.426e-7
0.687, -7.003e-7, -3.595e-7, 3.408e-7
0.686, -6.970e-7, -3.559e-7, 3.411e-7
0.685, -6.952e-7, -3.565e-7, 3.387e-7
0.684, -6.967e-7, -3.583e-7, 3.384e-7
0.683, -6.936e-7, -3.562e-7, 3.375e-7
0.682, -6.930e-7, -3.574e-7, 3.356e-7
0.681, -6.955e-7, -3.589e-7, 3.365e-7
0.680, -6.903e-7, -3.565e-7, 3.338e-7
0.679, -6.921e-7, -3.598e-7, 3.323e-7
0.678, -6.900e-7, -3.574e-7, 3.326e-7
0.677, -6.906e-7, -3.586e-7, 3.320e-7
0.676, -6.897e-7, -3.586e-7, 3.310e-7
0.675, -6.872e-7, -3.571e-7, 3.301e-7
0.674, -6.872e-7, -3.586e-7, 3.286e-7
0.673, -6.875e-7, -3.592e-7, 3.283e-7
0.672, -6.857e-7, -3.568e-7, 3.289e-7
0.671, -6.854e-7, -3.586e-7, 3.268e-7
0.670, -6.863e-7, -3.595e-7, 3.268e-7
0.669, -6.845e-7, -3.574e-7, 3.271e-7
0.668, -6.796e-7, -3.592e-7, 3.204e-7
0.667, -6.836e-7, -3.589e-7, 3.246e-7
0.666, -6.836e-7, -3.589e-7, 3.246e-7
0.665, -6.778e-7, -3.577e-7, 3.201e-7
0.664, -6.820e-7, -3.598e-7, 3.222e-7
0.663, -6.802e-7, -3.580e-7, 3.222e-7
0.662, -6.808e-7, -3.607e-7, 3.201e-7
0.661, -6.805e-7, -3.604e-7, 3.201e-7
0.660, -6.775e-7, -3.577e-7, 3.198e-7
0.659, -6.753e-7, -3.586e-7, 3.167e-7
0.658, -6.787e-7, -3.601e-7, 3.185e-7
0.657, -6.750e-7, -3.574e-7, 3.176e-7
0.656, -6.762e-7, -3.595e-7, 3.167e-7
0.655, -6.759e-7, -3.586e-7, 3.173e-7
0.654, -6.753e-7, -3.592e-7, 3.161e-7
0.653, -6.732e-7, -3.592e-7, 3.140e-7
0.652, -6.735e-7, -3.583e-7, 3.152e-7
0.651, -6.726e-7, -3.580e-7, 3.146e-7
0.650, -6.765e-7, -3.611e-7, 3.155e-7
0.649, -6.735e-7, -3.595e-7, 3.140e-7
0.648, -6.701e-7, -3.589e-7, 3.112e-7
0.647, -6.732e-7, -3.598e-7, 3.133e-7
0.646, -6.713e-7, -3.598e-7, 3.115e-7
0.645, -6.707e-7, -3.595e-7, 3.112e-7
0.644, -6.704e-7, -3.598e-7, 3.106e-7
0.643, -6.686e-7, -3.583e-7, 3.103e-7
0.642, -6.710e-7, -3.614e-7, 3.097e-7
0.641, -6.701e-7, -3.604e-7, 3.097e-7
0.640, -6.698e-7, -3.595e-7, 3.103e-7
0.639, -6.680e-7, -3.611e-7, 3.069e-7
0.638, -6.695e-7, -3.607e-7, 3.088e-7
0.637, -6.680e-7, -3.598e-7, 3.082e-7
0.636, -6.683e-7, -3.620e-7, 3.063e-7
0.635, -6.683e-7, -3.614e-7, 3.069e-7
0.634, -6.695e-7, -3.620e-7, 3.076e-7
0.633, -6.665e-7, -3.611e-7, 3.054e-7
0.632, -6.680e-7, -3.611e-7, 3.069e-7
0.631, -6.677e-7, -3.617e-7, 3.060e-7
0.630, -6.668e-7, -3.617e-7, 3.051e-7
0.629, -6.665e-7, -3.607e-7, 3.057e-7
0.628, -6.671e-7, -3.629e-7, 3.042e-7
0.627, -6.671e-7, -3.629e-7, 3.042e-7
0.626, -6.674e-7, -3.611e-7, 3.063e-7
0.625, -6.646e-7, -3.617e-7, 3.030e-7
0.624, -6.659e-7, -3.626e-7, 3.033e-7
0.623, -6.640e-7, -3.607e-7, 3.033e-7
0.622, -6.659e-7, -3.626e-7, 3.033e-7
0.621, -6.668e-7, -3.635e-7, 3.033e-7
0.620, -6.665e-7, -3.617e-7, 3.048e-7
0.619, -6.665e-7, -3.641e-7, 3.024e-7
0.618, -6.662e-7, -3.629e-7, 3.033e-7
0.617, -6.689e-7, -3.641e-7, 3.048e-7
0.616, -6.652e-7, -3.653e-7, 2.999e-7
0.615, -6.674e-7, -3.632e-7, 3.042e-7
0.614, -6.628e-7, -3.623e-7, 3.005e-7
0.613, -6.662e-7, -3.653e-7, 3.008e-7
0.612, -6.662e-7, -3.647e-7, 3.014e-7
0.611, -6.634e-7, -3.623e-7, 3.011e-7
0.610, -6.671e-7, -3.668e-7, 3.002e-7
0.609, -6.680e-7, -3.653e-7, 3.027e-7
0.608, -6.662e-7, -3.647e-7, 3.014e-7
0.607, -6.662e-7, -3.668e-7, 2.993e-7
0.606, -6.674e-7, -3.656e-7, 3.018e-7
0.605, -6.662e-7, -3.659e-7, 3.002e-7
0.604, -6.671e-7, -3.672e-7, 2.999e-7
0.603, -6.668e-7, -3.656e-7, 3.011e-7
0.602, -6.668e-7, -3.659e-7, 3.008e-7
0.601, -6.680e-7, -3.672e-7, 3.008e-7
0.600, -6.692e-7, -3.684e-7, 3.008e-7
0.599, -6.665e-7, -3.672e-7, 2.993e-7
0.598, -6.674e-7, -3.699e-7, 2.975e-7
0.597, -6.683e-7, -3.678e-7, 3.005e-7
0.596, -6.668e-7, -3.675e-7, 2.993e-7
0.595, -6.677e-7, -3.675e-7, 3.002e-7
0.594, -6.674e-7, -3.675e-7, 2.999e-7
0.593, -6.674e-7, -3.687e-7, 2.987e-7
0.592, -6.677e-7, -3.690e-7, 2.987e-7
0.591, -6.698e-7, -3.699e-7, 2.999e-7
0.590, -6.707e-7, -3.714e-7, 2.993e-7
0.589, -6.698e-7, -3.699e-7, 2.999e-7
0.588, -6.692e-7, -3.705e-7, 2.987e-7
0.587, -6.723e-7, -3.714e-7, 3.008e-7
0.586, -6.720e-7, -3.711e-7, 3.008e-7
0.585, -6.704e-7, -3.717e-7, 2.987e-7
0.584, -6.738e-7, -3.733e-7, 3.005e-7
0.583, -6.692e-7, -3.699e-7, 2.993e-7
0.582, -6.713e-7, -3.720e-7, 2.993e-7
0.581, -6.726e-7, -3.730e-7, 2.996e-7
0.580, -6.704e-7, -3.720e-7, 2.984e-7
0.579, -6.723e-7, -3.733e-7, 2.990e-7
0.578, -6.717e-7, -3.736e-7, 2.981e-7
0.577, -6.729e-7, -3.736e-7, 2.993e-7
0.576, -6.710e-7, -3.742e-7, 2.969e-7
0.575, -6.726e-7, -3.751e-7, 2.975e-7
0.574, -6.735e-7, -3.720e-7, 3.014e-7
0.573, -6.729e-7, -3.742e-7, 2.987e-7
0.572, -6.741e-7, -3.760e-7, 2.981e-7
0.571, -6.729e-7, -3.742e-7, 2.987e-7
0.570, -6.747e-7, -3.769e-7, 2.978e-7
0.569, -6.768e-7, -3.775e-7, 2.993e-7
0.568, -6.732e-7, -3.745e-7, 2.987e-7
0.567, -6.747e-7, -3.769e-7, 2.978e-7
0.566, -6.747e-7, -3.760e-7, 2.987e-7
0.565, -6.738e-7, -3.763e-7, 2.975e-7
0.564, -6.753e-7, -3.778e-7, 2.975e-7
0.563, -6.756e-7, -3.760e-7, 2.996e-7
0.562, -6.741e-7, -3.757e-7, 2.984e-7
0.561, -6.762e-7, -3.791e-7, 2.972e-7
0.560, -6.756e-7, -3.775e-7, 2.981e-7
0.559, -6.750e-7, -3.784e-7, 2.966e-7
0.558, -6.781e-7, -3.788e-7, 2.993e-7
0.557, -6.787e-7, -3.794e-7, 2.993e-7
0.556, -6.771e-7, -3.803e-7, 2.969e-7
0.555, -6.768e-7, -3.800e-7, 2.969e-7
0.554, -6.796e-7, -3.791e-7, 3.005e-7
0.553, -6.768e-7, -3.800e-7, 2.969e-7
0.552, -6.793e-7, -3.818e-7, 2.975e-7
0.551, -6.796e-7, -3.800e-7, 2.996e-7
0.550, -6.778e-7, -3.809e-7, 2.969e-7
0.549, -6.793e-7, -3.821e-7, 2.972e-7
0.548, -6.799e-7, -3.809e-7, 2.990e-7
0.547, -6.787e-7, -3.827e-7, 2.960e-7
0.546, -6.802e-7, -3.830e-7, 2.972e-7
0.545, -6.796e-7, -3.812e-7, 2.984e-7
0.544, -6.793e-7, -3.821e-7, 2.972e-7
0.543, -6.842e-7, -3.852e-7, 2.990e-7
0.542, -6.820e-7, -3.849e-7, 2.972e-7
0.541, -6.820e-7, -3.849e-7, 2.972e-7
0.540, -6.839e-7, -3.839e-7, 2.999e-7
0.539, -6.808e-7, -3.830e-7, 2.978e-7
0.538, -6.814e-7, -3.839e-7, 2.975e-7
0.537, -6.823e-7, -3.839e-7, 2.984e-7
0.536, -6.817e-7, -3.849e-7, 2.969e-7
0.535, -6.820e-7, -3.855e-7, 2.966e-7
0.534, -6.814e-7, -3.849e-7, 2.966e-7
0.533, -6.829e-7, -3.870e-7, 2.960e-7
0.532, -6.836e-7, -3.864e-7, 2.972e-7
0.531, -6.832e-7, -3.864e-7, 2.969e-7
0.530, -6.839e-7, -3.867e-7, 2.972e-7
0.529, -6.839e-7, -3.873e-7, 2.966e-7
0.528, -6.829e-7, -3.855e-7, 2.975e-7
0.527, -6.839e-7, -3.882e-7, 2.956e-7
0.526, -6.875e-7, -3.882e-7, 2.993e-7
0.525, -6.857e-7, -3.873e-7, 2.984e-7
0.524, -6.866e-7, -3.888e-7, 2.978e-7
0.523, -6.881e-7, -3.888e-7, 2.993e-7
0.522, -6.857e-7, -3.879e-7, 2.978e-7
0.521, -6.872e-7, -3.900e-7, 2.972e-7
0.520, -6.881e-7, -3.897e-7, 2.984e-7
0.519, -6.878e-7, -3.891e-7, 2.987e-7
0.518, -6.881e-7, -3.913e-7, 2.969e-7
0.517, -6.897e-7, -3.903e-7, 2.993e-7
0.516, -6.875e-7, -3.910e-7, 2.966e-7
0.515, -6.875e-7, -3.910e-7, 2.966e-7
0.514, -6.915e-7, -3.919e-7, 2.996e-7
0.513, -6.900e-7, -3.919e-7, 2.981e-7
0.512, -6.924e-7, -3.946e-7, 2.978e-7
0.511, -6.909e-7, -3.907e-7, 3.002e-7
0.510, -6.903e-7, -3.931e-7, 2.972e-7
0.509, -6.924e-7, -3.934e-7, 2.990e-7
0.508, -6.927e-7, -3.937e-7, 2.990e-7
0.507, -6.912e-7, -3.940e-7, 2.972e-7
0.506, -6.945e-7, -3.946e-7, 2.999e-7
0.505, -6.936e-7, -3.946e-7, 2.990e-7
0.504, -6.952e-7, -3.961e-7, 2.990e-7
0.503, -6.967e-7, -3.958e-7, 3.008e-7
0.502, -6.939e-7, -3.958e-7, 2.981e-7
0.501, -6.973e-7, -3.986e-7, 2.987e-7
0.500, -6.973e-7, -3.968e-7, 3.005e-7
0.499, -6.958e-7, -3.974e-7, 2.984e-7
0.498, -6.955e-7, -3.992e-7, 2.963e-7
0.497, -6.994e-7, -3.995e-7, 2.999e-7
0.496, -6.988e-7, -3.977e-7, 3.011e-7
0.495, -7.016e-7, -4.004e-7, 3.011e-7
0.494, -7.031e-7, -4.010e-7, 3.021e-7
0.493, -6.982e-7, -3.989e-7, 2.993e-7
0.492, -7.013e-7, -4.022e-7, 2.990e-7
0.491, -7.019e-7, -3.998e-7, 3.021e-7
0.490, -7.025e-7, -4.019e-7, 3.005e-7
0.489, -7.022e-7, -4.035e-7, 2.987e-7
0.488, -7.034e-7, -4.022e-7, 3.011e-7
0.487, -7.043e-7, -4.029e-7, 3.014e-7
0.486, -7.043e-7, -4.041e-7, 3.002e-7
0.485, -7.055e-7, -4.041e-7, 3.014e-7
0.484, -7.058e-7, -4.044e-7, 3.014e-7
0.483, -7.080e-7, -4.059e-7, 3.021e-7
0.482, -7.092e-7, -4.062e-7, 3.030e-7
0.481, -7.092e-7, -4.071e-7, 3.021e-7
0.480, -7.086e-7, -4.065e-7, 3.021e-7
0.479, -7.092e-7, -4.068e-7, 3.024e-7
0.478, -7.107e-7, -4.077e-7, 3.030e-7
0.477, -7.113e-7, -4.077e-7, 3.036e-7
0.476, -7.095e-7, -4.077e-7, 3.018e-7
0.475, -7.132e-7, -4.105e-7, 3.027e-7
0.474, -7.132e-7, -4.102e-7, 3.030e-7
0.473, -7.153e-7, -4.108e-7, 3.045e-7
0.472, -7.138e-7, -4.105e-7, 3.033e-7
0.471, -7.162e-7, -4.108e-7, 3.054e-7
0.470, -7.159e-7, -4.126e-7, 3.033e-7
0.469, -7.186e-7, -4.135e-7, 3.051e-7
0.468, -7.171e-7, -4.117e-7, 3.054e-7
0.467, -7.183e-7, -4.141e-7, 3.042e-7
0.466, -7.171e-7, -4.132e-7, 3.039e-7
0.465, -7.196e-7, -4.138e-7, 3.057e-7
0.464, -7.196e-7, -4.148e-7, 3.048e-7
0.463, -7.235e-7, -4.166e-7, 3.069e-7
0.462, -7.229e-7, -4.157e-7, 3.072e-7
0.461, -7.211e-7, -4.163e-7, 3.048e-7
0.460, -7.232e-7, -4.169e-7, 3.063e-7
0.459, -7.223e-7, -4.154e-7, 3.069e-7
0.458, -7.263e-7, -4.187e-7, 3.075e-7
0.457, -7.263e-7, -4.187e-7, 3.075e-7
0.456, -7.248e-7, -4.175e-7, 3.072e-7
0.455, -7.257e-7, -4.196e-7, 3.060e-7
0.454, -7.284e-7, -4.193e-7, 3.091e-7
0.453, -7.266e-7, -4.196e-7, 3.069e-7
0.452, -7.290e-7, -4.227e-7, 3.063e-7
0.451, -7.299e-7, -4.209e-7, 3.091e-7
0.450, -7.287e-7, -4.215e-7, 3.072e-7
0.449, -7.315e-7, -4.227e-7, 3.088e-7
0.448, -7.305e-7, -4.224e-7, 3.082e-7
0.447, -7.302e-7, -4.230e-7, 3.072e-7
0.446, -7.339e-7, -4.245e-7, 3.094e-7
0.445, -7.360e-7, -4.245e-7, 3.115e-7
0.444, -7.333e-7, -4.251e-7, 3.082e-7
0.443, -7.336e-7, -4.254e-7, 3.082e-7
0.442, -7.345e-7, -4.242e-7, 3.103e-7
0.441, -7.342e-7, -4.257e-7, 3.085e-7
0.440, -7.345e-7, -4.254e-7, 3.091e-7
0.439, -7.360e-7, -4.254e-7, 3.106e-7
0.438, -7.370e-7, -4.279e-7, 3.091e-7
0.437, -7.379e-7, -4.282e-7, 3.097e-7
0.436, -7.391e-7, -4.282e-7, 3.109e-7
0.435, -7.403e-7, -4.303e-7, 3.100e-7
0.434, -7.400e-7, -4.297e-7, 3.103e-7
0.433, -7.406e-7, -4.291e-7, 3.115e-7
0.432, -7.397e-7, -4.297e-7, 3.100e-7
0.431, -7.421e-7, -4.309e-7, 3.112e-7
0.430, -7.437e-7, -4.318e-7, 3.118e-7
0.429, -7.431e-7, -4.309e-7, 3.121e-7
0.428, -7.449e-7, -4.325e-7, 3.124e-7
0.427, -7.440e-7, -4.328e-7, 3.112e-7
0.426, -7.452e-7, -4.343e-7, 3.109e-7
0.425, -7.452e-7, -4.334e-7, 3.118e-7
0.424, -7.446e-7, -4.343e-7, 3.103e-7
0.423, -7.458e-7, -4.340e-7, 3.118e-7
0.422, -7.476e-7, -4.340e-7, 3.137e-7
0.421, -7.476e-7, -4.352e-7, 3.124e-7
0.420, -7.476e-7, -4.352e-7, 3.124e-7
0.419, -7.489e-7, -4.355e-7, 3.133e-7
0.418, -7.498e-7, -4.373e-7, 3.124e-7
0.417, -7.507e-7, -4.383e-7, 3.124e-7
0.416, -7.537e-7, -4.383e-7, 3.155e-7
0.415, -7.516e-7, -4.386e-7, 3.130e-7
0.414, -7.556e-7, -4.404e-7, 3.152e-7
0.413, -7.534e-7, -4.398e-7, 3.137e-7
0.412, -7.540e-7, -4.410e-7, 3.130e-7
0.411, -7.553e-7, -4.407e-7, 3.146e-7
0.410, -7.568e-7, -4.413e-7, 3.155e-7
0.409, -7.571e-7, -4.422e-7, 3.149e-7
0.408, -7.583e-7, -4.428e-7, 3.155e-7
0.407, -7.598e-7, -4.438e-7, 3.161e-7
0.406, -7.614e-7, -4.450e-7, 3.164e-7
0.405, -7.614e-7, -4.438e-7, 3.176e-7
0.404, -7.592e-7, -4.428e-7, 3.164e-7
0.403, -7.629e-7, -4.468e-7, 3.161e-7
0.402, -7.623e-7, -4.453e-7, 3.170e-7
0.401, -7.611e-7, -4.456e-7, 3.155e-7
0.400, -7.641e-7, -4.474e-7, 3.167e-7
0.399, -7.653e-7, -4.471e-7, 3.182e-7
0.398, -7.653e-7, -4.483e-7, 3.170e-7
0.397, -7.669e-7, -4.486e-7, 3.182e-7
0.396, -7.659e-7, -4.477e-7, 3.182e-7
0.395, -7.684e-7, -4.508e-7, 3.176e-7
0.394, -7.705e-7, -4.502e-7, 3.204e-7
0.393, -7.714e-7, -4.502e-7, 3.213e-7
0.392, -7.705e-7, -4.526e-7, 3.179e-7
0.391, -7.742e-7, -4.532e-7, 3.210e-7
0.390, -7.708e-7, -4.511e-7, 3.198e-7
0.389, -7.742e-7, -4.544e-7, 3.198e-7
0.388, -7.757e-7, -4.544e-7, 3.213e-7
0.387, -7.745e-7, -4.529e-7, 3.216e-7
0.386, -7.772e-7, -4.572e-7, 3.201e-7
0.385, -7.791e-7, -4.566e-7, 3.225e-7
0.384, -7.794e-7, -4.566e-7, 3.228e-7
0.383, -7.800e-7, -4.587e-7, 3.213e-7
0.382, -7.827e-7, -4.584e-7, 3.243e-7
0.381, -7.815e-7, -4.584e-7, 3.231e-7
0.380, -7.830e-7, -4.602e-7, 3.228e-7
0.379, -7.836e-7, -4.605e-7, 3.231e-7
0.378, -7.836e-7, -4.599e-7, 3.237e-7
0.377, -7.855e-7, -4.618e-7, 3.237e-7
0.376, -7.876e-7, -4.618e-7, 3.259e-7
0.375, -7.882e-7, -4.630e-7, 3.252e-7
0.374, -7.885e-7, -4.636e-7, 3.249e-7
0.373, -7.891e-7, -4.633e-7, 3.259e-7
0.372, -7.910e-7, -4.642e-7, 3.268e-7
0.371, -7.937e-7, -4.672e-7, 3.265e-7
0.370, -7.937e-7, -4.657e-7, 3.280e-7
0.369, -7.943e-7, -4.679e-7, 3.265e-7
0.368, -7.949e-7, -4.679e-7, 3.271e-7
0.367, -7.974e-7, -4.682e-7, 3.292e-7
0.366, -7.965e-7, -4.691e-7, 3.274e-7
0.365, -7.992e-7, -4.697e-7, 3.295e-7
0.364, -7.989e-7, -4.706e-7, 3.283e-7
0.363, -7.998e-7, -4.709e-7, 3.289e-7
0.362, -8.020e-7, -4.715e-7, 3.304e-7
0.361, -8.038e-7, -4.727e-7, 3.310e-7
0.360, -8.047e-7, -4.746e-7, 3.301e-7
0.359, -8.065e-7, -4.737e-7, 3.329e-7
0.358, -8.041e-7, -4.740e-7, 3.301e-7
0.357, -8.059e-7, -4.749e-7, 3.310e-7
0.356, -8.078e-7, -4.758e-7, 3.320e-7
0.355, -8.087e-7, -4.764e-7, 3.323e-7
0.354, -8.120e-7, -4.782e-7, 3.338e-7
0.353, -8.117e-7, -4.779e-7, 3.338e-7
0.352, -8.129e-7, -4.795e-7, 3.335e-7
0.351, -8.142e-7, -4.801e-7, 3.341e-7
0.350, -8.151e-7, -4.798e-7, 3.353e-7
0.349, -8.163e-7, -4.813e-7, 3.350e-7
0.348, -8.181e-7, -4.825e-7, 3.356e-7
0.347, -8.203e-7, -4.828e-7, 3.375e-7
0.346, -8.184e-7, -4.834e-7, 3.350e-7
0.345, -8.203e-7, -4.831e-7, 3.371e-7
0.344, -8.206e-7, -4.837e-7, 3.368e-7
0.343, -8.221e-7, -4.856e-7, 3.365e-7
0.342, -8.251e-7, -4.849e-7, 3.402e-7
0.341, -8.236e-7, -4.849e-7, 3.387e-7
0.340, -8.248e-7, -4.865e-7, 3.384e-7
0.339, -8.276e-7, -4.874e-7, 3.402e-7
0.338, -8.255e-7, -4.877e-7, 3.378e-7
0.337, -8.285e-7, -4.895e-7, 3.390e-7
0.336, -8.291e-7, -4.892e-7, 3.399e-7
0.335, -8.322e-7, -4.920e-7, 3.402e-7
0.334, -8.309e-7, -4.901e-7, 3.408e-7
0.333, -8.328e-7, -4.901e-7, 3.426e-7
0.332, -8.313e-7, -4.923e-7, 3.390e-7
0.331, -8.367e-7, -4.947e-7, 3.420e-7
0.330, -8.358e-7, -4.926e-7, 3.433e-7
0.329, -8.380e-7, -4.956e-7, 3.423e-7
0.328, -8.392e-7, -4.968e-7, 3.423e-7
0.327, -8.386e-7, -4.953e-7, 3.433e-7
0.326, -8.401e-7, -4.965e-7, 3.436e-7
0.325, -8.435e-7, -4.990e-7, 3.445e-7
0.324, -8.441e-7, -4.978e-7, 3.463e-7
0.323, -8.413e-7, -4.975e-7, 3.439e-7
0.322, -8.465e-7, -5.014e-7, 3.451e-7
0.321, -8.453e-7, -4.984e-7, 3.469e-7
0.320, -8.438e-7, -5.002e-7, 3.436e-7
0.319, -8.502e-7, -5.023e-7, 3.478e-7
0.318, -8.483e-7, -5.008e-7, 3.475e-7
0.317, -8.514e-7, -5.036e-7, 3.478e-7
0.316, -8.535e-7, -5.042e-7, 3.494e-7
0.315, -8.523e-7, -5.048e-7, 3.475e-7
0.314, -8.529e-7, -5.054e-7, 3.475e-7
0.313, -8.554e-7, -5.063e-7, 3.490e-7
0.312, -8.541e-7, -5.060e-7, 3.481e-7
0.311, -8.575e-7, -5.084e-7, 3.490e-7
0.310, -8.578e-7, -5.078e-7, 3.500e-7
0.309, -8.575e-7, -5.081e-7, 3.494e-7
0.308, -8.602e-7, -5.094e-7, 3.509e-7
0.307, -8.593e-7, -5.084e-7, 3.509e-7
0.306, -8.602e-7, -5.112e-7, 3.490e-7
0.305, -8.636e-7, -5.109e-7, 3.527e-7
0.304, -8.636e-7, -5.115e-7, 3.521e-7
0.303, -8.654e-7, -5.133e-7, 3.521e-7
0.302, -8.645e-7, -5.121e-7, 3.524e-7
0.301, -8.670e-7, -5.142e-7, 3.527e-7
0.300, -8.691e-7, -5.167e-7, 3.524e-7
0.299, -8.718e-7, -5.164e-7, 3.555e-7
0.298, -8.731e-7, -5.176e-7, 3.555e-7
0.297, -8.752e-7, -5.188e-7, 3.564e-7
0.296, -8.740e-7, -5.179e-7, 3.561e-7
0.295, -8.767e-7, -5.203e-7, 3.564e-7
0.294, -8.789e-7, -5.219e-7, 3.570e-7
0.293, -8.798e-7, -5.216e-7, 3.582e-7
0.292, -8.801e-7, -5.216e-7, 3.585e-7
0.291, -8.801e-7, -5.231e-7, 3.570e-7
0.290, -8.831e-7, -5.243e-7, 3.588e-7
0.289, -8.825e-7, -5.243e-7, 3.582e-7
0.288, -8.853e-7, -5.264e-7, 3.588e-7
0.287, -8.871e-7, -5.264e-7, 3.606e-7
0.286, -8.865e-7, -5.271e-7, 3.594e-7
0.285, -8.901e-7, -5.289e-7, 3.613e-7
0.284, -8.889e-7, -5.268e-7, 3.622e-7
0.283, -8.917e-7, -5.304e-7, 3.613e-7
0.282, -8.908e-7, -5.292e-7, 3.616e-7
0.281, -8.938e-7, -5.304e-7, 3.634e-7
0.280, -8.959e-7, -5.329e-7, 3.631e-7
0.279, -8.978e-7, -5.341e-7, 3.637e-7
0.278, -8.981e-7, -5.338e-7, 3.643e-7
0.277, -9.014e-7, -5.365e-7, 3.649e-7
0.276, -9.057e-7, -5.374e-7, 3.683e-7
0.275, -9.024e-7, -5.362e-7, 3.661e-7
0.274, -9.033e-7, -5.390e-7, 3.643e-7
0.273, -9.082e-7, -5.387e-7, 3.695e-7
0.272, -9.066e-7, -5.405e-7, 3.661e-7
0.271, -9.097e-7, -5.426e-7, 3.671e-7
0.270, -9.121e-7, -5.423e-7, 3.698e-7
0.269, -9.124e-7, -5.420e-7, 3.704e-7
0.268, -9.139e-7, -5.457e-7, 3.683e-7
0.267, -9.158e-7, -5.445e-7, 3.713e-7
0.266, -9.143e-7, -5.448e-7, 3.695e-7
0.265, -9.201e-7, -5.484e-7, 3.716e-7
0.264, -9.213e-7, -5.478e-7, 3.735e-7
0.263, -9.216e-7, -5.490e-7, 3.725e-7
0.262, -9.246e-7, -5.503e-7, 3.744e-7
0.261, -9.262e-7, -5.518e-7, 3.744e-7
0.260, -9.271e-7, -5.515e-7, 3.756e-7
0.259, -9.289e-7, -5.536e-7, 3.753e-7
0.258, -9.320e-7, -5.554e-7, 3.765e-7
0.257, -9.307e-7, -5.548e-7, 3.759e-7
0.256, -9.338e-7, -5.557e-7, 3.780e-7
0.255, -9.329e-7, -5.567e-7, 3.762e-7
0.254, -9.378e-7, -5.597e-7, 3.780e-7
0.253, -9.390e-7, -5.597e-7, 3.793e-7
0.252, -9.399e-7, -5.606e-7, 3.793e-7
0.251, -9.439e-7, -5.631e-7, 3.808e-7
0.250, -9.451e-7, -5.628e-7, 3.823e-7
0.249, -9.448e-7, -5.631e-7, 3.817e-7
0.248, -9.481e-7, -5.649e-7, 3.832e-7
0.247, -9.521e-7, -5.670e-7, 3.851e-7
0.246, -9.509e-7, -5.670e-7, 3.838e-7
0.245, -9.542e-7, -5.692e-7, 3.851e-7
0.244, -9.561e-7, -5.695e-7, 3.866e-7
0.243, -9.561e-7, -5.707e-7, 3.854e-7
0.242, -9.606e-7, -5.731e-7, 3.875e-7
0.241, -9.612e-7, -5.741e-7, 3.872e-7
0.240, -9.612e-7, -5.734e-7, 3.878e-7
0.239, -9.652e-7, -5.759e-7, 3.893e-7
0.238, -9.658e-7, -5.762e-7, 3.896e-7
0.237, -9.677e-7, -5.783e-7, 3.893e-7
0.236, -9.719e-7, -5.799e-7, 3.921e-7
0.235, -9.713e-7, -5.799e-7, 3.915e-7
0.234, -9.738e-7, -5.814e-7, 3.924e-7
0.233, -9.750e-7, -5.814e-7, 3.936e-7
0.232, -9.765e-7, -5.826e-7, 3.939e-7
0.231, -9.802e-7, -5.860e-7, 3.942e-7
0.230, -9.793e-7, -5.847e-7, 3.945e-7
0.229, -9.817e-7, -5.860e-7, 3.957e-7
0.228, -9.847e-7, -5.890e-7, 3.957e-7
0.227, -9.869e-7, -5.887e-7, 3.982e-7
0.226, -9.863e-7, -5.890e-7, 3.973e-7
0.225, -9.908e-7, -5.930e-7, 3.979e-7
0.224, -9.933e-7, -5.911e-7, 4.021e-7
0.223, -9.915e-7, -5.936e-7, 3.979e-7
0.222, -9.966e-7, -5.963e-7, 4.003e-7
0.221, -9.973e-7, -5.948e-7, 4.025e-7
0.220, -9.982e-7, -5.966e-7, 4.015e-7
0.219, -1.004e-6, -6.000e-7, 4.037e-7
0.218, -1.003e-6, -5.988e-7, 4.046e-7
0.217, -1.004e-6, -6.015e-7, 4.021e-7
0.216, -1.007e-6, -6.030e-7, 4.043e-7
0.215, -1.009e-6, -6.037e-7, 4.049e-7
0.214, -1.010e-6, -6.052e-7, 4.046e-7
0.213, -1.015e-6, -6.079e-7, 4.073e-7
0.212, -1.015e-6, -6.061e-7, 4.092e-7
0.211, -1.015e-6, -6.085e-7, 4.064e-7
0.210, -1.020e-6, -6.098e-7, 4.101e-7
0.209, -1.020e-6, -6.101e-7, 4.101e-7
0.208, -1.023e-6, -6.107e-7, 4.122e-7
0.207, -1.026e-6, -6.137e-7, 4.122e-7
0.206, -1.028e-6, -6.140e-7, 4.140e-7
0.205, -1.028e-6, -6.159e-7, 4.122e-7
0.204, -1.032e-6, -6.168e-7, 4.153e-7
0.203, -1.031e-6, -6.180e-7, 4.134e-7
0.202, -1.034e-6, -6.189e-7, 4.150e-7
0.201, -1.036e-6, -6.201e-7, 4.159e-7
0.200, -1.039e-6, -6.229e-7, 4.165e-7
0.199, -1.042e-6, -6.229e-7, 4.186e-7
0.198, -1.045e-6, -6.253e-7, 4.201e-7
0.197, -1.045e-6, -6.272e-7, 4.177e-7
0.196, -1.048e-6, -6.275e-7, 4.205e-7
0.195, -1.049e-6, -6.284e-7, 4.211e-7
0.194, -1.051e-6, -6.290e-7, 4.217e-7
0.193, -1.053e-6, -6.314e-7, 4.220e-7
0.192, -1.055e-6, -6.317e-7, 4.235e-7
0.191, -1.058e-6, -6.339e-7, 4.238e-7
0.190, -1.058e-6, -6.336e-7, 4.247e-7
0.189, -1.060e-6, -6.342e-7, 4.253e-7
0.188, -1.065e-6, -6.387e-7, 4.259e-7
0.187, -1.066e-6, -6.391e-7, 4.272e-7
0.186, -1.068e-6, -6.397e-7, 4.284e-7
0.185, -1.072e-6, -6.424e-7, 4.296e-7
0.184, -1.073e-6, -6.421e-7, 4.308e-7
0.183, -1.075e-6, -6.439e-7, 4.308e-7
0.182, -1.076e-6, -6.464e-7, 4.299e-7
0.181, -1.078e-6, -6.461e-7, 4.321e-7
0.180, -1.081e-6, -6.473e-7, 4.336e-7
0.179, -1.087e-6, -6.503e-7, 4.363e-7
0.178, -1.088e-6, -6.510e-7, 4.366e-7
0.177, -1.088e-6, -6.513e-7, 4.366e-7
0.176, -1.090e-6, -6.546e-7, 4.357e-7
0.175, -1.094e-6, -6.543e-7, 4.397e-7
0.174, -1.092e-6, -6.546e-7, 4.378e-7
0.173, -1.098e-6, -6.574e-7, 4.406e-7
0.172, -1.100e-6, -6.574e-7, 4.424e-7
0.171, -1.101e-6, -6.598e-7, 4.415e-7
0.170, -1.106e-6, -6.613e-7, 4.446e-7
0.169, -1.108e-6, -6.619e-7, 4.461e-7
0.168, -1.112e-6, -6.665e-7, 4.452e-7
0.167, -1.113e-6, -6.659e-7, 4.470e-7
0.166, -1.113e-6, -6.659e-7, 4.473e-7
0.165, -1.116e-6, -6.677e-7, 4.482e-7
0.164, -1.121e-6, -6.708e-7, 4.504e-7
0.163, -1.121e-6, -6.702e-7, 4.513e-7
0.162, -1.122e-6, -6.723e-7, 4.497e-7
0.161, -1.128e-6, -6.748e-7, 4.528e-7
0.160, -1.127e-6, -6.738e-7, 4.534e-7
0.159, -1.132e-6, -6.772e-7, 4.549e-7
0.158, -1.136e-6, -6.799e-7, 4.562e-7
0.157, -1.135e-6, -6.787e-7, 4.562e-7
0.156, -1.139e-6, -6.818e-7, 4.574e-7
0.155, -1.140e-6, -6.809e-7, 4.589e-7
0.154, -1.144e-6, -6.833e-7, 4.604e-7
0.153, -1.144e-6, -6.854e-7, 4.589e-7
0.152, -1.150e-6, -6.870e-7, 4.629e-7
0.151, -1.152e-6, -6.888e-7, 4.629e-7
0.150, -1.152e-6, -6.897e-7, 4.626e-7
0.149, -1.157e-6, -6.897e-7, 4.671e-7
0.148, -1.157e-6, -6.912e-7, 4.659e-7
0.147, -1.161e-6, -6.934e-7, 4.674e-7
0.146, -1.163e-6, -6.934e-7, 4.696e-7
0.145, -1.165e-6, -6.967e-7, 4.687e-7
0.144, -1.169e-6, -6.976e-7, 4.714e-7
0.143, -1.171e-6, -6.989e-7, 4.717e-7
0.142, -1.173e-6, -7.001e-7, 4.729e-7
0.141, -1.173e-6, -7.001e-7, 4.732e-7
0.140, -1.178e-6, -7.028e-7, 4.748e-7
0.139, -1.180e-6, -7.044e-7, 4.760e-7
0.138, -1.182e-6, -7.050e-7, 4.772e-7
0.137, -1.185e-6, -7.059e-7, 4.793e-7
0.136, -1.188e-6, -7.080e-7, 4.797e-7
0.135, -1.188e-6, -7.083e-7, 4.800e-7
0.134, -1.191e-6, -7.099e-7, 4.812e-7
0.133, -1.195e-6, -7.123e-7, 4.827e-7
0.132, -1.198e-6, -7.126e-7, 4.858e-7
0.131, -1.198e-6, -7.138e-7, 4.842e-7
0.130, -1.202e-6, -7.160e-7, 4.858e-7
0.129, -1.203e-6, -7.147e-7, 4.885e-7
0.128, -1.205e-6, -7.175e-7, 4.873e-7
0.127, -1.209e-6, -7.190e-7, 4.900e-7
0.126, -1.213e-6, -7.218e-7, 4.909e-7
0.125, -1.212e-6, -7.214e-7, 4.906e-7
0.124, -1.215e-6, -7.221e-7, 4.928e-7
0.123, -1.218e-6, -7.236e-7, 4.943e-7
0.122, -1.220e-6, -7.251e-7, 4.949e-7
0.121, -1.224e-6, -7.263e-7, 4.980e-7
0.120, -1.224e-6, -7.257e-7, 4.983e-7
0.119, -1.229e-6, -7.303e-7, 4.986e-7
0.118, -1.230e-6, -7.300e-7, 5.001e-7
0.117, -1.233e-6, -7.312e-7, 5.013e-7
0.116, -1.234e-6, -7.327e-7, 5.016e-7
0.115, -1.237e-6, -7.327e-7, 5.041e-7
0.114, -1.237e-6, -7.343e-7, 5.032e-7
0.113, -1.240e-6, -7.370e-7, 5.035e-7
0.112, -1.243e-6, -7.367e-7, 5.062e-7
0.111, -1.243e-6, -7.364e-7, 5.062e-7
0.110, -1.248e-6, -7.388e-7, 5.089e-7
0.109, -1.248e-6, -7.379e-7, 5.102e-7
0.108, -1.251e-6, -7.410e-7, 5.096e-7
0.107, -1.253e-6, -7.416e-7, 5.114e-7
0.106, -1.255e-6, -7.407e-7, 5.141e-7
0.105, -1.255e-6, -7.434e-7, 5.117e-7
0.104, -1.260e-6, -7.449e-7, 5.147e-7
0.103, -1.260e-6, -7.440e-7, 5.160e-7
0.102, -1.262e-6, -7.471e-7, 5.147e-7
0.101, -1.267e-6, -7.483e-7, 5.184e-7
0.100, -1.268e-6, -7.480e-7, 5.202e-7
0.099, -1.267e-6, -7.477e-7, 5.193e-7
0.098, -1.271e-6, -7.504e-7, 5.202e-7
0.097, -1.270e-6, -7.492e-7, 5.212e-7
0.096, -1.272e-6, -7.507e-7, 5.212e-7
0.095, -1.278e-6, -7.535e-7, 5.245e-7
0.094, -1.277e-6, -7.523e-7, 5.245e-7
0.093, -1.279e-6, -7.550e-7, 5.242e-7
0.092, -1.283e-6, -7.565e-7, 5.263e-7
0.091, -1.281e-6, -7.547e-7, 5.266e-7
0.090, -1.286e-6, -7.575e-7, 5.288e-7
0.089, -1.288e-6, -7.581e-7, 5.297e-7
0.088, -1.288e-6, -7.581e-7, 5.300e-7
0.087, -1.290e-6, -7.593e-7, 5.309e-7
0.086, -1.293e-6, -7.599e-7, 5.331e-7
0.085, -1.291e-6, -7.599e-7, 5.315e-7
0.084, -1.294e-6, -7.611e-7, 5.331e-7
0.083, -1.297e-6, -7.611e-7, 5.358e-7
0.082, -1.297e-6, -7.623e-7, 5.349e-7
0.081, -1.299e-6, -7.620e-7, 5.370e-7
0.080, -1.300e-6, -7.617e-7, 5.379e-7
0.079, -1.302e-6, -7.639e-7, 5.379e-7
0.078, -1.305e-6, -7.651e-7, 5.401e-7
0.077, -1.305e-6, -7.651e-7, 5.404e-7
0.076, -1.307e-6, -7.663e-7, 5.404e-7
0.075, -1.309e-6, -7.663e-7, 5.431e-7
0.074, -1.309e-6, -7.657e-7, 5.431e-7
0.073, -1.311e-6, -7.678e-7, 5.434e-7
0.072, -1.314e-6, -7.681e-7, 5.459e-7
0.071, -1.313e-6, -7.684e-7, 5.450e-7
0.070, -1.314e-6, -7.681e-7, 5.459e-7
0.069, -1.319e-6, -7.700e-7, 5.492e-7
0.068, -1.318e-6, -7.700e-7, 5.477e-7
0.067, -1.319e-6, -7.700e-7, 5.489e-7
0.066, -1.323e-6, -7.709e-7, 5.523e-7
0.065, -1.323e-6, -7.709e-7, 5.517e-7
0.064, -1.324e-6, -7.721e-7, 5.517e-7
0.063, -1.325e-6, -7.709e-7, 5.538e-7
0.062, -1.325e-6, -7.715e-7, 5.535e-7
0.061, -1.328e-6, -7.727e-7, 5.550e-7
0.060, -1.330e-6, -7.727e-7, 5.572e-7
0.059, -1.329e-6, -7.730e-7, 5.562e-7
0.058, -1.334e-6, -7.749e-7, 5.587e-7
0.057, -1.331e-6, -7.724e-7, 5.587e-7
0.056, -1.332e-6, -7.739e-7, 5.581e-7
0.055, -1.336e-6, -7.745e-7, 5.614e-7
0.054, -1.334e-6, -7.736e-7, 5.608e-7
0.053, -1.337e-6, -7.767e-7, 5.602e-7
0.052, -1.338e-6, -7.745e-7, 5.633e-7
0.051, -1.337e-6, -7.733e-7, 5.636e-7
0.050, -1.340e-6, -7.758e-7, 5.642e-7
0.049, -1.340e-6, -7.749e-7, 5.654e-7
0.048, -1.341e-6, -7.742e-7, 5.663e-7
0.047, -1.343e-6, -7.767e-7, 5.666e-7
0.046, -1.344e-6, -7.758e-7, 5.685e-7
0.045, -1.343e-6, -7.749e-7, 5.678e-7
0.044, -1.344e-6, -7.764e-7, 5.672e-7
0.043, -1.345e-6, -7.758e-7, 5.694e-7
0.042, -1.345e-6, -7.752e-7, 5.700e-7
0.041, -1.346e-6, -7.758e-7, 5.703e-7
0.040, -1.350e-6, -7.761e-7, 5.739e-7
0.039, -1.347e-6, -7.745e-7, 5.721e-7
0.038, -1.348e-6, -7.758e-7, 5.727e-7
0.037, -1.350e-6, -7.752e-7, 5.749e-7
0.036, -1.350e-6, -7.758e-7, 5.743e-7
0.035, -1.349e-6, -7.755e-7, 5.739e-7
0.034, -1.351e-6, -7.745e-7, 5.764e-7
0.033, -1.351e-6, -7.752e-7, 5.755e-7
0.032, -1.353e-6, -7.758e-7, 5.776e-7
0.031, -1.352e-6, -7.749e-7, 5.776e-7
0.030, -1.353e-6, -7.752e-7, 5.776e-7
0.029, -1.354e-6, -7.749e-7, 5.788e-7
0.028, -1.354e-6, -7.733e-7, 5.804e-7
0.027, -1.353e-6, -7.736e-7, 5.791e-7
0.026, -1.350e-6, -7.712e-7, 5.788e-7
0.025, -1.351e-6, -7.718e-7, 5.791e-7
0.024, -1.354e-6, -7.730e-7, 5.810e-7
0.023, -1.356e-6, -7.739e-7, 5.825e-7
0.022, -1.354e-6, -7.721e-7, 5.816e-7
0.021, -1.355e-6, -7.736e-7, 5.813e-7
0.020, -1.355e-6, -7.712e-7, 5.837e-7
0.019, -1.353e-6, -7.697e-7, 5.834e-7
0.018, -1.356e-6, -7.715e-7, 5.846e-7
0.017, -1.353e-6, -7.694e-7, 5.840e-7
0.016, -1.352e-6, -7.694e-7, 5.825e-7
0.015, -1.353e-6, -7.681e-7, 5.852e-7
0.014, -1.353e-6, -7.678e-7, 5.852e-7
0.013, -1.352e-6, -7.675e-7, 5.846e-7
0.012, -1.354e-6, -7.672e-7, 5.865e-7
0.011, -1.353e-6, -7.651e-7, 5.877e-7
0.010, -1.351e-6, -7.654e-7, 5.855e-7
0.009, -1.352e-6, -7.648e-7, 5.877e-7
0.008, -1.350e-6, -7.633e-7, 5.871e-7
0.007, -1.350e-6, -7.633e-7, 5.865e-7
0.006, -1.352e-6, -7.626e-7, 5.889e-7
0.005, -1.351e-6, -7.629e-7, 5.883e-7
0.004, -1.352e-6, -7.623e-7, 5.898e-7
0.003, -1.348e-6, -7.602e-7, 5.883e-7
0.002, -1.348e-6, -7.593e-7, 5.886e-7
0.001, -1.349e-6, -7.605e-7, 5.883e-7
0.000, -1.348e-6, -7.584e-7, 5.895e-7
-0.001, -1.346e-6, -7.568e-7, 5.889e-7
-0.002, -1.346e-6, -7.565e-7, 5.898e-7
-0.003, -1.346e-6, -7.553e-7, 5.904e-7
-0.004, -1.343e-6, -7.547e-7, 5.880e-7
-0.005, -1.343e-6, -7.547e-7, 5.883e-7
-0.006, -1.341e-6, -7.523e-7, 5.892e-7
-0.007, -1.340e-6, -7.517e-7, 5.883e-7
-0.008, -1.342e-6, -7.517e-7, 5.904e-7
-0.009, -1.340e-6, -7.492e-7, 5.904e-7
-0.010, -1.337e-6, -7.480e-7, 5.886e-7
-0.011, -1.339e-6, -7.492e-7, 5.901e-7
-0.012, -1.337e-6, -7.456e-7, 5.910e-7
-0.013, -1.335e-6, -7.462e-7, 5.892e-7
-0.014, -1.336e-6, -7.462e-7, 5.898e-7
-0.015, -1.333e-6, -7.428e-7, 5.904e-7
-0.016, -1.332e-6, -7.437e-7, 5.883e-7
-0.017, -1.332e-6, -7.425e-7, 5.895e-7
-0.018, -1.329e-6, -7.401e-7, 5.889e-7
-0.019, -1.330e-6, -7.404e-7, 5.892e-7
-0.020, -1.327e-6, -7.385e-7, 5.883e-7
-0.021, -1.326e-6, -7.373e-7, 5.883e-7
-0.022, -1.324e-6, -7.367e-7, 5.877e-7
-0.023, -1.323e-6, -7.349e-7, 5.880e-7
-0.024, -1.320e-6, -7.333e-7, 5.868e-7
-0.025, -1.320e-6, -7.321e-7, 5.880e-7
-0.026, -1.318e-6, -7.309e-7, 5.874e-7
-0.027, -1.317e-6, -7.306e-7, 5.862e-7
-0.028, -1.317e-6, -7.294e-7, 5.877e-7
-0.029, -1.316e-6, -7.279e-7, 5.877e-7
-0.030, -1.313e-6, -7.279e-7, 5.852e-7
-0.031, -1.311e-6, -7.257e-7, 5.855e-7
-0.032, -1.310e-6, -7.242e-7, 5.862e-7
-0.033, -1.309e-6, -7.236e-7, 5.852e-7
-0.034, -1.308e-6, -7.214e-7, 5.865e-7
-0.035, -1.305e-6, -7.205e-7, 5.849e-7
-0.036, -1.305e-6, -7.205e-7, 5.849e-7
-0.037, -1.303e-6, -7.190e-7, 5.843e-7
-0.038, -1.301e-6, -7.166e-7, 5.849e-7
-0.039, -1.301e-6, -7.172e-7, 5.834e-7
-0.040, -1.300e-6, -7.153e-7, 5.843e-7
-0.041, -1.296e-6, -7.132e-7, 5.831e-7
-0.042, -1.296e-6, -7.129e-7, 5.831e-7
-0.043, -1.295e-6, -7.117e-7, 5.831e-7
-0.044, -1.291e-6, -7.092e-7, 5.816e-7
-0.045, -1.290e-6, -7.086e-7, 5.813e-7
-0.046, -1.288e-6, -7.062e-7, 5.816e-7
-0.047, -1.285e-6, -7.050e-7, 5.797e-7
-0.048, -1.284e-6, -7.050e-7, 5.794e-7
-0.049, -1.286e-6, -7.053e-7, 5.804e-7
-0.050, -1.280e-6, -7.019e-7, 5.782e-7
-0.051, -1.282e-6, -7.016e-7, 5.800e-7
-0.052, -1.276e-6, -6.976e-7, 5.785e-7
-0.053, -1.274e-6, -6.973e-7, 5.770e-7
-0.054, -1.277e-6, -6.983e-7, 5.785e-7
-0.055, -1.275e-6, -6.964e-7, 5.782e-7
-0.056, -1.270e-6, -6.949e-7, 5.749e-7
-0.057, -1.271e-6, -6.937e-7, 5.773e-7
-0.058, -1.268e-6, -6.912e-7, 5.764e-7
-0.059, -1.266e-6, -6.918e-7, 5.743e-7
-0.060, -1.265e-6, -6.894e-7, 5.761e-7
-0.061, -1.263e-6, -6.873e-7, 5.761e-7
-0.062, -1.262e-6, -6.882e-7, 5.739e-7
-0.063, -1.263e-6, -6.870e-7, 5.764e-7
-0.064, -1.258e-6, -6.836e-7, 5.746e-7
-0.065, -1.256e-6, -6.845e-7, 5.718e-7
-0.066, -1.256e-6, -6.827e-7, 5.730e-7
-0.067, -1.254e-6, -6.812e-7, 5.724e-7
-0.068, -1.251e-6, -6.803e-7, 5.703e-7
-0.069, -1.249e-6, -6.784e-7, 5.709e-7
-0.070, -1.247e-6, -6.778e-7, 5.694e-7
-0.071, -1.246e-6, -6.766e-7, 5.694e-7
-0.072, -1.246e-6, -6.754e-7, 5.703e-7
-0.073, -1.241e-6, -6.726e-7, 5.685e-7
-0.074, -1.242e-6, -6.735e-7, 5.681e-7
-0.075, -1.240e-6, -6.717e-7, 5.688e-7
-0.076, -1.237e-6, -6.696e-7, 5.678e-7
-0.077, -1.237e-6, -6.699e-7, 5.669e-7
-0.078, -1.234e-6, -6.687e-7, 5.657e-7
-0.079, -1.232e-6, -6.662e-7, 5.660e-7
-0.080, -1.230e-6, -6.662e-7, 5.642e-7
-0.081, -1.227e-6, -6.638e-7, 5.636e-7
-0.082, -1.226e-6, -6.629e-7, 5.633e-7
-0.083, -1.226e-6, -6.619e-7, 5.642e-7
-0.084, -1.223e-6, -6.601e-7, 5.633e-7
-0.085, -1.223e-6, -6.616e-7, 5.617e-7
-0.086, -1.222e-6, -6.592e-7, 5.624e-7
-0.087, -1.218e-6, -6.571e-7, 5.611e-7
-0.088, -1.215e-6, -6.561e-7, 5.593e-7
-0.089, -1.217e-6, -6.561e-7, 5.608e-7
-0.090, -1.213e-6, -6.555e-7, 5.575e-7
-0.091, -1.213e-6, -6.543e-7, 5.590e-7
-0.092, -1.211e-6, -6.519e-7, 5.587e-7
-0.093, -1.208e-6, -6.513e-7, 5.562e-7
-0.094, -1.209e-6, -6.516e-7, 5.572e-7
-0.095, -1.206e-6, -6.491e-7, 5.569e-7
-0.096, -1.202e-6, -6.467e-7, 5.550e-7
-0.097, -1.204e-6, -6.482e-7, 5.559e-7
-0.098, -1.200e-6, -6.458e-7, 5.544e-7
-0.099, -1.198e-6, -6.445e-7, 5.535e-7
-0.100, -1.196e-6, -6.442e-7, 5.517e-7
-0.101, -1.194e-6, -6.421e-7, 5.517e-7
-0.102, -1.194e-6, -6.427e-7, 5.514e-7
-0.103, -1.192e-6, -6.403e-7, 5.514e-7
-0.104, -1.191e-6, -6.397e-7, 5.514e-7
-0.105, -1.189e-6, -6.403e-7, 5.489e-7
-0.106, -1.187e-6, -6.381e-7, 5.486e-7
-0.107, -1.183e-6, -6.357e-7, 5.474e-7
-0.108, -1.184e-6, -6.366e-7, 5.477e-7
-0.109, -1.182e-6, -6.342e-7, 5.480e-7
-0.110, -1.178e-6, -6.336e-7, 5.447e-7
-0.111, -1.177e-6, -6.323e-7, 5.450e-7
-0.112, -1.177e-6, -6.302e-7, 5.465e-7
-0.113, -1.174e-6, -6.302e-7, 5.434e-7
-0.114, -1.172e-6, -6.293e-7, 5.431e-7
-0.115, -1.171e-6, -6.284e-7, 5.428e-7
-0.116, -1.169e-6, -6.278e-7, 5.416e-7
-0.117, -1.168e-6, -6.272e-7, 5.410e-7
-0.118, -1.167e-6, -6.253e-7, 5.413e-7
-0.119, -1.164e-6, -6.250e-7, 5.395e-7
-0.120, -1.164e-6, -6.253e-7, 5.392e-7
-0.121, -1.162e-6, -6.226e-7, 5.392e-7
-0.122, -1.159e-6, -6.223e-7, 5.367e-7
-0.123, -1.160e-6, -6.229e-7, 5.367e-7
-0.124, -1.158e-6, -6.207e-7, 5.370e-7
-0.125, -1.154e-6, -6.201e-7, 5.337e-7
-0.126, -1.157e-6, -6.223e-7, 5.349e-7
-0.127, -1.152e-6, -6.174e-7, 5.346e-7
-0.128, -1.152e-6, -6.189e-7, 5.327e-7
-0.129, -1.150e-6, -6.168e-7, 5.327e-7
-0.130, -1.147e-6, -6.153e-7, 5.318e-7
-0.131, -1.147e-6, -6.146e-7, 5.321e-7
-0.132, -1.145e-6, -6.143e-7, 5.309e-7
-0.133, -1.144e-6, -6.128e-7, 5.309e-7
-0.134, -1.142e-6, -6.134e-7, 5.282e-7
-0.135, -1.139e-6, -6.101e-7, 5.285e-7
-0.136, -1.137e-6, -6.098e-7, 5.276e-7
-0.137, -1.137e-6, -6.101e-7, 5.273e-7
-0.138, -1.135e-6, -6.082e-7, 5.266e-7
-0.139, -1.134e-6, -6.092e-7, 5.248e-7
-0.140, -1.134e-6, -6.079e-7, 5.257e-7
-0.141, -1.132e-6, -6.067e-7, 5.251e-7
-0.142, -1.130e-6, -6.067e-7, 5.230e-7
-0.143, -1.130e-6, -6.061e-7, 5.236e-7
-0.144, -1.127e-6, -6.046e-7, 5.227e-7
-0.145, -1.125e-6, -6.034e-7, 5.212e-7
-0.146, -1.125e-6, -6.034e-7, 5.218e-7
-0.147, -1.123e-6, -6.024e-7, 5.205e-7
-0.148, -1.120e-6, -6.018e-7, 5.184e-7
-0.149, -1.121e-6, -6.018e-7, 5.196e-7
-0.150, -1.120e-6, -6.003e-7, 5.199e-7
-0.151, -1.117e-6, -5.994e-7, 5.175e-7
-0.152, -1.117e-6, -5.985e-7, 5.181e-7
-0.153, -1.113e-6, -5.976e-7, 5.157e-7
-0.154, -1.114e-6, -5.979e-7, 5.163e-7
-0.155, -1.113e-6, -5.960e-7, 5.172e-7
-0.156, -1.112e-6, -5.960e-7, 5.157e-7
-0.157, -1.110e-6, -5.960e-7, 5.141e-7
-0.158, -1.109e-6, -5.951e-7, 5.138e-7
-0.159, -1.108e-6, -5.945e-7, 5.138e-7
-0.160, -1.108e-6, -5.954e-7, 5.126e-7
-0.161, -1.106e-6, -5.927e-7, 5.132e-7
-0.162, -1.105e-6, -5.945e-7, 5.108e-7
-0.163, -1.103e-6, -5.918e-7, 5.114e-7
-0.164, -1.103e-6, -5.915e-7, 5.111e-7
-0.165, -1.103e-6, -5.915e-7, 5.111e-7
-0.166, -1.106e-6, -5.933e-7, 5.123e-7
-0.167, -1.100e-6, -5.902e-7, 5.096e-7
-0.168, -1.098e-6, -5.905e-7, 5.077e-7
-0.169, -1.098e-6, -5.884e-7, 5.096e-7
-0.170, -1.098e-6, -5.899e-7, 5.077e-7
-0.171, -1.096e-6, -5.893e-7, 5.068e-7
-0.172, -1.093e-6, -5.863e-7, 5.071e-7
-0.173, -1.092e-6, -5.860e-7, 5.065e-7
-0.174, -1.093e-6, -5.881e-7, 5.050e-7
-0.175, -1.093e-6, -5.869e-7, 5.065e-7
-0.176, -1.090e-6, -5.835e-7, 5.062e-7
-0.177, -1.088e-6, -5.857e-7, 5.025e-7
-0.178, -1.092e-6, -5.863e-7, 5.053e-7
-0.179, -1.089e-6, -5.857e-7, 5.038e-7
-0.180, -1.090e-6, -5.869e-7, 5.035e-7
-0.181, -1.087e-6, -5.841e-7, 5.028e-7
-0.182, -1.086e-6, -5.829e-7, 5.028e-7
-0.183, -1.086e-6, -5.835e-7, 5.028e-7
-0.184, -1.086e-6, -5.832e-7, 5.031e-7
-0.185, -1.084e-6, -5.814e-7, 5.028e-7
-0.186, -1.084e-6, -5.829e-7, 5.013e-7
-0.187, -1.081e-6, -5.799e-7, 5.013e-7
-0.188, -1.081e-6, -5.796e-7, 5.010e-7
-0.189, -1.081e-6, -5.808e-7, 5.007e-7
-0.190, -1.080e-6, -5.792e-7, 5.004e-7
-0.191, -1.079e-6, -5.796e-7, 4.992e-7
-0.192, -1.079e-6, -5.799e-7, 4.995e-7
-0.193, -1.078e-6, -5.799e-7, 4.980e-7
-0.194, -1.076e-6, -5.777e-7, 4.980e-7
-0.195, -1.077e-6, -5.780e-7, 4.986e-7
-0.196, -1.075e-6, -5.777e-7, 4.977e-7
-0.197, -1.078e-6, -5.805e-7, 4.980e-7
-0.198, -1.076e-6, -5.774e-7, 4.983e-7
-0.199, -1.076e-6, -5.792e-7, 4.970e-7
-0.200, -1.072e-6, -5.759e-7, 4.958e-7
-0.201, -1.073e-6, -5.753e-7, 4.980e-7
-0.202, -1.069e-6, -5.747e-7, 4.943e-7
-0.203, -1.072e-6, -5.759e-7, 4.958e-7
-0.204, -1.069e-6, -5.731e-7, 4.955e-7
-0.205, -1.070e-6, -5.756e-7, 4.946e-7
-0.206, -1.068e-6, -5.731e-7, 4.952e-7
-0.207, -1.069e-6, -5.738e-7, 4.952e-7
-0.208, -1.065e-6, -5.719e-7, 4.928e-7
-0.209, -1.064e-6, -5.722e-7, 4.922e-7
-0.210, -1.065e-6, -5.722e-7, 4.925e-7
-0.211, -1.064e-6, -5.716e-7, 4.925e-7
-0.212, -1.065e-6, -5.713e-7, 4.934e-7
-0.213, -1.065e-6, -5.713e-7, 4.937e-7
-0.214, -1.063e-6, -5.710e-7, 4.916e-7
-0.215, -1.063e-6, -5.698e-7, 4.934e-7
-0.216, -1.065e-6, -5.710e-7, 4.937e-7
-0.217, -1.063e-6, -5.710e-7, 4.922e-7
-0.218, -1.061e-6, -5.686e-7, 4.922e-7
-0.219, -1.058e-6, -5.670e-7, 4.909e-7
-0.220, -1.060e-6, -5.686e-7, 4.909e-7
-0.221, -1.058e-6, -5.677e-7, 4.903e-7
-0.222, -1.057e-6, -5.686e-7, 4.888e-7
-0.223, -1.058e-6, -5.683e-7, 4.894e-7
-0.224, -1.056e-6, -5.661e-7, 4.894e-7
-0.225, -1.056e-6, -5.680e-7, 4.885e-7
-0.226, -1.057e-6, -5.670e-7, 4.897e-7
-0.227, -1.054e-6, -5.637e-7, 4.900e-7
-0.228, -1.053e-6, -5.652e-7, 4.879e-7
-0.229, -1.055e-6, -5.673e-7, 4.879e-7
-0.230, -1.052e-6, -5.640e-7, 4.882e-7
-0.231, -1.052e-6, -5.637e-7, 4.879e-7
-0.232, -1.051e-6, -5.637e-7, 4.870e-7
-0.233, -1.050e-6, -5.622e-7, 4.876e-7
-0.234, -1.050e-6, -5.640e-7, 4.864e-7
-0.235, -1.049e-6, -5.625e-7, 4.864e-7
-0.236, -1.048e-6, -5.612e-7, 4.867e-7
-0.237, -1.046e-6, -5.606e-7, 4.851e-7
-0.238, -1.048e-6, -5.625e-7, 4.854e-7
-0.239, -1.048e-6, -5.612e-7, 4.867e-7
-0.240, -1.045e-6, -5.612e-7, 4.839e-7
-0.241, -1.046e-6, -5.597e-7, 4.864e-7
-0.242, -1.046e-6, -5.609e-7, 4.854e-7
-0.243, -1.043e-6, -5.597e-7, 4.836e-7
-0.244, -1.043e-6, -5.585e-7, 4.848e-7
-0.245, -1.039e-6, -5.567e-7, 4.824e-7
-0.246, -1.042e-6, -5.585e-7, 4.836e-7
-0.247, -1.039e-6, -5.570e-7, 4.824e-7
-0.248, -1.036e-6, -5.554e-7, 4.809e-7
-0.249, -1.039e-6, -5.573e-7, 4.815e-7
-0.250, -1.036e-6, -5.545e-7, 4.812e-7
-0.251, -1.035e-6, -5.539e-7, 4.815e-7
-0.252, -1.038e-6, -5.558e-7, 4.824e-7
-0.253, -1.038e-6, -5.561e-7, 4.818e-7
-0.254, -1.033e-6, -5.527e-7, 4.806e-7
-0.255, -1.035e-6, -5.533e-7, 4.818e-7
-0.256, -1.036e-6, -5.558e-7, 4.806e-7
-0.257, -1.036e-6, -5.561e-7, 4.797e-7
-0.258, -1.034e-6, -5.536e-7, 4.803e-7
-0.259, -1.030e-6, -5.506e-7, 4.797e-7
-0.260, -1.033e-6, -5.533e-7, 4.800e-7
-0.261, -1.031e-6, -5.512e-7, 4.800e-7
-0.262, -1.027e-6, -5.487e-7, 4.784e-7
-0.263, -1.030e-6, -5.515e-7, 4.787e-7
-0.264, -1.027e-6, -5.487e-7, 4.781e-7
-0.265, -1.028e-6, -5.493e-7, 4.787e-7
-0.266, -1.027e-6, -5.493e-7, 4.781e-7
-0.267, -1.026e-6, -5.478e-7, 4.784e-7
-0.268, -1.024e-6, -5.472e-7, 4.772e-7
-0.269, -1.024e-6, -5.469e-7, 4.772e-7
-0.270, -1.023e-6, -5.463e-7, 4.769e-7
-0.271, -1.022e-6, -5.463e-7, 4.760e-7
-0.272, -1.021e-6, -5.460e-7, 4.754e-7
-0.273, -1.022e-6, -5.457e-7, 4.766e-7
-0.274, -1.021e-6, -5.460e-7, 4.754e-7
-0.275, -1.021e-6, -5.448e-7, 4.760e-7
-0.276, -1.019e-6, -5.438e-7, 4.754e-7
-0.277, -1.019e-6, -5.448e-7, 4.739e-7
-0.278, -1.020e-6, -5.442e-7, 4.757e-7
-0.279, -1.019e-6, -5.432e-7, 4.754e-7
-0.280, -1.017e-6, -5.429e-7, 4.742e-7
-0.281, -1.018e-6, -5.426e-7, 4.757e-7
-0.282, -1.014e-6, -5.399e-7, 4.742e-7
-0.283, -1.013e-6, -5.417e-7, 4.717e-7
-0.284, -1.019e-6, -5.448e-7, 4.742e-7
-0.285, -1.016e-6, -5.423e-7, 4.739e-7
-0.286, -1.014e-6, -5.414e-7, 4.723e-7
-0.287, -1.013e-6, -5.396e-7, 4.735e-7
-0.288, -1.014e-6, -5.423e-7, 4.717e-7
-0.289, -1.012e-6, -5.402e-7, 4.720e-7
-0.290, -1.012e-6, -5.387e-7, 4.729e-7
-0.291, -1.018e-6, -5.457e-7, 4.726e-7
-0.292, -1.009e-6, -5.387e-7, 4.702e-7
-0.293, -1.012e-6, -5.399e-7, 4.720e-7
-0.294, -1.008e-6, -5.390e-7, 4.690e-7
-0.295, -1.008e-6, -5.377e-7, 4.702e-7
-0.296, -1.012e-6, -5.393e-7, 4.723e-7
-0.297, -1.006e-6, -5.362e-7, 4.702e-7
-0.298, -1.006e-6, -5.365e-7, 4.696e-7
-0.299, -1.006e-6, -5.362e-7, 4.699e-7
-0.300, -1.006e-6, -5.362e-7, 4.702e-7
-0.301, -1.007e-6, -5.371e-7, 4.702e-7
-0.302, -1.008e-6, -5.374e-7, 4.705e-7
-0.303, -1.005e-6, -5.377e-7, 4.677e-7
-0.304, -1.004e-6, -5.347e-7, 4.696e-7
-0.305, -1.003e-6, -5.341e-7, 4.690e-7
-0.306, -1.005e-6, -5.368e-7, 4.687e-7
-0.307, -1.003e-6, -5.341e-7, 4.690e-7
-0.308, -1.001e-6, -5.338e-7, 4.674e-7
-0.309, -1.002e-6, -5.350e-7, 4.668e-7
-0.310, -1.002e-6, -5.335e-7, 4.684e-7
-0.311, -1.002e-6, -5.335e-7, 4.687e-7
-0.312, -1.001e-6, -5.344e-7, 4.668e-7
-0.313, -9.991e-7, -5.335e-7, 4.656e-7
-0.314, -9.982e-7, -5.316e-7, 4.665e-7
-0.315, -9.979e-7, -5.323e-7, 4.656e-7
-0.316, -9.948e-7, -5.304e-7, 4.644e-7
-0.317, -9.954e-7, -5.319e-7, 4.635e-7
-0.318, -9.976e-7, -5.323e-7, 4.653e-7
-0.319, -9.966e-7, -5.310e-7, 4.656e-7
-0.320, -9.957e-7, -5.319e-7, 4.638e-7
-0.321, -9.948e-7, -5.304e-7, 4.644e-7
-0.322, -9.954e-7, -5.304e-7, 4.650e-7
-0.323, -9.927e-7, -5.304e-7, 4.623e-7
-0.324, -9.963e-7, -5.335e-7, 4.629e-7
-0.325, -9.954e-7, -5.316e-7, 4.638e-7
-0.326, -9.933e-7, -5.310e-7, 4.623e-7
-0.327, -9.930e-7, -5.301e-7, 4.629e-7
-0.328, -9.921e-7, -5.304e-7, 4.616e-7
-0.329, -9.924e-7, -5.316e-7, 4.607e-7
-0.330, -9.905e-7, -5.298e-7, 4.607e-7
-0.331, -9.887e-7, -5.280e-7, 4.607e-7
-0.332, -9.887e-7, -5.298e-7, 4.589e-7
-0.333, -9.893e-7, -5.307e-7, 4.586e-7
-0.334, -9.878e-7, -5.289e-7, 4.589e-7
-0.335, -9.881e-7, -5.301e-7, 4.580e-7
-0.336, -9.875e-7, -5.283e-7, 4.592e-7
-0.337, -9.863e-7, -5.280e-7, 4.583e-7
-0.338, -9.875e-7, -5.292e-7, 4.583e-7
-0.339, -9.884e-7, -5.298e-7, 4.586e-7
-0.340, -9.841e-7, -5.271e-7, 4.571e-7
-0.341, -9.857e-7, -5.295e-7, 4.562e-7
-0.342, -9.847e-7, -5.268e-7, 4.580e-7
-0.343, -9.847e-7, -5.295e-7, 4.552e-7
-0.344, -9.829e-7, -5.277e-7, 4.552e-7
-0.345, -9.826e-7, -5.265e-7, 4.562e-7
-0.346, -9.841e-7, -5.292e-7, 4.549e-7
-0.347, -9.832e-7, -5.292e-7, 4.540e-7
-0.348, -9.802e-7, -5.255e-7, 4.546e-7
-0.349, -9.841e-7, -5.301e-7, 4.540e-7
-0.350, -9.817e-7, -5.286e-7, 4.531e-7
-0.351, -9.771e-7, -5.252e-7, 4.519e-7
-0.352, -9.783e-7, -5.258e-7, 4.525e-7
-0.353, -9.768e-7, -5.268e-7, 4.500e-7
-0.354, -9.786e-7, -5.265e-7, 4.522e-7
-0.355, -9.762e-7, -5.252e-7, 4.510e-7
-0.356, -9.777e-7, -5.268e-7, 4.510e-7
-0.357, -9.750e-7, -5.243e-7, 4.507e-7
-0.358, -9.750e-7, -5.262e-7, 4.488e-7
-0.359, -9.753e-7, -5.252e-7, 4.500e-7
-0.360, -9.728e-7, -5.246e-7, 4.482e-7
-0.361, -9.762e-7, -5.271e-7, 4.491e-7
-0.362, -9.747e-7, -5.255e-7, 4.491e-7
-0.363, -9.744e-7, -5.255e-7, 4.488e-7
-0.364, -9.747e-7, -5.265e-7, 4.482e-7
-0.365, -9.738e-7, -5.249e-7, 4.488e-7
-0.366, -9.716e-7, -5.249e-7, 4.467e-7
-0.367, -9.707e-7, -5.240e-7, 4.467e-7
-0.368, -9.735e-7, -5.265e-7, 4.470e-7
-0.369, -9.738e-7, -5.271e-7, 4.467e-7
-0.370, -9.731e-7, -5.277e-7, 4.455e-7
-0.371, -9.695e-7, -5.249e-7, 4.446e-7
-0.372, -9.707e-7, -5.252e-7, 4.455e-7
-0.373, -9.713e-7, -5.271e-7, 4.443e-7
-0.374, -9.704e-7, -5.258e-7, 4.446e-7
-0.375, -9.710e-7, -5.280e-7, 4.430e-7
-0.376, -9.704e-7, -5.274e-7, 4.430e-7
-0.377, -9.667e-7, -5.240e-7, 4.427e-7
-0.378, -9.692e-7, -5.271e-7, 4.421e-7
-0.379, -9.677e-7, -5.265e-7, 4.412e-7
-0.380, -9.667e-7, -5.246e-7, 4.421e-7
-0.381, -9.686e-7, -5.271e-7, 4.415e-7
-0.382, -9.667e-7, -5.258e-7, 4.409e-7
-0.383, -9.661e-7, -5.252e-7, 4.409e-7
-0.384, -9.680e-7, -5.280e-7, 4.400e-7
-0.385, -9.677e-7, -5.265e-7, 4.412e-7
-0.386, -9.652e-7, -5.262e-7, 4.391e-7
-0.387, -9.695e-7, -5.304e-7, 4.391e-7
-0.388, -9.689e-7, -5.292e-7, 4.397e-7
-0.389, -9.670e-7, -5.295e-7, 4.375e-7
-0.390, -9.667e-7, -5.271e-7, 4.397e-7
-0.391, -9.674e-7, -5.280e-7, 4.394e-7
-0.392, -9.634e-7, -5.268e-7, 4.366e-7
-0.393, -9.652e-7, -5.277e-7, 4.375e-7
-0.394, -9.664e-7, -5.286e-7, 4.378e-7
-0.395, -9.652e-7, -5.286e-7, 4.366e-7
-0.396, -9.686e-7, -5.304e-7, 4.381e-7
-0.397, -9.637e-7, -5.271e-7, 4.366e-7
-0.398, -9.683e-7, -5.319e-7, 4.363e-7
-0.399, -9.664e-7, -5.298e-7, 4.366e-7
-0.400, -9.637e-7, -5.289e-7, 4.348e-7
