Mar. 20, 2018   15:33:43
Square Wave Voltammetry
File: c:\users\electrochemist\desktop\2018\20032018_unbufarray_unpap\52_g4_ph7,95_1.txt
Data Source:  Experiment
Instrument Model:  CHI1040A
Header: 
Note: 

Init E (V) = 0.7
Final E (V) = -0.4
Incr E (V) = 0.001
Amplitude (V) = 0.1
Frequency (Hz) = 152
Quiet Time (sec) = 2
Sensitivity (A/V) = 1e-6

Difference:

Forward:

Reverse:

Potential/V, Diff(i/A), For(i/A), Rev(i/A)

0.699, -7.202e-7, -1.923e-7, 5.279e-7
0.698, -8.941e-7, -4.120e-7, 4.821e-7
0.697, -8.978e-7, -4.233e-7, 4.745e-7
0.696, -8.944e-7, -4.251e-7, 4.693e-7
0.695, -8.923e-7, -4.273e-7, 4.650e-7
0.694, -8.905e-7, -4.273e-7, 4.632e-7
0.693, -8.862e-7, -4.251e-7, 4.610e-7
0.692, -8.859e-7, -4.276e-7, 4.583e-7
0.691, -8.834e-7, -4.276e-7, 4.559e-7
0.690, -8.834e-7, -4.260e-7, 4.574e-7
0.689, -8.807e-7, -4.279e-7, 4.528e-7
0.688, -8.786e-7, -4.279e-7, 4.507e-7
0.687, -8.758e-7, -4.254e-7, 4.504e-7
0.686, -8.734e-7, -4.276e-7, 4.458e-7
0.685, -8.728e-7, -4.257e-7, 4.470e-7
0.684, -8.703e-7, -4.251e-7, 4.452e-7
0.683, -8.715e-7, -4.276e-7, 4.440e-7
0.682, -8.715e-7, -4.291e-7, 4.424e-7
0.681, -8.673e-7, -4.254e-7, 4.418e-7
0.680, -8.657e-7, -4.267e-7, 4.391e-7
0.679, -8.654e-7, -4.260e-7, 4.394e-7
0.678, -8.593e-7, -4.248e-7, 4.345e-7
0.677, -8.630e-7, -4.267e-7, 4.363e-7
0.676, -8.609e-7, -4.236e-7, 4.372e-7
0.675, -8.593e-7, -4.264e-7, 4.330e-7
0.674, -8.584e-7, -4.257e-7, 4.327e-7
0.673, -8.566e-7, -4.233e-7, 4.333e-7
0.672, -8.541e-7, -4.254e-7, 4.287e-7
0.671, -8.563e-7, -4.270e-7, 4.293e-7
0.670, -8.529e-7, -4.227e-7, 4.302e-7
0.669, -8.526e-7, -4.254e-7, 4.272e-7
0.668, -8.532e-7, -4.267e-7, 4.266e-7
0.667, -8.514e-7, -4.239e-7, 4.275e-7
0.666, -8.444e-7, -4.227e-7, 4.217e-7
0.665, -8.505e-7, -4.260e-7, 4.244e-7
0.664, -8.462e-7, -4.221e-7, 4.241e-7
0.663, -8.453e-7, -4.242e-7, 4.211e-7
0.662, -8.465e-7, -4.245e-7, 4.220e-7
0.661, -8.459e-7, -4.236e-7, 4.223e-7
0.660, -8.432e-7, -4.239e-7, 4.192e-7
0.659, -8.441e-7, -4.236e-7, 4.205e-7
0.658, -8.419e-7, -4.230e-7, 4.189e-7
0.657, -8.410e-7, -4.242e-7, 4.168e-7
0.656, -8.407e-7, -4.233e-7, 4.174e-7
0.655, -8.416e-7, -4.236e-7, 4.180e-7
0.654, -8.383e-7, -4.236e-7, 4.147e-7
0.653, -8.380e-7, -4.230e-7, 4.150e-7
0.652, -8.367e-7, -4.227e-7, 4.141e-7
0.651, -8.370e-7, -4.224e-7, 4.147e-7
0.650, -8.337e-7, -4.212e-7, 4.125e-7
0.649, -8.352e-7, -4.230e-7, 4.122e-7
0.648, -8.358e-7, -4.230e-7, 4.128e-7
0.647, -8.325e-7, -4.221e-7, 4.104e-7
0.646, -8.325e-7, -4.218e-7, 4.107e-7
0.645, -8.337e-7, -4.227e-7, 4.110e-7
0.644, -8.325e-7, -4.203e-7, 4.122e-7
0.643, -8.319e-7, -4.236e-7, 4.083e-7
0.642, -8.303e-7, -4.224e-7, 4.079e-7
0.641, -8.282e-7, -4.209e-7, 4.073e-7
0.640, -8.291e-7, -4.227e-7, 4.064e-7
0.639, -8.276e-7, -4.218e-7, 4.058e-7
0.638, -8.270e-7, -4.212e-7, 4.058e-7
0.637, -8.273e-7, -4.215e-7, 4.058e-7
0.636, -8.245e-7, -4.209e-7, 4.037e-7
0.635, -8.245e-7, -4.206e-7, 4.040e-7
0.634, -8.270e-7, -4.230e-7, 4.040e-7
0.633, -8.248e-7, -4.215e-7, 4.034e-7
0.632, -8.224e-7, -4.196e-7, 4.028e-7
0.631, -8.267e-7, -4.227e-7, 4.040e-7
0.630, -8.227e-7, -4.206e-7, 4.021e-7
0.629, -8.224e-7, -4.212e-7, 4.012e-7
0.628, -8.264e-7, -4.257e-7, 4.006e-7
0.627, -8.221e-7, -4.203e-7, 4.018e-7
0.626, -8.212e-7, -4.215e-7, 3.997e-7
0.625, -8.227e-7, -4.218e-7, 4.009e-7
0.624, -8.206e-7, -4.196e-7, 4.009e-7
0.623, -8.193e-7, -4.212e-7, 3.982e-7
0.622, -8.227e-7, -4.215e-7, 4.012e-7
0.621, -8.193e-7, -4.196e-7, 3.997e-7
0.620, -8.209e-7, -4.236e-7, 3.973e-7
0.619, -8.230e-7, -4.215e-7, 4.015e-7
0.618, -8.203e-7, -4.218e-7, 3.985e-7
0.617, -8.178e-7, -4.218e-7, 3.960e-7
0.616, -8.206e-7, -4.218e-7, 3.988e-7
0.615, -8.175e-7, -4.203e-7, 3.973e-7
0.614, -8.172e-7, -4.227e-7, 3.945e-7
0.613, -8.203e-7, -4.221e-7, 3.982e-7
0.612, -8.175e-7, -4.209e-7, 3.967e-7
0.611, -8.184e-7, -4.233e-7, 3.951e-7
0.610, -8.181e-7, -4.218e-7, 3.964e-7
0.609, -8.148e-7, -4.203e-7, 3.945e-7
0.608, -8.187e-7, -4.230e-7, 3.957e-7
0.607, -8.193e-7, -4.233e-7, 3.960e-7
0.606, -8.163e-7, -4.218e-7, 3.945e-7
0.605, -8.175e-7, -4.242e-7, 3.933e-7
0.604, -8.181e-7, -4.233e-7, 3.948e-7
0.603, -8.154e-7, -4.218e-7, 3.936e-7
0.602, -8.154e-7, -4.239e-7, 3.915e-7
0.601, -8.169e-7, -4.227e-7, 3.942e-7
0.600, -8.169e-7, -4.227e-7, 3.942e-7
0.599, -8.154e-7, -4.227e-7, 3.927e-7
0.598, -8.148e-7, -4.218e-7, 3.930e-7
0.597, -8.178e-7, -4.245e-7, 3.933e-7
0.596, -8.160e-7, -4.233e-7, 3.927e-7
0.595, -8.163e-7, -4.230e-7, 3.933e-7
0.594, -8.163e-7, -4.248e-7, 3.915e-7
0.593, -8.157e-7, -4.242e-7, 3.915e-7
0.592, -8.163e-7, -4.233e-7, 3.930e-7
0.591, -8.151e-7, -4.233e-7, 3.918e-7
0.590, -8.163e-7, -4.248e-7, 3.915e-7
0.589, -8.145e-7, -4.236e-7, 3.909e-7
0.588, -8.154e-7, -4.239e-7, 3.915e-7
0.587, -8.169e-7, -4.251e-7, 3.918e-7
0.586, -8.160e-7, -4.242e-7, 3.918e-7
0.585, -8.154e-7, -4.254e-7, 3.899e-7
0.584, -8.157e-7, -4.236e-7, 3.921e-7
0.583, -8.142e-7, -4.239e-7, 3.902e-7
0.582, -8.157e-7, -4.245e-7, 3.912e-7
0.581, -8.169e-7, -4.245e-7, 3.924e-7
0.580, -8.154e-7, -4.248e-7, 3.906e-7
0.579, -8.166e-7, -4.254e-7, 3.912e-7
0.578, -8.157e-7, -4.233e-7, 3.924e-7
0.577, -8.148e-7, -4.260e-7, 3.887e-7
0.576, -8.139e-7, -4.236e-7, 3.902e-7
0.575, -8.157e-7, -4.248e-7, 3.909e-7
0.574, -8.154e-7, -4.254e-7, 3.899e-7
0.573, -8.154e-7, -4.264e-7, 3.890e-7
0.572, -8.169e-7, -4.254e-7, 3.915e-7
0.571, -8.151e-7, -4.270e-7, 3.881e-7
0.570, -8.154e-7, -4.264e-7, 3.890e-7
0.569, -8.142e-7, -4.248e-7, 3.893e-7
0.568, -8.148e-7, -4.270e-7, 3.878e-7
0.567, -8.169e-7, -4.270e-7, 3.899e-7
0.566, -8.148e-7, -4.270e-7, 3.878e-7
0.565, -8.169e-7, -4.276e-7, 3.893e-7
0.564, -8.157e-7, -4.264e-7, 3.893e-7
0.563, -8.142e-7, -4.251e-7, 3.890e-7
0.562, -8.157e-7, -4.276e-7, 3.881e-7
0.561, -8.166e-7, -4.285e-7, 3.881e-7
0.560, -8.139e-7, -4.267e-7, 3.872e-7
0.559, -8.163e-7, -4.285e-7, 3.878e-7
0.558, -8.145e-7, -4.267e-7, 3.878e-7
0.557, -8.142e-7, -4.276e-7, 3.866e-7
0.556, -8.166e-7, -4.291e-7, 3.875e-7
0.555, -8.151e-7, -4.273e-7, 3.878e-7
0.554, -8.160e-7, -4.294e-7, 3.866e-7
0.553, -8.160e-7, -4.291e-7, 3.869e-7
0.552, -8.154e-7, -4.264e-7, 3.890e-7
0.551, -8.142e-7, -4.282e-7, 3.860e-7
0.550, -8.166e-7, -4.297e-7, 3.869e-7
0.549, -8.163e-7, -4.276e-7, 3.887e-7
0.548, -8.129e-7, -4.282e-7, 3.848e-7
0.547, -8.154e-7, -4.288e-7, 3.866e-7
0.546, -8.145e-7, -4.276e-7, 3.869e-7
0.545, -8.148e-7, -4.297e-7, 3.851e-7
0.544, -8.181e-7, -4.303e-7, 3.878e-7
0.543, -8.145e-7, -4.279e-7, 3.866e-7
0.542, -8.136e-7, -4.291e-7, 3.844e-7
0.541, -8.142e-7, -4.288e-7, 3.854e-7
0.540, -8.148e-7, -4.288e-7, 3.860e-7
0.539, -8.151e-7, -4.303e-7, 3.848e-7
0.538, -8.136e-7, -4.285e-7, 3.851e-7
0.537, -8.154e-7, -4.297e-7, 3.857e-7
0.536, -8.148e-7, -4.294e-7, 3.854e-7
0.535, -8.157e-7, -4.309e-7, 3.848e-7
0.534, -8.157e-7, -4.309e-7, 3.848e-7
0.533, -8.157e-7, -4.303e-7, 3.854e-7
0.532, -8.136e-7, -4.288e-7, 3.848e-7
0.531, -8.157e-7, -4.306e-7, 3.851e-7
0.530, -8.151e-7, -4.303e-7, 3.848e-7
0.529, -8.157e-7, -4.303e-7, 3.854e-7
0.528, -8.129e-7, -4.306e-7, 3.823e-7
0.527, -8.166e-7, -4.297e-7, 3.869e-7
0.526, -8.142e-7, -4.300e-7, 3.841e-7
0.525, -8.151e-7, -4.315e-7, 3.835e-7
0.524, -8.178e-7, -4.325e-7, 3.854e-7
0.523, -8.142e-7, -4.306e-7, 3.835e-7
0.522, -8.139e-7, -4.309e-7, 3.829e-7
0.521, -8.154e-7, -4.303e-7, 3.851e-7
0.520, -8.163e-7, -4.306e-7, 3.857e-7
0.519, -8.151e-7, -4.325e-7, 3.826e-7
0.518, -8.166e-7, -4.315e-7, 3.851e-7
0.517, -8.132e-7, -4.306e-7, 3.826e-7
0.516, -8.148e-7, -4.328e-7, 3.820e-7
0.515, -8.151e-7, -4.312e-7, 3.838e-7
0.514, -8.157e-7, -4.331e-7, 3.826e-7
0.513, -8.163e-7, -4.337e-7, 3.826e-7
0.512, -8.172e-7, -4.331e-7, 3.841e-7
0.511, -8.157e-7, -4.315e-7, 3.841e-7
0.510, -8.175e-7, -4.346e-7, 3.829e-7
0.509, -8.187e-7, -4.343e-7, 3.844e-7
0.508, -8.139e-7, -4.309e-7, 3.829e-7
0.507, -8.181e-7, -4.334e-7, 3.848e-7
0.506, -8.172e-7, -4.334e-7, 3.838e-7
0.505, -8.157e-7, -4.334e-7, 3.823e-7
0.504, -8.175e-7, -4.340e-7, 3.835e-7
0.503, -8.178e-7, -4.340e-7, 3.838e-7
0.502, -8.166e-7, -4.352e-7, 3.814e-7
0.501, -8.215e-7, -4.340e-7, 3.875e-7
0.500, -8.172e-7, -4.334e-7, 3.838e-7
0.499, -8.169e-7, -4.352e-7, 3.817e-7
0.498, -8.221e-7, -4.364e-7, 3.857e-7
0.497, -8.181e-7, -4.337e-7, 3.844e-7
0.496, -8.187e-7, -4.367e-7, 3.820e-7
0.495, -8.206e-7, -4.361e-7, 3.844e-7
0.494, -8.206e-7, -4.349e-7, 3.857e-7
0.493, -8.203e-7, -4.376e-7, 3.826e-7
0.492, -8.193e-7, -4.361e-7, 3.832e-7
0.491, -8.193e-7, -4.364e-7, 3.829e-7
0.490, -8.197e-7, -4.376e-7, 3.820e-7
0.489, -8.209e-7, -4.376e-7, 3.832e-7
0.488, -8.206e-7, -4.364e-7, 3.841e-7
0.487, -8.230e-7, -4.401e-7, 3.829e-7
0.486, -8.206e-7, -4.358e-7, 3.848e-7
0.485, -8.203e-7, -4.367e-7, 3.835e-7
0.484, -8.224e-7, -4.395e-7, 3.829e-7
0.483, -8.230e-7, -4.383e-7, 3.848e-7
0.482, -8.203e-7, -4.373e-7, 3.829e-7
0.481, -8.236e-7, -4.398e-7, 3.838e-7
0.480, -8.227e-7, -4.392e-7, 3.835e-7
0.479, -8.251e-7, -4.407e-7, 3.844e-7
0.478, -8.258e-7, -4.395e-7, 3.863e-7
0.477, -8.239e-7, -4.398e-7, 3.841e-7
0.476, -8.239e-7, -4.398e-7, 3.841e-7
0.475, -8.255e-7, -4.404e-7, 3.851e-7
0.474, -8.242e-7, -4.404e-7, 3.838e-7
0.473, -8.258e-7, -4.419e-7, 3.838e-7
0.472, -8.267e-7, -4.407e-7, 3.860e-7
0.471, -8.242e-7, -4.407e-7, 3.835e-7
0.470, -8.261e-7, -4.419e-7, 3.841e-7
0.469, -8.285e-7, -4.428e-7, 3.857e-7
0.468, -8.279e-7, -4.428e-7, 3.851e-7
0.467, -8.282e-7, -4.428e-7, 3.854e-7
0.466, -8.309e-7, -4.434e-7, 3.875e-7
0.465, -8.285e-7, -4.434e-7, 3.851e-7
0.464, -8.282e-7, -4.431e-7, 3.851e-7
0.463, -8.300e-7, -4.425e-7, 3.875e-7
0.462, -8.297e-7, -4.447e-7, 3.851e-7
0.461, -8.291e-7, -4.434e-7, 3.857e-7
0.460, -8.273e-7, -4.428e-7, 3.844e-7
0.459, -8.297e-7, -4.456e-7, 3.841e-7
0.458, -8.306e-7, -4.450e-7, 3.857e-7
0.457, -8.319e-7, -4.459e-7, 3.860e-7
0.456, -8.300e-7, -4.447e-7, 3.854e-7
0.455, -8.322e-7, -4.468e-7, 3.854e-7
0.454, -8.325e-7, -4.462e-7, 3.863e-7
0.453, -8.297e-7, -4.453e-7, 3.844e-7
0.452, -8.328e-7, -4.480e-7, 3.848e-7
0.451, -8.328e-7, -4.456e-7, 3.872e-7
0.450, -8.349e-7, -4.483e-7, 3.866e-7
0.449, -8.340e-7, -4.462e-7, 3.878e-7
0.448, -8.322e-7, -4.468e-7, 3.854e-7
0.447, -8.334e-7, -4.483e-7, 3.851e-7
0.446, -8.343e-7, -4.471e-7, 3.872e-7
0.445, -8.316e-7, -4.465e-7, 3.851e-7
0.444, -8.364e-7, -4.505e-7, 3.860e-7
0.443, -8.352e-7, -4.486e-7, 3.866e-7
0.442, -8.349e-7, -4.483e-7, 3.866e-7
0.441, -8.361e-7, -4.499e-7, 3.863e-7
0.440, -8.352e-7, -4.477e-7, 3.875e-7
0.439, -8.337e-7, -4.495e-7, 3.841e-7
0.438, -8.349e-7, -4.508e-7, 3.841e-7
0.437, -8.361e-7, -4.477e-7, 3.884e-7
0.436, -8.361e-7, -4.505e-7, 3.857e-7
0.435, -8.377e-7, -4.520e-7, 3.857e-7
0.434, -8.374e-7, -4.492e-7, 3.881e-7
0.433, -8.361e-7, -4.508e-7, 3.854e-7
0.432, -8.377e-7, -4.520e-7, 3.857e-7
0.431, -8.352e-7, -4.486e-7, 3.866e-7
0.430, -8.377e-7, -4.520e-7, 3.857e-7
0.429, -8.389e-7, -4.517e-7, 3.872e-7
0.428, -8.416e-7, -4.523e-7, 3.893e-7
0.427, -8.395e-7, -4.532e-7, 3.863e-7
0.426, -8.410e-7, -4.532e-7, 3.878e-7
0.425, -8.416e-7, -4.532e-7, 3.884e-7
0.424, -8.410e-7, -4.550e-7, 3.860e-7
0.423, -8.395e-7, -4.535e-7, 3.860e-7
0.422, -8.401e-7, -4.526e-7, 3.875e-7
0.421, -8.407e-7, -4.544e-7, 3.863e-7
0.420, -8.404e-7, -4.544e-7, 3.860e-7
0.419, -8.407e-7, -4.535e-7, 3.872e-7
0.418, -8.410e-7, -4.550e-7, 3.860e-7
0.417, -8.419e-7, -4.547e-7, 3.872e-7
0.416, -8.410e-7, -4.541e-7, 3.869e-7
0.415, -8.428e-7, -4.557e-7, 3.872e-7
0.414, -8.435e-7, -4.557e-7, 3.878e-7
0.413, -8.404e-7, -4.547e-7, 3.857e-7
0.412, -8.435e-7, -4.572e-7, 3.863e-7
0.411, -8.438e-7, -4.563e-7, 3.875e-7
0.410, -8.428e-7, -4.550e-7, 3.878e-7
0.409, -8.444e-7, -4.566e-7, 3.878e-7
0.408, -8.441e-7, -4.566e-7, 3.875e-7
0.407, -8.422e-7, -4.566e-7, 3.857e-7
0.406, -8.456e-7, -4.575e-7, 3.881e-7
0.405, -8.456e-7, -4.581e-7, 3.875e-7
0.404, -8.456e-7, -4.572e-7, 3.884e-7
0.403, -8.453e-7, -4.590e-7, 3.863e-7
0.402, -8.441e-7, -4.575e-7, 3.866e-7
0.401, -8.453e-7, -4.584e-7, 3.869e-7
0.400, -8.459e-7, -4.575e-7, 3.884e-7
0.399, -8.471e-7, -4.587e-7, 3.884e-7
0.398, -8.465e-7, -4.599e-7, 3.866e-7
0.397, -8.474e-7, -4.593e-7, 3.881e-7
0.396, -8.480e-7, -4.599e-7, 3.881e-7
0.395, -8.474e-7, -4.611e-7, 3.863e-7
0.394, -8.483e-7, -4.596e-7, 3.887e-7
0.393, -8.468e-7, -4.596e-7, 3.872e-7
0.392, -8.523e-7, -4.636e-7, 3.887e-7
0.391, -8.490e-7, -4.608e-7, 3.881e-7
0.390, -8.480e-7, -4.618e-7, 3.863e-7
0.389, -8.508e-7, -4.633e-7, 3.875e-7
0.388, -8.502e-7, -4.621e-7, 3.881e-7
0.387, -8.508e-7, -4.624e-7, 3.884e-7
0.386, -8.535e-7, -4.642e-7, 3.893e-7
0.385, -8.505e-7, -4.618e-7, 3.887e-7
0.384, -8.520e-7, -4.642e-7, 3.878e-7
0.383, -8.538e-7, -4.648e-7, 3.890e-7
0.382, -8.541e-7, -4.642e-7, 3.899e-7
0.381, -8.541e-7, -4.651e-7, 3.890e-7
0.380, -8.560e-7, -4.651e-7, 3.909e-7
0.379, -8.547e-7, -4.645e-7, 3.902e-7
0.378, -8.554e-7, -4.672e-7, 3.881e-7
0.377, -8.578e-7, -4.672e-7, 3.906e-7
0.376, -8.560e-7, -4.657e-7, 3.902e-7
0.375, -8.541e-7, -4.663e-7, 3.878e-7
0.374, -8.587e-7, -4.676e-7, 3.912e-7
0.373, -8.572e-7, -4.663e-7, 3.909e-7
0.372, -8.596e-7, -4.691e-7, 3.906e-7
0.371, -8.593e-7, -4.682e-7, 3.912e-7
0.370, -8.596e-7, -4.682e-7, 3.915e-7
0.369, -8.609e-7, -4.709e-7, 3.899e-7
0.368, -8.627e-7, -4.706e-7, 3.921e-7
0.367, -8.599e-7, -4.685e-7, 3.915e-7
0.366, -8.624e-7, -4.712e-7, 3.912e-7
0.365, -8.624e-7, -4.706e-7, 3.918e-7
0.364, -8.618e-7, -4.709e-7, 3.909e-7
0.363, -8.630e-7, -4.715e-7, 3.915e-7
0.362, -8.624e-7, -4.703e-7, 3.921e-7
0.361, -8.627e-7, -4.706e-7, 3.921e-7
0.360, -8.630e-7, -4.724e-7, 3.906e-7
0.359, -8.651e-7, -4.715e-7, 3.936e-7
0.358, -8.648e-7, -4.727e-7, 3.921e-7
0.357, -8.654e-7, -4.730e-7, 3.924e-7
0.356, -8.660e-7, -4.730e-7, 3.930e-7
0.355, -8.666e-7, -4.734e-7, 3.933e-7
0.354, -8.688e-7, -4.755e-7, 3.933e-7
0.353, -8.688e-7, -4.749e-7, 3.939e-7
0.352, -8.712e-7, -4.770e-7, 3.942e-7
0.351, -8.721e-7, -4.767e-7, 3.954e-7
0.350, -8.706e-7, -4.770e-7, 3.936e-7
0.349, -8.724e-7, -4.779e-7, 3.945e-7
0.348, -8.724e-7, -4.782e-7, 3.942e-7
0.347, -8.697e-7, -4.764e-7, 3.933e-7
0.346, -8.746e-7, -4.795e-7, 3.951e-7
0.345, -8.740e-7, -4.782e-7, 3.957e-7
0.344, -8.718e-7, -4.773e-7, 3.945e-7
0.343, -8.749e-7, -4.795e-7, 3.954e-7
0.342, -8.746e-7, -4.804e-7, 3.942e-7
0.341, -8.746e-7, -4.798e-7, 3.948e-7
0.340, -8.795e-7, -4.819e-7, 3.976e-7
0.339, -8.773e-7, -4.807e-7, 3.967e-7
0.338, -8.779e-7, -4.822e-7, 3.957e-7
0.337, -8.804e-7, -4.828e-7, 3.976e-7
0.336, -8.776e-7, -4.807e-7, 3.970e-7
0.335, -8.789e-7, -4.825e-7, 3.963e-7
0.334, -8.798e-7, -4.834e-7, 3.963e-7
0.333, -8.798e-7, -4.834e-7, 3.963e-7
0.332, -8.804e-7, -4.843e-7, 3.960e-7
0.331, -8.819e-7, -4.840e-7, 3.979e-7
0.330, -8.834e-7, -4.843e-7, 3.991e-7
0.329, -8.834e-7, -4.865e-7, 3.970e-7
0.328, -8.843e-7, -4.846e-7, 3.997e-7
0.327, -8.831e-7, -4.853e-7, 3.979e-7
0.326, -8.847e-7, -4.871e-7, 3.976e-7
0.325, -8.850e-7, -4.868e-7, 3.982e-7
0.324, -8.850e-7, -4.859e-7, 3.991e-7
0.323, -8.877e-7, -4.889e-7, 3.988e-7
0.322, -8.859e-7, -4.862e-7, 3.997e-7
0.321, -8.862e-7, -4.892e-7, 3.970e-7
0.320, -8.905e-7, -4.904e-7, 4.000e-7
0.319, -8.889e-7, -4.880e-7, 4.009e-7
0.318, -8.880e-7, -4.889e-7, 3.991e-7
0.317, -8.908e-7, -4.904e-7, 4.003e-7
0.316, -8.917e-7, -4.889e-7, 4.028e-7
0.315, -8.877e-7, -4.904e-7, 3.973e-7
0.314, -8.917e-7, -4.923e-7, 3.994e-7
0.313, -8.920e-7, -4.904e-7, 4.015e-7
0.312, -8.901e-7, -4.917e-7, 3.985e-7
0.311, -8.932e-7, -4.935e-7, 3.997e-7
0.310, -8.950e-7, -4.929e-7, 4.021e-7
0.309, -8.944e-7, -4.935e-7, 4.009e-7
0.308, -8.966e-7, -4.950e-7, 4.015e-7
0.307, -8.975e-7, -4.944e-7, 4.031e-7
0.306, -8.956e-7, -4.953e-7, 4.003e-7
0.305, -8.962e-7, -4.950e-7, 4.012e-7
0.304, -8.969e-7, -4.947e-7, 4.021e-7
0.303, -8.966e-7, -4.950e-7, 4.015e-7
0.302, -8.996e-7, -4.965e-7, 4.031e-7
0.301, -8.999e-7, -4.972e-7, 4.028e-7
0.300, -8.999e-7, -4.975e-7, 4.025e-7
0.299, -8.999e-7, -4.975e-7, 4.025e-7
0.298, -8.984e-7, -4.959e-7, 4.025e-7
0.297, -9.017e-7, -4.993e-7, 4.025e-7
0.296, -9.020e-7, -4.993e-7, 4.028e-7
0.295, -9.020e-7, -4.987e-7, 4.034e-7
0.294, -9.042e-7, -5.005e-7, 4.037e-7
0.293, -9.014e-7, -4.993e-7, 4.021e-7
0.292, -9.042e-7, -5.002e-7, 4.040e-7
0.291, -9.039e-7, -4.999e-7, 4.040e-7
0.290, -9.048e-7, -5.005e-7, 4.043e-7
0.289, -9.054e-7, -5.026e-7, 4.028e-7
0.288, -9.051e-7, -5.008e-7, 4.043e-7
0.287, -9.042e-7, -5.011e-7, 4.031e-7
0.286, -9.072e-7, -5.039e-7, 4.034e-7
0.285, -9.082e-7, -5.030e-7, 4.052e-7
0.284, -9.082e-7, -5.033e-7, 4.049e-7
0.283, -9.109e-7, -5.057e-7, 4.052e-7
0.282, -9.106e-7, -5.045e-7, 4.061e-7
0.281, -9.094e-7, -5.039e-7, 4.055e-7
0.280, -9.115e-7, -5.060e-7, 4.055e-7
0.279, -9.121e-7, -5.066e-7, 4.055e-7
0.278, -9.127e-7, -5.078e-7, 4.049e-7
0.277, -9.143e-7, -5.084e-7, 4.058e-7
0.276, -9.161e-7, -5.088e-7, 4.073e-7
0.275, -9.133e-7, -5.072e-7, 4.061e-7
0.274, -9.155e-7, -5.100e-7, 4.055e-7
0.273, -9.179e-7, -5.088e-7, 4.092e-7
0.272, -9.170e-7, -5.094e-7, 4.076e-7
0.271, -9.191e-7, -5.121e-7, 4.070e-7
0.270, -9.201e-7, -5.112e-7, 4.089e-7
0.269, -9.176e-7, -5.109e-7, 4.067e-7
0.268, -9.222e-7, -5.139e-7, 4.082e-7
0.267, -9.219e-7, -5.118e-7, 4.101e-7
0.266, -9.213e-7, -5.139e-7, 4.073e-7
0.265, -9.240e-7, -5.149e-7, 4.092e-7
0.264, -9.252e-7, -5.145e-7, 4.107e-7
0.263, -9.258e-7, -5.173e-7, 4.086e-7
0.262, -9.274e-7, -5.161e-7, 4.113e-7
0.261, -9.265e-7, -5.161e-7, 4.104e-7
0.260, -9.274e-7, -5.182e-7, 4.092e-7
0.259, -9.313e-7, -5.197e-7, 4.116e-7
0.258, -9.289e-7, -5.173e-7, 4.116e-7
0.257, -9.316e-7, -5.210e-7, 4.107e-7
0.256, -9.316e-7, -5.194e-7, 4.122e-7
0.255, -9.326e-7, -5.207e-7, 4.119e-7
0.254, -9.332e-7, -5.231e-7, 4.101e-7
0.253, -9.359e-7, -5.228e-7, 4.131e-7
0.252, -9.341e-7, -5.213e-7, 4.128e-7
0.251, -9.384e-7, -5.255e-7, 4.128e-7
0.250, -9.387e-7, -5.249e-7, 4.137e-7
0.249, -9.365e-7, -5.240e-7, 4.125e-7
0.248, -9.393e-7, -5.265e-7, 4.128e-7
0.247, -9.420e-7, -5.271e-7, 4.150e-7
0.246, -9.426e-7, -5.268e-7, 4.159e-7
0.245, -9.448e-7, -5.295e-7, 4.153e-7
0.244, -9.448e-7, -5.283e-7, 4.165e-7
0.243, -9.457e-7, -5.295e-7, 4.162e-7
0.242, -9.466e-7, -5.310e-7, 4.156e-7
0.241, -9.481e-7, -5.307e-7, 4.174e-7
0.240, -9.478e-7, -5.310e-7, 4.168e-7
0.239, -9.500e-7, -5.322e-7, 4.177e-7
0.238, -9.493e-7, -5.313e-7, 4.180e-7
0.237, -9.524e-7, -5.350e-7, 4.174e-7
0.236, -9.542e-7, -5.344e-7, 4.198e-7
0.235, -9.539e-7, -5.350e-7, 4.189e-7
0.234, -9.564e-7, -5.380e-7, 4.183e-7
0.233, -9.558e-7, -5.362e-7, 4.195e-7
0.232, -9.582e-7, -5.377e-7, 4.205e-7
0.231, -9.585e-7, -5.396e-7, 4.189e-7
0.230, -9.609e-7, -5.393e-7, 4.217e-7
0.229, -9.616e-7, -5.405e-7, 4.211e-7
0.228, -9.646e-7, -5.420e-7, 4.226e-7
0.227, -9.655e-7, -5.420e-7, 4.235e-7
0.226, -9.658e-7, -5.426e-7, 4.232e-7
0.225, -9.683e-7, -5.457e-7, 4.226e-7
0.224, -9.683e-7, -5.441e-7, 4.241e-7
0.223, -9.670e-7, -5.448e-7, 4.223e-7
0.222, -9.713e-7, -5.466e-7, 4.247e-7
0.221, -9.728e-7, -5.469e-7, 4.259e-7
0.220, -9.713e-7, -5.481e-7, 4.232e-7
0.219, -9.759e-7, -5.506e-7, 4.253e-7
0.218, -9.750e-7, -5.499e-7, 4.250e-7
0.217, -9.777e-7, -5.521e-7, 4.256e-7
0.216, -9.777e-7, -5.509e-7, 4.269e-7
0.215, -9.780e-7, -5.512e-7, 4.269e-7
0.214, -9.805e-7, -5.545e-7, 4.259e-7
0.213, -9.838e-7, -5.545e-7, 4.293e-7
0.212, -9.863e-7, -5.557e-7, 4.305e-7
0.211, -9.847e-7, -5.579e-7, 4.269e-7
0.210, -9.869e-7, -5.573e-7, 4.296e-7
0.209, -9.884e-7, -5.579e-7, 4.305e-7
0.208, -9.890e-7, -5.609e-7, 4.281e-7
0.207, -9.905e-7, -5.594e-7, 4.311e-7
0.206, -9.893e-7, -5.597e-7, 4.296e-7
0.205, -9.912e-7, -5.612e-7, 4.299e-7
0.204, -9.960e-7, -5.634e-7, 4.327e-7
0.203, -9.960e-7, -5.640e-7, 4.321e-7
0.202, -9.982e-7, -5.661e-7, 4.321e-7
0.201, -9.976e-7, -5.640e-7, 4.336e-7
0.200, -9.994e-7, -5.667e-7, 4.327e-7
0.199, -1.002e-6, -5.680e-7, 4.345e-7
0.198, -1.002e-6, -5.676e-7, 4.345e-7
0.197, -1.003e-6, -5.695e-7, 4.339e-7
0.196, -1.006e-6, -5.710e-7, 4.351e-7
0.195, -1.008e-6, -5.701e-7, 4.375e-7
0.194, -1.008e-6, -5.728e-7, 4.354e-7
0.193, -1.011e-6, -5.744e-7, 4.369e-7
0.192, -1.011e-6, -5.731e-7, 4.382e-7
0.191, -1.011e-6, -5.750e-7, 4.357e-7
0.190, -1.016e-6, -5.771e-7, 4.391e-7
0.189, -1.016e-6, -5.762e-7, 4.394e-7
0.188, -1.016e-6, -5.783e-7, 4.375e-7
0.187, -1.022e-6, -5.808e-7, 4.409e-7
0.186, -1.020e-6, -5.786e-7, 4.409e-7
0.185, -1.022e-6, -5.811e-7, 4.406e-7
0.184, -1.025e-6, -5.829e-7, 4.418e-7
0.183, -1.022e-6, -5.808e-7, 4.415e-7
0.182, -1.024e-6, -5.832e-7, 4.412e-7
0.181, -1.027e-6, -5.850e-7, 4.418e-7
0.180, -1.029e-6, -5.847e-7, 4.443e-7
0.179, -1.030e-6, -5.866e-7, 4.430e-7
0.178, -1.030e-6, -5.869e-7, 4.433e-7
0.177, -1.030e-6, -5.869e-7, 4.433e-7
0.176, -1.033e-6, -5.893e-7, 4.436e-7
0.175, -1.034e-6, -5.896e-7, 4.449e-7
0.174, -1.038e-6, -5.918e-7, 4.464e-7
0.173, -1.038e-6, -5.933e-7, 4.449e-7
0.172, -1.040e-6, -5.933e-7, 4.467e-7
0.171, -1.041e-6, -5.951e-7, 4.458e-7
0.170, -1.046e-6, -5.969e-7, 4.488e-7
0.169, -1.047e-6, -5.969e-7, 4.501e-7
0.168, -1.046e-6, -5.982e-7, 4.482e-7
0.167, -1.051e-6, -5.994e-7, 4.513e-7
0.166, -1.049e-6, -5.991e-7, 4.501e-7
0.165, -1.049e-6, -6.009e-7, 4.485e-7
0.164, -1.055e-6, -6.027e-7, 4.519e-7
0.163, -1.053e-6, -6.018e-7, 4.513e-7
0.162, -1.056e-6, -6.037e-7, 4.525e-7
0.161, -1.057e-6, -6.046e-7, 4.528e-7
0.160, -1.059e-6, -6.064e-7, 4.528e-7
0.159, -1.061e-6, -6.073e-7, 4.534e-7
0.158, -1.063e-6, -6.073e-7, 4.562e-7
0.157, -1.062e-6, -6.088e-7, 4.528e-7
0.156, -1.065e-6, -6.104e-7, 4.549e-7
0.155, -1.068e-6, -6.107e-7, 4.571e-7
0.154, -1.068e-6, -6.110e-7, 4.568e-7
0.153, -1.072e-6, -6.137e-7, 4.586e-7
0.152, -1.073e-6, -6.131e-7, 4.595e-7
0.151, -1.074e-6, -6.153e-7, 4.583e-7
0.150, -1.077e-6, -6.165e-7, 4.601e-7
0.149, -1.079e-6, -6.165e-7, 4.629e-7
0.148, -1.079e-6, -6.189e-7, 4.604e-7
0.147, -1.082e-6, -6.198e-7, 4.626e-7
0.146, -1.085e-6, -6.210e-7, 4.638e-7
0.145, -1.085e-6, -6.226e-7, 4.629e-7
0.144, -1.088e-6, -6.244e-7, 4.638e-7
0.143, -1.089e-6, -6.238e-7, 4.650e-7
0.142, -1.091e-6, -6.272e-7, 4.641e-7
0.141, -1.092e-6, -6.262e-7, 4.659e-7
0.140, -1.094e-6, -6.259e-7, 4.678e-7
0.139, -1.096e-6, -6.293e-7, 4.665e-7
0.138, -1.098e-6, -6.296e-7, 4.684e-7
0.137, -1.098e-6, -6.299e-7, 4.684e-7
0.136, -1.102e-6, -6.330e-7, 4.687e-7
0.135, -1.104e-6, -6.326e-7, 4.717e-7
0.134, -1.103e-6, -6.320e-7, 4.711e-7
0.133, -1.108e-6, -6.369e-7, 4.708e-7
0.132, -1.108e-6, -6.351e-7, 4.729e-7
0.131, -1.109e-6, -6.360e-7, 4.732e-7
0.130, -1.112e-6, -6.391e-7, 4.729e-7
0.129, -1.116e-6, -6.397e-7, 4.760e-7
0.128, -1.114e-6, -6.387e-7, 4.751e-7
0.127, -1.116e-6, -6.421e-7, 4.736e-7
0.126, -1.121e-6, -6.421e-7, 4.787e-7
0.125, -1.121e-6, -6.427e-7, 4.778e-7
0.124, -1.123e-6, -6.442e-7, 4.784e-7
0.123, -1.125e-6, -6.449e-7, 4.806e-7
0.122, -1.125e-6, -6.455e-7, 4.793e-7
0.121, -1.129e-6, -6.476e-7, 4.812e-7
0.120, -1.131e-6, -6.482e-7, 4.824e-7
0.119, -1.132e-6, -6.500e-7, 4.821e-7
0.118, -1.136e-6, -6.513e-7, 4.851e-7
0.117, -1.135e-6, -6.510e-7, 4.845e-7
0.116, -1.137e-6, -6.513e-7, 4.855e-7
0.115, -1.142e-6, -6.540e-7, 4.876e-7
0.114, -1.142e-6, -6.546e-7, 4.870e-7
0.113, -1.144e-6, -6.564e-7, 4.879e-7
0.112, -1.144e-6, -6.552e-7, 4.888e-7
0.111, -1.145e-6, -6.568e-7, 4.882e-7
0.110, -1.150e-6, -6.589e-7, 4.916e-7
0.109, -1.148e-6, -6.577e-7, 4.906e-7
0.108, -1.151e-6, -6.601e-7, 4.906e-7
0.107, -1.154e-6, -6.622e-7, 4.922e-7
0.106, -1.155e-6, -6.622e-7, 4.931e-7
0.105, -1.157e-6, -6.635e-7, 4.937e-7
0.104, -1.161e-6, -6.647e-7, 4.958e-7
0.103, -1.163e-6, -6.653e-7, 4.977e-7
0.102, -1.164e-6, -6.665e-7, 4.970e-7
0.101, -1.167e-6, -6.671e-7, 4.998e-7
0.100, -1.164e-6, -6.659e-7, 4.983e-7
0.099, -1.168e-6, -6.683e-7, 4.992e-7
0.098, -1.170e-6, -6.690e-7, 5.010e-7
0.097, -1.168e-6, -6.687e-7, 4.998e-7
0.096, -1.171e-6, -6.705e-7, 5.004e-7
0.095, -1.174e-6, -6.717e-7, 5.019e-7
0.094, -1.176e-6, -6.723e-7, 5.038e-7
0.093, -1.177e-6, -6.735e-7, 5.038e-7
0.092, -1.180e-6, -6.732e-7, 5.065e-7
0.091, -1.179e-6, -6.738e-7, 5.056e-7
0.090, -1.179e-6, -6.754e-7, 5.041e-7
0.089, -1.182e-6, -6.757e-7, 5.062e-7
0.088, -1.182e-6, -6.763e-7, 5.062e-7
0.087, -1.187e-6, -6.784e-7, 5.083e-7
0.086, -1.190e-6, -6.784e-7, 5.111e-7
0.085, -1.186e-6, -6.766e-7, 5.099e-7
0.084, -1.188e-6, -6.781e-7, 5.102e-7
0.083, -1.192e-6, -6.799e-7, 5.123e-7
0.082, -1.191e-6, -6.803e-7, 5.105e-7
0.081, -1.194e-6, -6.824e-7, 5.120e-7
0.080, -1.195e-6, -6.803e-7, 5.147e-7
0.079, -1.195e-6, -6.812e-7, 5.141e-7
0.078, -1.198e-6, -6.830e-7, 5.151e-7
0.077, -1.198e-6, -6.806e-7, 5.175e-7
0.076, -1.199e-6, -6.827e-7, 5.160e-7
0.075, -1.201e-6, -6.839e-7, 5.169e-7
0.074, -1.200e-6, -6.821e-7, 5.181e-7
0.073, -1.202e-6, -6.848e-7, 5.172e-7
0.072, -1.207e-6, -6.867e-7, 5.202e-7
0.071, -1.207e-6, -6.854e-7, 5.215e-7
0.070, -1.207e-6, -6.867e-7, 5.202e-7
0.069, -1.210e-6, -6.876e-7, 5.224e-7
0.068, -1.209e-6, -6.857e-7, 5.230e-7
0.067, -1.209e-6, -6.867e-7, 5.224e-7
0.066, -1.212e-6, -6.882e-7, 5.242e-7
0.065, -1.212e-6, -6.867e-7, 5.251e-7
0.064, -1.213e-6, -6.885e-7, 5.242e-7
0.063, -1.215e-6, -6.891e-7, 5.254e-7
0.062, -1.214e-6, -6.876e-7, 5.263e-7
0.061, -1.215e-6, -6.888e-7, 5.260e-7
0.060, -1.217e-6, -6.888e-7, 5.285e-7
0.059, -1.216e-6, -6.888e-7, 5.276e-7
0.058, -1.215e-6, -6.885e-7, 5.270e-7
0.057, -1.220e-6, -6.897e-7, 5.300e-7
0.056, -1.219e-6, -6.891e-7, 5.303e-7
0.055, -1.218e-6, -6.885e-7, 5.291e-7
0.054, -1.223e-6, -6.900e-7, 5.328e-7
0.053, -1.221e-6, -6.894e-7, 5.315e-7
0.052, -1.221e-6, -6.897e-7, 5.309e-7
0.051, -1.222e-6, -6.888e-7, 5.331e-7
0.050, -1.223e-6, -6.903e-7, 5.328e-7
0.049, -1.224e-6, -6.903e-7, 5.340e-7
0.048, -1.225e-6, -6.894e-7, 5.352e-7
0.047, -1.225e-6, -6.903e-7, 5.349e-7
0.046, -1.226e-6, -6.906e-7, 5.352e-7
0.045, -1.227e-6, -6.894e-7, 5.376e-7
0.044, -1.227e-6, -6.900e-7, 5.370e-7
0.043, -1.227e-6, -6.894e-7, 5.379e-7
0.042, -1.229e-6, -6.909e-7, 5.382e-7
0.041, -1.229e-6, -6.909e-7, 5.385e-7
0.040, -1.229e-6, -6.894e-7, 5.392e-7
0.039, -1.229e-6, -6.900e-7, 5.395e-7
0.038, -1.231e-6, -6.909e-7, 5.398e-7
0.037, -1.230e-6, -6.897e-7, 5.401e-7
0.036, -1.229e-6, -6.891e-7, 5.401e-7
0.035, -1.232e-6, -6.909e-7, 5.407e-7
0.034, -1.233e-6, -6.897e-7, 5.428e-7
0.033, -1.229e-6, -6.891e-7, 5.404e-7
0.032, -1.231e-6, -6.885e-7, 5.425e-7
0.031, -1.231e-6, -6.882e-7, 5.431e-7
0.030, -1.229e-6, -6.870e-7, 5.425e-7
0.029, -1.231e-6, -6.876e-7, 5.434e-7
0.028, -1.234e-6, -6.876e-7, 5.462e-7
0.027, -1.231e-6, -6.870e-7, 5.440e-7
0.026, -1.235e-6, -6.876e-7, 5.474e-7
0.025, -1.233e-6, -6.864e-7, 5.468e-7
0.024, -1.231e-6, -6.870e-7, 5.440e-7
0.023, -1.233e-6, -6.864e-7, 5.471e-7
0.022, -1.231e-6, -6.845e-7, 5.462e-7
0.021, -1.232e-6, -6.860e-7, 5.462e-7
0.020, -1.234e-6, -6.857e-7, 5.480e-7
0.019, -1.232e-6, -6.836e-7, 5.480e-7
0.018, -1.232e-6, -6.854e-7, 5.468e-7
0.017, -1.234e-6, -6.839e-7, 5.498e-7
0.016, -1.231e-6, -6.827e-7, 5.486e-7
0.015, -1.233e-6, -6.848e-7, 5.477e-7
0.014, -1.233e-6, -6.824e-7, 5.501e-7
0.013, -1.232e-6, -6.818e-7, 5.498e-7
0.012, -1.233e-6, -6.839e-7, 5.492e-7
0.011, -1.232e-6, -6.803e-7, 5.520e-7
0.010, -1.229e-6, -6.790e-7, 5.498e-7
0.009, -1.230e-6, -6.806e-7, 5.498e-7
0.008, -1.231e-6, -6.796e-7, 5.514e-7
0.007, -1.227e-6, -6.772e-7, 5.498e-7
0.006, -1.230e-6, -6.796e-7, 5.501e-7
0.005, -1.229e-6, -6.772e-7, 5.514e-7
0.004, -1.228e-6, -6.769e-7, 5.511e-7
0.003, -1.228e-6, -6.781e-7, 5.501e-7
0.002, -1.230e-6, -6.763e-7, 5.541e-7
0.001, -1.226e-6, -6.757e-7, 5.505e-7
0.000, -1.228e-6, -6.763e-7, 5.517e-7
-0.001, -1.228e-6, -6.757e-7, 5.520e-7
-0.002, -1.226e-6, -6.745e-7, 5.520e-7
-0.003, -1.225e-6, -6.726e-7, 5.520e-7
-0.004, -1.225e-6, -6.717e-7, 5.532e-7
-0.005, -1.224e-6, -6.720e-7, 5.523e-7
-0.006, -1.226e-6, -6.717e-7, 5.538e-7
-0.007, -1.225e-6, -6.711e-7, 5.535e-7
-0.008, -1.224e-6, -6.708e-7, 5.532e-7
-0.009, -1.223e-6, -6.693e-7, 5.541e-7
-0.010, -1.223e-6, -6.702e-7, 5.532e-7
-0.011, -1.222e-6, -6.690e-7, 5.529e-7
-0.012, -1.220e-6, -6.662e-7, 5.541e-7
-0.013, -1.219e-6, -6.662e-7, 5.529e-7
-0.014, -1.218e-6, -6.659e-7, 5.520e-7
-0.015, -1.218e-6, -6.647e-7, 5.532e-7
-0.016, -1.217e-6, -6.638e-7, 5.529e-7
-0.017, -1.218e-6, -6.647e-7, 5.529e-7
-0.018, -1.215e-6, -6.626e-7, 5.526e-7
-0.019, -1.215e-6, -6.622e-7, 5.529e-7
-0.020, -1.215e-6, -6.626e-7, 5.529e-7
-0.021, -1.211e-6, -6.595e-7, 5.514e-7
-0.022, -1.213e-6, -6.610e-7, 5.523e-7
-0.023, -1.212e-6, -6.595e-7, 5.523e-7
-0.024, -1.209e-6, -6.571e-7, 5.517e-7
-0.025, -1.209e-6, -6.574e-7, 5.520e-7
-0.026, -1.207e-6, -6.549e-7, 5.523e-7
-0.027, -1.206e-6, -6.540e-7, 5.517e-7
-0.028, -1.206e-6, -6.552e-7, 5.504e-7
-0.029, -1.208e-6, -6.549e-7, 5.526e-7
-0.030, -1.204e-6, -6.528e-7, 5.517e-7
-0.031, -1.203e-6, -6.534e-7, 5.492e-7
-0.032, -1.205e-6, -6.528e-7, 5.520e-7
-0.033, -1.200e-6, -6.500e-7, 5.501e-7
-0.034, -1.201e-6, -6.513e-7, 5.495e-7
-0.035, -1.201e-6, -6.494e-7, 5.514e-7
-0.036, -1.197e-6, -6.473e-7, 5.495e-7
-0.037, -1.197e-6, -6.494e-7, 5.477e-7
-0.038, -1.195e-6, -6.461e-7, 5.486e-7
-0.039, -1.193e-6, -6.458e-7, 5.471e-7
-0.040, -1.194e-6, -6.458e-7, 5.486e-7
-0.041, -1.191e-6, -6.424e-7, 5.489e-7
-0.042, -1.189e-6, -6.427e-7, 5.462e-7
-0.043, -1.190e-6, -6.430e-7, 5.471e-7
-0.044, -1.190e-6, -6.418e-7, 5.483e-7
-0.045, -1.186e-6, -6.403e-7, 5.459e-7
-0.046, -1.187e-6, -6.409e-7, 5.459e-7
-0.047, -1.185e-6, -6.375e-7, 5.471e-7
-0.048, -1.181e-6, -6.378e-7, 5.431e-7
-0.049, -1.183e-6, -6.378e-7, 5.453e-7
-0.050, -1.178e-6, -6.348e-7, 5.434e-7
-0.051, -1.177e-6, -6.354e-7, 5.419e-7
-0.052, -1.178e-6, -6.354e-7, 5.425e-7
-0.053, -1.174e-6, -6.311e-7, 5.431e-7
-0.054, -1.174e-6, -6.320e-7, 5.419e-7
-0.055, -1.175e-6, -6.330e-7, 5.422e-7
-0.056, -1.173e-6, -6.311e-7, 5.419e-7
-0.057, -1.170e-6, -6.299e-7, 5.401e-7
-0.058, -1.171e-6, -6.293e-7, 5.413e-7
-0.059, -1.166e-6, -6.275e-7, 5.389e-7
-0.060, -1.167e-6, -6.268e-7, 5.398e-7
-0.061, -1.168e-6, -6.278e-7, 5.404e-7
-0.062, -1.163e-6, -6.247e-7, 5.382e-7
-0.063, -1.162e-6, -6.256e-7, 5.367e-7
-0.064, -1.164e-6, -6.256e-7, 5.382e-7
-0.065, -1.161e-6, -6.238e-7, 5.376e-7
-0.066, -1.159e-6, -6.229e-7, 5.358e-7
-0.067, -1.158e-6, -6.220e-7, 5.361e-7
-0.068, -1.156e-6, -6.217e-7, 5.340e-7
-0.069, -1.156e-6, -6.201e-7, 5.361e-7
-0.070, -1.153e-6, -6.189e-7, 5.346e-7
-0.071, -1.153e-6, -6.201e-7, 5.334e-7
-0.072, -1.151e-6, -6.177e-7, 5.337e-7
-0.073, -1.150e-6, -6.174e-7, 5.331e-7
-0.074, -1.146e-6, -6.165e-7, 5.300e-7
-0.075, -1.146e-6, -6.146e-7, 5.315e-7
-0.076, -1.146e-6, -6.156e-7, 5.309e-7
-0.077, -1.145e-6, -6.149e-7, 5.303e-7
-0.078, -1.145e-6, -6.140e-7, 5.306e-7
-0.079, -1.141e-6, -6.125e-7, 5.285e-7
-0.080, -1.143e-6, -6.125e-7, 5.300e-7
-0.081, -1.142e-6, -6.119e-7, 5.303e-7
-0.082, -1.139e-6, -6.113e-7, 5.282e-7
-0.083, -1.139e-6, -6.110e-7, 5.279e-7
-0.084, -1.140e-6, -6.119e-7, 5.279e-7
-0.085, -1.136e-6, -6.098e-7, 5.263e-7
-0.086, -1.136e-6, -6.104e-7, 5.260e-7
-0.087, -1.134e-6, -6.070e-7, 5.273e-7
-0.088, -1.133e-6, -6.082e-7, 5.245e-7
-0.089, -1.132e-6, -6.073e-7, 5.245e-7
-0.090, -1.129e-6, -6.049e-7, 5.242e-7
-0.091, -1.131e-6, -6.061e-7, 5.245e-7
-0.092, -1.129e-6, -6.058e-7, 5.230e-7
-0.093, -1.128e-6, -6.043e-7, 5.239e-7
-0.094, -1.126e-6, -6.049e-7, 5.215e-7
-0.095, -1.125e-6, -6.040e-7, 5.212e-7
-0.096, -1.124e-6, -6.021e-7, 5.218e-7
-0.097, -1.121e-6, -6.024e-7, 5.187e-7
-0.098, -1.123e-6, -6.037e-7, 5.196e-7
-0.099, -1.121e-6, -6.006e-7, 5.202e-7
-0.100, -1.119e-6, -6.015e-7, 5.175e-7
-0.101, -1.120e-6, -6.012e-7, 5.187e-7
-0.102, -1.120e-6, -6.006e-7, 5.196e-7
-0.103, -1.117e-6, -6.009e-7, 5.157e-7
-0.104, -1.118e-6, -5.994e-7, 5.187e-7
-0.105, -1.115e-6, -5.991e-7, 5.157e-7
-0.106, -1.114e-6, -5.997e-7, 5.144e-7
-0.107, -1.114e-6, -5.982e-7, 5.163e-7
-0.108, -1.111e-6, -5.963e-7, 5.151e-7
-0.109, -1.112e-6, -5.985e-7, 5.138e-7
-0.110, -1.114e-6, -5.982e-7, 5.154e-7
-0.111, -1.110e-6, -5.960e-7, 5.135e-7
-0.112, -1.108e-6, -5.963e-7, 5.117e-7
-0.113, -1.112e-6, -5.960e-7, 5.157e-7
-0.114, -1.108e-6, -5.945e-7, 5.132e-7
-0.115, -1.109e-6, -5.966e-7, 5.120e-7
-0.116, -1.107e-6, -5.948e-7, 5.120e-7
-0.117, -1.105e-6, -5.939e-7, 5.108e-7
-0.118, -1.105e-6, -5.945e-7, 5.102e-7
-0.119, -1.107e-6, -5.976e-7, 5.099e-7
-0.120, -1.104e-6, -5.939e-7, 5.102e-7
-0.121, -1.105e-6, -5.939e-7, 5.108e-7
-0.122, -1.106e-6, -5.948e-7, 5.108e-7
-0.123, -1.101e-6, -5.918e-7, 5.093e-7
-0.124, -1.100e-6, -5.915e-7, 5.089e-7
-0.125, -1.100e-6, -5.921e-7, 5.083e-7
-0.126, -1.100e-6, -5.927e-7, 5.077e-7
-0.127, -1.099e-6, -5.918e-7, 5.074e-7
-0.128, -1.101e-6, -5.930e-7, 5.077e-7
-0.129, -1.096e-6, -5.911e-7, 5.053e-7
-0.130, -1.098e-6, -5.918e-7, 5.065e-7
-0.131, -1.099e-6, -5.924e-7, 5.068e-7
-0.132, -1.097e-6, -5.918e-7, 5.050e-7
-0.133, -1.096e-6, -5.908e-7, 5.050e-7
-0.134, -1.099e-6, -5.936e-7, 5.056e-7
-0.135, -1.096e-6, -5.915e-7, 5.050e-7
-0.136, -1.095e-6, -5.902e-7, 5.044e-7
-0.137, -1.095e-6, -5.899e-7, 5.047e-7
-0.138, -1.096e-6, -5.918e-7, 5.038e-7
-0.139, -1.095e-6, -5.896e-7, 5.056e-7
-0.140, -1.092e-6, -5.893e-7, 5.025e-7
-0.141, -1.091e-6, -5.881e-7, 5.028e-7
-0.142, -1.092e-6, -5.884e-7, 5.035e-7
-0.143, -1.090e-6, -5.887e-7, 5.013e-7
-0.144, -1.091e-6, -5.896e-7, 5.016e-7
-0.145, -1.090e-6, -5.884e-7, 5.016e-7
-0.146, -1.090e-6, -5.896e-7, 5.007e-7
-0.147, -1.090e-6, -5.878e-7, 5.019e-7
-0.148, -1.089e-6, -5.872e-7, 5.016e-7
-0.149, -1.088e-6, -5.887e-7, 4.992e-7
-0.150, -1.088e-6, -5.884e-7, 5.001e-7
-0.151, -1.087e-6, -5.866e-7, 5.001e-7
-0.152, -1.086e-6, -5.878e-7, 4.980e-7
-0.153, -1.086e-6, -5.875e-7, 4.983e-7
-0.154, -1.084e-6, -5.860e-7, 4.980e-7
-0.155, -1.085e-6, -5.875e-7, 4.980e-7
-0.156, -1.085e-6, -5.853e-7, 4.998e-7
-0.157, -1.084e-6, -5.860e-7, 4.977e-7
-0.158, -1.085e-6, -5.869e-7, 4.980e-7
-0.159, -1.082e-6, -5.835e-7, 4.986e-7
-0.160, -1.082e-6, -5.866e-7, 4.952e-7
-0.161, -1.082e-6, -5.853e-7, 4.970e-7
-0.162, -1.083e-6, -5.847e-7, 4.980e-7
-0.163, -1.080e-6, -5.850e-7, 4.952e-7
-0.164, -1.084e-6, -5.875e-7, 4.961e-7
-0.165, -1.082e-6, -5.844e-7, 4.980e-7
-0.166, -1.080e-6, -5.844e-7, 4.955e-7
-0.167, -1.082e-6, -5.866e-7, 4.952e-7
-0.168, -1.079e-6, -5.841e-7, 4.952e-7
-0.169, -1.078e-6, -5.835e-7, 4.943e-7
-0.170, -1.080e-6, -5.869e-7, 4.934e-7
-0.171, -1.078e-6, -5.835e-7, 4.940e-7
-0.172, -1.077e-6, -5.823e-7, 4.949e-7
-0.173, -1.078e-6, -5.835e-7, 4.946e-7
-0.174, -1.074e-6, -5.805e-7, 4.931e-7
-0.175, -1.074e-6, -5.805e-7, 4.931e-7
-0.176, -1.076e-6, -5.820e-7, 4.940e-7
-0.177, -1.075e-6, -5.823e-7, 4.925e-7
-0.178, -1.077e-6, -5.847e-7, 4.922e-7
-0.179, -1.076e-6, -5.826e-7, 4.931e-7
-0.180, -1.072e-6, -5.808e-7, 4.916e-7
-0.181, -1.073e-6, -5.802e-7, 4.928e-7
-0.182, -1.075e-6, -5.820e-7, 4.928e-7
-0.183, -1.071e-6, -5.792e-7, 4.919e-7
-0.184, -1.076e-6, -5.838e-7, 4.919e-7
-0.185, -1.071e-6, -5.805e-7, 4.909e-7
-0.186, -1.069e-6, -5.786e-7, 4.903e-7
-0.187, -1.071e-6, -5.802e-7, 4.909e-7
-0.188, -1.069e-6, -5.792e-7, 4.894e-7
-0.189, -1.072e-6, -5.820e-7, 4.900e-7
-0.190, -1.070e-6, -5.811e-7, 4.894e-7
-0.191, -1.070e-6, -5.796e-7, 4.900e-7
-0.192, -1.072e-6, -5.823e-7, 4.894e-7
-0.193, -1.068e-6, -5.771e-7, 4.909e-7
-0.194, -1.068e-6, -5.783e-7, 4.894e-7
-0.195, -1.067e-6, -5.774e-7, 4.894e-7
-0.196, -1.073e-6, -5.835e-7, 4.894e-7
-0.197, -1.067e-6, -5.789e-7, 4.885e-7
-0.198, -1.066e-6, -5.762e-7, 4.900e-7
-0.199, -1.069e-6, -5.796e-7, 4.897e-7
-0.200, -1.067e-6, -5.777e-7, 4.888e-7
-0.201, -1.065e-6, -5.765e-7, 4.885e-7
-0.202, -1.065e-6, -5.759e-7, 4.888e-7
-0.203, -1.062e-6, -5.753e-7, 4.870e-7
-0.204, -1.064e-6, -5.762e-7, 4.879e-7
-0.205, -1.070e-6, -5.811e-7, 4.885e-7
-0.206, -1.064e-6, -5.774e-7, 4.867e-7
-0.207, -1.066e-6, -5.774e-7, 4.882e-7
-0.208, -1.064e-6, -5.750e-7, 4.888e-7
-0.209, -1.061e-6, -5.744e-7, 4.870e-7
-0.210, -1.064e-6, -5.768e-7, 4.870e-7
-0.211, -1.061e-6, -5.722e-7, 4.891e-7
-0.212, -1.060e-6, -5.738e-7, 4.864e-7
-0.213, -1.063e-6, -5.765e-7, 4.864e-7
-0.214, -1.058e-6, -5.713e-7, 4.867e-7
-0.215, -1.057e-6, -5.710e-7, 4.858e-7
-0.216, -1.060e-6, -5.722e-7, 4.873e-7
-0.217, -1.058e-6, -5.713e-7, 4.864e-7
-0.218, -1.057e-6, -5.728e-7, 4.842e-7
-0.219, -1.060e-6, -5.738e-7, 4.867e-7
-0.220, -1.058e-6, -5.719e-7, 4.858e-7
-0.221, -1.059e-6, -5.728e-7, 4.861e-7
-0.222, -1.059e-6, -5.719e-7, 4.867e-7
-0.223, -1.057e-6, -5.710e-7, 4.864e-7
-0.224, -1.059e-6, -5.734e-7, 4.851e-7
-0.225, -1.059e-6, -5.719e-7, 4.873e-7
-0.226, -1.059e-6, -5.734e-7, 4.851e-7
-0.227, -1.055e-6, -5.704e-7, 4.848e-7
-0.228, -1.056e-6, -5.692e-7, 4.864e-7
-0.229, -1.054e-6, -5.692e-7, 4.848e-7
-0.230, -1.057e-6, -5.741e-7, 4.833e-7
-0.231, -1.057e-6, -5.701e-7, 4.867e-7
-0.232, -1.052e-6, -5.673e-7, 4.845e-7
-0.233, -1.054e-6, -5.710e-7, 4.827e-7
-0.234, -1.057e-6, -5.707e-7, 4.861e-7
-0.235, -1.053e-6, -5.686e-7, 4.848e-7
-0.236, -1.053e-6, -5.683e-7, 4.845e-7
-0.237, -1.051e-6, -5.661e-7, 4.851e-7
-0.238, -1.048e-6, -5.655e-7, 4.827e-7
-0.239, -1.053e-6, -5.692e-7, 4.839e-7
-0.240, -1.050e-6, -5.655e-7, 4.848e-7
-0.241, -1.052e-6, -5.683e-7, 4.836e-7
-0.242, -1.049e-6, -5.661e-7, 4.833e-7
-0.243, -1.050e-6, -5.658e-7, 4.845e-7
-0.244, -1.050e-6, -5.664e-7, 4.833e-7
-0.245, -1.050e-6, -5.664e-7, 4.836e-7
-0.246, -1.048e-6, -5.643e-7, 4.836e-7
-0.247, -1.050e-6, -5.664e-7, 4.839e-7
-0.248, -1.052e-6, -5.670e-7, 4.845e-7
-0.249, -1.049e-6, -5.661e-7, 4.827e-7
-0.250, -1.048e-6, -5.655e-7, 4.821e-7
-0.251, -1.047e-6, -5.631e-7, 4.836e-7
-0.252, -1.045e-6, -5.615e-7, 4.836e-7
-0.253, -1.044e-6, -5.622e-7, 4.818e-7
-0.254, -1.045e-6, -5.622e-7, 4.830e-7
-0.255, -1.045e-6, -5.622e-7, 4.824e-7
-0.256, -1.041e-6, -5.597e-7, 4.812e-7
-0.257, -1.043e-6, -5.597e-7, 4.830e-7
-0.258, -1.041e-6, -5.600e-7, 4.809e-7
-0.259, -1.040e-6, -5.597e-7, 4.803e-7
-0.260, -1.040e-6, -5.591e-7, 4.812e-7
-0.261, -1.044e-6, -5.622e-7, 4.818e-7
-0.262, -1.044e-6, -5.625e-7, 4.818e-7
-0.263, -1.043e-6, -5.612e-7, 4.818e-7
-0.264, -1.042e-6, -5.609e-7, 4.806e-7
-0.265, -1.042e-6, -5.625e-7, 4.800e-7
-0.266, -1.041e-6, -5.606e-7, 4.806e-7
-0.267, -1.038e-6, -5.588e-7, 4.793e-7
-0.268, -1.038e-6, -5.567e-7, 4.809e-7
-0.269, -1.038e-6, -5.582e-7, 4.803e-7
-0.270, -1.046e-6, -5.667e-7, 4.797e-7
-0.271, -1.038e-6, -5.576e-7, 4.809e-7
-0.272, -1.036e-6, -5.564e-7, 4.793e-7
-0.273, -1.037e-6, -5.588e-7, 4.781e-7
-0.274, -1.034e-6, -5.554e-7, 4.787e-7
-0.275, -1.037e-6, -5.579e-7, 4.793e-7
-0.276, -1.034e-6, -5.564e-7, 4.781e-7
-0.277, -1.039e-6, -5.612e-7, 4.778e-7
-0.278, -1.033e-6, -5.551e-7, 4.778e-7
-0.279, -1.031e-6, -5.542e-7, 4.772e-7
-0.280, -1.029e-6, -5.521e-7, 4.766e-7
-0.281, -1.029e-6, -5.530e-7, 4.763e-7
-0.282, -1.032e-6, -5.558e-7, 4.763e-7
-0.283, -1.032e-6, -5.548e-7, 4.775e-7
-0.284, -1.032e-6, -5.561e-7, 4.760e-7
-0.285, -1.030e-6, -5.545e-7, 4.754e-7
-0.286, -1.027e-6, -5.509e-7, 4.763e-7
-0.287, -1.025e-6, -5.506e-7, 4.742e-7
-0.288, -1.026e-6, -5.518e-7, 4.739e-7
-0.289, -1.027e-6, -5.509e-7, 4.760e-7
-0.290, -1.023e-6, -5.506e-7, 4.726e-7
-0.291, -1.026e-6, -5.524e-7, 4.735e-7
-0.292, -1.025e-6, -5.515e-7, 4.735e-7
-0.293, -1.025e-6, -5.536e-7, 4.714e-7
-0.294, -1.025e-6, -5.521e-7, 4.729e-7
-0.295, -1.027e-6, -5.521e-7, 4.745e-7
-0.296, -1.024e-6, -5.527e-7, 4.708e-7
-0.297, -1.021e-6, -5.484e-7, 4.729e-7
-0.298, -1.020e-6, -5.484e-7, 4.717e-7
-0.299, -1.023e-6, -5.524e-7, 4.708e-7
-0.300, -1.018e-6, -5.481e-7, 4.702e-7
-0.301, -1.019e-6, -5.484e-7, 4.708e-7
-0.302, -1.020e-6, -5.490e-7, 4.708e-7
-0.303, -1.017e-6, -5.469e-7, 4.699e-7
-0.304, -1.018e-6, -5.490e-7, 4.690e-7
-0.305, -1.013e-6, -5.451e-7, 4.681e-7
-0.306, -1.020e-6, -5.503e-7, 4.693e-7
-0.307, -1.020e-6, -5.515e-7, 4.681e-7
-0.308, -1.018e-6, -5.478e-7, 4.699e-7
-0.309, -1.014e-6, -5.466e-7, 4.674e-7
-0.310, -1.012e-6, -5.445e-7, 4.671e-7
-0.311, -1.015e-6, -5.472e-7, 4.674e-7
-0.312, -1.010e-6, -5.445e-7, 4.659e-7
-0.313, -1.010e-6, -5.448e-7, 4.650e-7
-0.314, -1.013e-6, -5.448e-7, 4.677e-7
-0.315, -1.012e-6, -5.466e-7, 4.656e-7
-0.316, -1.012e-6, -5.472e-7, 4.644e-7
-0.317, -1.015e-6, -5.490e-7, 4.662e-7
-0.318, -1.007e-6, -5.432e-7, 4.641e-7
-0.319, -1.009e-6, -5.451e-7, 4.641e-7
-0.320, -1.010e-6, -5.469e-7, 4.635e-7
-0.321, -1.009e-6, -5.454e-7, 4.638e-7
-0.322, -1.006e-6, -5.445e-7, 4.620e-7
-0.323, -1.008e-6, -5.432e-7, 4.647e-7
-0.324, -1.006e-6, -5.438e-7, 4.620e-7
-0.325, -1.009e-6, -5.487e-7, 4.601e-7
-0.326, -1.006e-6, -5.432e-7, 4.629e-7
-0.327, -1.004e-6, -5.429e-7, 4.613e-7
-0.328, -1.003e-6, -5.435e-7, 4.598e-7
-0.329, -1.002e-6, -5.411e-7, 4.607e-7
-0.330, -1.001e-6, -5.417e-7, 4.595e-7
-0.331, -1.003e-6, -5.426e-7, 4.601e-7
-0.332, -1.002e-6, -5.426e-7, 4.595e-7
-0.333, -1.002e-6, -5.429e-7, 4.589e-7
-0.334, -1.001e-6, -5.417e-7, 4.595e-7
-0.335, -1.001e-6, -5.429e-7, 4.583e-7
-0.336, -1.001e-6, -5.429e-7, 4.577e-7
-0.337, -1.002e-6, -5.435e-7, 4.586e-7
-0.338, -1.001e-6, -5.432e-7, 4.574e-7
-0.339, -9.997e-7, -5.435e-7, 4.562e-7
-0.340, -9.985e-7, -5.417e-7, 4.568e-7
-0.341, -9.966e-7, -5.408e-7, 4.558e-7
-0.342, -9.966e-7, -5.429e-7, 4.537e-7
-0.343, -9.994e-7, -5.423e-7, 4.571e-7
-0.344, -9.976e-7, -5.423e-7, 4.552e-7
-0.345, -1.002e-6, -5.478e-7, 4.546e-7
-0.346, -9.973e-7, -5.423e-7, 4.549e-7
-0.347, -9.948e-7, -5.405e-7, 4.543e-7
-0.348, -9.948e-7, -5.438e-7, 4.510e-7
-0.349, -9.930e-7, -5.399e-7, 4.531e-7
-0.350, -9.982e-7, -5.439e-7, 4.543e-7
-0.351, -9.936e-7, -5.417e-7, 4.519e-7
-0.352, -9.976e-7, -5.439e-7, 4.537e-7
-0.353, -9.915e-7, -5.393e-7, 4.522e-7
-0.354, -9.963e-7, -5.448e-7, 4.516e-7
-0.355, -9.948e-7, -5.420e-7, 4.528e-7
-0.356, -9.936e-7, -5.414e-7, 4.522e-7
-0.357, -9.951e-7, -5.448e-7, 4.504e-7
-0.358, -9.930e-7, -5.426e-7, 4.504e-7
-0.359, -9.945e-7, -5.442e-7, 4.504e-7
-0.360, -9.927e-7, -5.439e-7, 4.488e-7
-0.361, -9.942e-7, -5.442e-7, 4.500e-7
-0.362, -9.924e-7, -5.432e-7, 4.491e-7
-0.363, -9.905e-7, -5.423e-7, 4.482e-7
-0.364, -9.954e-7, -5.469e-7, 4.485e-7
-0.365, -9.915e-7, -5.429e-7, 4.485e-7
-0.366, -9.896e-7, -5.420e-7, 4.476e-7
-0.367, -9.973e-7, -5.484e-7, 4.488e-7
-0.368, -9.899e-7, -5.432e-7, 4.467e-7
-0.369, -9.927e-7, -5.445e-7, 4.482e-7
-0.370, -9.936e-7, -5.466e-7, 4.470e-7
-0.371, -9.905e-7, -5.448e-7, 4.458e-7
-0.372, -9.902e-7, -5.432e-7, 4.470e-7
-0.373, -9.918e-7, -5.463e-7, 4.455e-7
-0.374, -9.939e-7, -5.478e-7, 4.461e-7
-0.375, -9.915e-7, -5.454e-7, 4.461e-7
-0.376, -9.918e-7, -5.472e-7, 4.446e-7
-0.377, -9.939e-7, -5.478e-7, 4.461e-7
-0.378, -9.954e-7, -5.493e-7, 4.461e-7
-0.379, -9.893e-7, -5.466e-7, 4.427e-7
-0.380, -9.921e-7, -5.472e-7, 4.449e-7
-0.381, -9.918e-7, -5.481e-7, 4.436e-7
-0.382, -9.887e-7, -5.454e-7, 4.433e-7
-0.383, -9.893e-7, -5.469e-7, 4.424e-7
-0.384, -9.902e-7, -5.481e-7, 4.421e-7
-0.385, -9.939e-7, -5.512e-7, 4.427e-7
-0.386, -9.908e-7, -5.481e-7, 4.427e-7
-0.387, -9.899e-7, -5.484e-7, 4.415e-7
-0.388, -9.893e-7, -5.478e-7, 4.415e-7
-0.389, -9.902e-7, -5.487e-7, 4.415e-7
-0.390, -9.921e-7, -5.509e-7, 4.412e-7
-0.391, -9.905e-7, -5.503e-7, 4.403e-7
-0.392, -9.936e-7, -5.524e-7, 4.412e-7
-0.393, -9.902e-7, -5.503e-7, 4.400e-7
-0.394, -9.902e-7, -5.521e-7, 4.381e-7
-0.395, -9.896e-7, -5.490e-7, 4.406e-7
-0.396, -9.902e-7, -5.509e-7, 4.394e-7
-0.397, -9.915e-7, -5.530e-7, 4.385e-7
-0.398, -9.927e-7, -5.536e-7, 4.391e-7
-0.399, -9.918e-7, -5.536e-7, 4.381e-7
-0.400, -9.912e-7, -5.542e-7, 4.369e-7
