Mar. 20, 2018   15:40:08
Square Wave Voltammetry
File: c:\users\electrochemist\desktop\2018\20032018_unbufarray_unpap\53_g2_ph8,52_5.txt
Data Source:  Experiment
Instrument Model:  CHI1040A
Header: 
Note: 

Init E (V) = 0.7
Final E (V) = -0.4
Incr E (V) = 0.001
Amplitude (V) = 0.1
Frequency (Hz) = 152
Quiet Time (sec) = 2
Sensitivity (A/V) = 1e-6

Difference:

Forward:

Reverse:

Potential/V, Diff(i/A), For(i/A), Rev(i/A)

0.699, -6.183e-7, -1.731e-7, 4.452e-7
0.698, -7.443e-7, -3.427e-7, 4.015e-7
0.697, -7.473e-7, -3.543e-7, 3.930e-7
0.696, -7.409e-7, -3.559e-7, 3.851e-7
0.695, -7.379e-7, -3.574e-7, 3.805e-7
0.694, -7.367e-7, -3.574e-7, 3.793e-7
0.693, -7.324e-7, -3.568e-7, 3.756e-7
0.692, -7.315e-7, -3.580e-7, 3.735e-7
0.691, -7.302e-7, -3.577e-7, 3.726e-7
0.690, -7.275e-7, -3.586e-7, 3.689e-7
0.689, -7.275e-7, -3.598e-7, 3.677e-7
0.688, -7.260e-7, -3.574e-7, 3.686e-7
0.687, -7.235e-7, -3.586e-7, 3.649e-7
0.686, -7.226e-7, -3.580e-7, 3.646e-7
0.685, -7.193e-7, -3.577e-7, 3.616e-7
0.684, -7.190e-7, -3.583e-7, 3.606e-7
0.683, -7.165e-7, -3.580e-7, 3.585e-7
0.682, -7.156e-7, -3.577e-7, 3.579e-7
0.681, -7.156e-7, -3.589e-7, 3.567e-7
0.680, -7.138e-7, -3.577e-7, 3.561e-7
0.679, -7.116e-7, -3.571e-7, 3.545e-7
0.678, -7.101e-7, -3.580e-7, 3.521e-7
0.677, -7.119e-7, -3.586e-7, 3.533e-7
0.676, -7.089e-7, -3.571e-7, 3.518e-7
0.675, -7.125e-7, -3.574e-7, 3.552e-7
0.674, -7.064e-7, -3.577e-7, 3.487e-7
0.673, -7.049e-7, -3.559e-7, 3.491e-7
0.672, -7.031e-7, -3.568e-7, 3.463e-7
0.671, -7.049e-7, -3.574e-7, 3.475e-7
0.670, -7.016e-7, -3.559e-7, 3.457e-7
0.669, -7.000e-7, -3.577e-7, 3.423e-7
0.668, -6.997e-7, -3.574e-7, 3.423e-7
0.667, -6.973e-7, -3.562e-7, 3.411e-7
0.666, -6.982e-7, -3.574e-7, 3.408e-7
0.665, -6.973e-7, -3.549e-7, 3.423e-7
0.664, -6.961e-7, -3.577e-7, 3.384e-7
0.663, -6.952e-7, -3.580e-7, 3.372e-7
0.662, -6.961e-7, -3.565e-7, 3.396e-7
0.661, -6.945e-7, -3.574e-7, 3.372e-7
0.660, -6.927e-7, -3.568e-7, 3.359e-7
0.659, -6.927e-7, -3.553e-7, 3.375e-7
0.658, -6.912e-7, -3.571e-7, 3.341e-7
0.657, -6.924e-7, -3.577e-7, 3.347e-7
0.656, -6.912e-7, -3.549e-7, 3.362e-7
0.655, -6.884e-7, -3.568e-7, 3.317e-7
0.654, -6.906e-7, -3.586e-7, 3.320e-7
0.653, -6.887e-7, -3.549e-7, 3.338e-7
0.652, -6.848e-7, -3.559e-7, 3.289e-7
0.651, -6.875e-7, -3.571e-7, 3.304e-7
0.650, -6.860e-7, -3.549e-7, 3.310e-7
0.649, -6.832e-7, -3.562e-7, 3.271e-7
0.648, -6.860e-7, -3.571e-7, 3.289e-7
0.647, -6.836e-7, -3.546e-7, 3.289e-7
0.646, -6.823e-7, -3.568e-7, 3.256e-7
0.645, -6.820e-7, -3.559e-7, 3.262e-7
0.644, -6.820e-7, -3.543e-7, 3.277e-7
0.643, -6.814e-7, -3.559e-7, 3.256e-7
0.642, -6.814e-7, -3.562e-7, 3.253e-7
0.641, -6.787e-7, -3.556e-7, 3.231e-7
0.640, -6.808e-7, -3.559e-7, 3.249e-7
0.639, -6.811e-7, -3.553e-7, 3.259e-7
0.638, -6.808e-7, -3.571e-7, 3.237e-7
0.637, -6.784e-7, -3.553e-7, 3.231e-7
0.636, -6.778e-7, -3.553e-7, 3.225e-7
0.635, -6.762e-7, -3.549e-7, 3.213e-7
0.634, -6.775e-7, -3.571e-7, 3.204e-7
0.633, -6.738e-7, -3.540e-7, 3.198e-7
0.632, -6.750e-7, -3.559e-7, 3.191e-7
0.631, -6.765e-7, -3.562e-7, 3.204e-7
0.630, -6.750e-7, -3.559e-7, 3.191e-7
0.629, -6.753e-7, -3.562e-7, 3.191e-7
0.628, -6.744e-7, -3.562e-7, 3.182e-7
0.627, -6.753e-7, -3.556e-7, 3.198e-7
0.626, -6.726e-7, -3.562e-7, 3.164e-7
0.625, -6.729e-7, -3.559e-7, 3.170e-7
0.624, -6.707e-7, -3.537e-7, 3.170e-7
0.623, -6.704e-7, -3.549e-7, 3.155e-7
0.622, -6.710e-7, -3.543e-7, 3.167e-7
0.621, -6.729e-7, -3.568e-7, 3.161e-7
0.620, -6.717e-7, -3.571e-7, 3.146e-7
0.619, -6.713e-7, -3.559e-7, 3.155e-7
0.618, -6.686e-7, -3.553e-7, 3.133e-7
0.617, -6.717e-7, -3.574e-7, 3.143e-7
0.616, -6.704e-7, -3.556e-7, 3.149e-7
0.615, -6.674e-7, -3.534e-7, 3.140e-7
0.614, -6.720e-7, -3.574e-7, 3.146e-7
0.613, -6.692e-7, -3.553e-7, 3.140e-7
0.612, -6.671e-7, -3.543e-7, 3.127e-7
0.611, -6.704e-7, -3.574e-7, 3.130e-7
0.610, -6.698e-7, -3.562e-7, 3.137e-7
0.609, -6.686e-7, -3.571e-7, 3.115e-7
0.608, -6.710e-7, -3.580e-7, 3.130e-7
0.607, -6.698e-7, -3.574e-7, 3.124e-7
0.606, -6.698e-7, -3.583e-7, 3.115e-7
0.605, -6.710e-7, -3.583e-7, 3.127e-7
0.604, -6.692e-7, -3.571e-7, 3.121e-7
0.603, -6.686e-7, -3.583e-7, 3.103e-7
0.602, -6.701e-7, -3.574e-7, 3.127e-7
0.601, -6.686e-7, -3.577e-7, 3.109e-7
0.600, -6.689e-7, -3.592e-7, 3.097e-7
0.599, -6.680e-7, -3.565e-7, 3.115e-7
0.598, -6.677e-7, -3.574e-7, 3.103e-7
0.597, -6.701e-7, -3.601e-7, 3.100e-7
0.596, -6.683e-7, -3.583e-7, 3.100e-7
0.595, -6.668e-7, -3.568e-7, 3.100e-7
0.594, -6.707e-7, -3.592e-7, 3.115e-7
0.593, -6.704e-7, -3.598e-7, 3.106e-7
0.592, -6.692e-7, -3.580e-7, 3.112e-7
0.591, -6.692e-7, -3.592e-7, 3.100e-7
0.590, -6.692e-7, -3.583e-7, 3.109e-7
0.589, -6.686e-7, -3.583e-7, 3.103e-7
0.588, -6.698e-7, -3.601e-7, 3.097e-7
0.587, -6.701e-7, -3.598e-7, 3.103e-7
0.586, -6.677e-7, -3.589e-7, 3.088e-7
0.585, -6.704e-7, -3.607e-7, 3.097e-7
0.584, -6.713e-7, -3.617e-7, 3.097e-7
0.583, -6.704e-7, -3.611e-7, 3.094e-7
0.582, -6.692e-7, -3.617e-7, 3.076e-7
0.581, -6.695e-7, -3.611e-7, 3.085e-7
0.580, -6.695e-7, -3.607e-7, 3.088e-7
0.579, -6.720e-7, -3.611e-7, 3.109e-7
0.578, -6.717e-7, -3.611e-7, 3.106e-7
0.577, -6.710e-7, -3.623e-7, 3.088e-7
0.576, -6.726e-7, -3.626e-7, 3.100e-7
0.575, -6.717e-7, -3.614e-7, 3.103e-7
0.574, -6.723e-7, -3.638e-7, 3.085e-7
0.573, -6.695e-7, -3.598e-7, 3.097e-7
0.572, -6.717e-7, -3.629e-7, 3.088e-7
0.571, -6.738e-7, -3.647e-7, 3.091e-7
0.570, -6.720e-7, -3.629e-7, 3.091e-7
0.569, -6.717e-7, -3.632e-7, 3.085e-7
0.568, -6.753e-7, -3.647e-7, 3.106e-7
0.567, -6.741e-7, -3.647e-7, 3.094e-7
0.566, -6.713e-7, -3.623e-7, 3.091e-7
0.565, -6.744e-7, -3.659e-7, 3.085e-7
0.564, -6.713e-7, -3.632e-7, 3.082e-7
0.563, -6.717e-7, -3.650e-7, 3.066e-7
0.562, -6.744e-7, -3.647e-7, 3.097e-7
0.561, -6.732e-7, -3.647e-7, 3.085e-7
0.560, -6.744e-7, -3.656e-7, 3.088e-7
0.559, -6.747e-7, -3.668e-7, 3.079e-7
0.558, -6.753e-7, -3.653e-7, 3.100e-7
0.557, -6.738e-7, -3.662e-7, 3.076e-7
0.556, -6.765e-7, -3.675e-7, 3.091e-7
0.555, -6.744e-7, -3.665e-7, 3.079e-7
0.554, -6.747e-7, -3.675e-7, 3.072e-7
0.553, -6.775e-7, -3.681e-7, 3.094e-7
0.552, -6.735e-7, -3.659e-7, 3.076e-7
0.551, -6.775e-7, -3.681e-7, 3.094e-7
0.550, -6.787e-7, -3.687e-7, 3.100e-7
0.549, -6.744e-7, -3.668e-7, 3.076e-7
0.548, -6.784e-7, -3.696e-7, 3.088e-7
0.547, -6.771e-7, -3.675e-7, 3.097e-7
0.546, -6.753e-7, -3.684e-7, 3.069e-7
0.545, -6.768e-7, -3.696e-7, 3.072e-7
0.544, -6.787e-7, -3.693e-7, 3.094e-7
0.543, -6.753e-7, -3.681e-7, 3.072e-7
0.542, -6.793e-7, -3.711e-7, 3.082e-7
0.541, -6.778e-7, -3.690e-7, 3.088e-7
0.540, -6.756e-7, -3.693e-7, 3.063e-7
0.539, -6.775e-7, -3.702e-7, 3.072e-7
0.538, -6.784e-7, -3.699e-7, 3.085e-7
0.537, -6.781e-7, -3.714e-7, 3.066e-7
0.536, -6.799e-7, -3.720e-7, 3.079e-7
0.535, -6.790e-7, -3.699e-7, 3.091e-7
0.534, -6.781e-7, -3.702e-7, 3.079e-7
0.533, -6.802e-7, -3.730e-7, 3.072e-7
0.532, -6.832e-7, -3.726e-7, 3.106e-7
0.531, -6.787e-7, -3.723e-7, 3.063e-7
0.530, -6.823e-7, -3.736e-7, 3.088e-7
0.529, -6.808e-7, -3.726e-7, 3.082e-7
0.528, -6.781e-7, -3.717e-7, 3.063e-7
0.527, -6.817e-7, -3.736e-7, 3.082e-7
0.526, -6.805e-7, -3.723e-7, 3.082e-7
0.525, -6.796e-7, -3.730e-7, 3.066e-7
0.524, -6.814e-7, -3.745e-7, 3.069e-7
0.523, -6.823e-7, -3.739e-7, 3.085e-7
0.522, -6.808e-7, -3.745e-7, 3.063e-7
0.521, -6.832e-7, -3.751e-7, 3.082e-7
0.520, -6.814e-7, -3.736e-7, 3.079e-7
0.519, -6.848e-7, -3.754e-7, 3.094e-7
0.518, -6.836e-7, -3.757e-7, 3.079e-7
0.517, -6.832e-7, -3.748e-7, 3.085e-7
0.516, -6.829e-7, -3.751e-7, 3.079e-7
0.515, -6.842e-7, -3.751e-7, 3.091e-7
0.514, -6.839e-7, -3.760e-7, 3.079e-7
0.513, -6.832e-7, -3.763e-7, 3.069e-7
0.512, -6.848e-7, -3.766e-7, 3.082e-7
0.511, -6.854e-7, -3.778e-7, 3.075e-7
0.510, -6.854e-7, -3.778e-7, 3.075e-7
0.509, -6.842e-7, -3.766e-7, 3.075e-7
0.508, -6.860e-7, -3.769e-7, 3.091e-7
0.507, -6.851e-7, -3.772e-7, 3.079e-7
0.506, -6.860e-7, -3.781e-7, 3.079e-7
0.505, -6.854e-7, -3.781e-7, 3.072e-7
0.504, -6.884e-7, -3.791e-7, 3.094e-7
0.503, -6.863e-7, -3.778e-7, 3.085e-7
0.502, -6.878e-7, -3.800e-7, 3.079e-7
0.501, -6.909e-7, -3.806e-7, 3.103e-7
0.500, -6.863e-7, -3.781e-7, 3.082e-7
0.499, -6.866e-7, -3.797e-7, 3.069e-7
0.498, -6.903e-7, -3.803e-7, 3.100e-7
0.497, -6.884e-7, -3.794e-7, 3.091e-7
0.496, -6.897e-7, -3.812e-7, 3.085e-7
0.495, -6.903e-7, -3.815e-7, 3.088e-7
0.494, -6.897e-7, -3.797e-7, 3.100e-7
0.493, -6.915e-7, -3.824e-7, 3.091e-7
0.492, -6.906e-7, -3.806e-7, 3.100e-7
0.491, -6.927e-7, -3.839e-7, 3.088e-7
0.490, -6.927e-7, -3.830e-7, 3.097e-7
0.489, -6.930e-7, -3.830e-7, 3.100e-7
0.488, -6.948e-7, -3.845e-7, 3.103e-7
0.487, -6.939e-7, -3.839e-7, 3.100e-7
0.486, -6.930e-7, -3.839e-7, 3.091e-7
0.485, -6.958e-7, -3.858e-7, 3.100e-7
0.484, -6.958e-7, -3.845e-7, 3.112e-7
0.483, -6.933e-7, -3.839e-7, 3.094e-7
0.482, -6.955e-7, -3.861e-7, 3.094e-7
0.481, -6.973e-7, -3.864e-7, 3.109e-7
0.480, -6.979e-7, -3.861e-7, 3.118e-7
0.479, -6.982e-7, -3.885e-7, 3.097e-7
0.478, -6.994e-7, -3.882e-7, 3.112e-7
0.477, -6.988e-7, -3.870e-7, 3.118e-7
0.476, -7.006e-7, -3.888e-7, 3.118e-7
0.475, -6.985e-7, -3.870e-7, 3.115e-7
0.474, -7.013e-7, -3.894e-7, 3.118e-7
0.473, -6.997e-7, -3.903e-7, 3.094e-7
0.472, -7.019e-7, -3.900e-7, 3.118e-7
0.471, -7.022e-7, -3.891e-7, 3.130e-7
0.470, -7.025e-7, -3.916e-7, 3.109e-7
0.469, -7.043e-7, -3.910e-7, 3.133e-7
0.468, -7.031e-7, -3.910e-7, 3.121e-7
0.467, -7.037e-7, -3.919e-7, 3.118e-7
0.466, -7.074e-7, -3.934e-7, 3.140e-7
0.465, -7.064e-7, -3.928e-7, 3.137e-7
0.464, -7.043e-7, -3.934e-7, 3.109e-7
0.463, -7.043e-7, -3.922e-7, 3.121e-7
0.462, -7.092e-7, -3.946e-7, 3.146e-7
0.461, -7.083e-7, -3.943e-7, 3.140e-7
0.460, -7.074e-7, -3.937e-7, 3.137e-7
0.459, -7.092e-7, -3.958e-7, 3.133e-7
0.458, -7.092e-7, -3.952e-7, 3.140e-7
0.457, -7.110e-7, -3.958e-7, 3.152e-7
0.456, -7.128e-7, -3.971e-7, 3.158e-7
0.455, -7.125e-7, -3.971e-7, 3.155e-7
0.454, -7.138e-7, -3.977e-7, 3.161e-7
0.453, -7.153e-7, -3.995e-7, 3.158e-7
0.452, -7.162e-7, -3.992e-7, 3.170e-7
0.451, -7.119e-7, -3.971e-7, 3.149e-7
0.450, -7.190e-7, -4.010e-7, 3.179e-7
0.449, -7.174e-7, -3.998e-7, 3.176e-7
0.448, -7.162e-7, -3.998e-7, 3.164e-7
0.447, -7.174e-7, -4.010e-7, 3.164e-7
0.446, -7.180e-7, -4.013e-7, 3.167e-7
0.445, -7.171e-7, -4.007e-7, 3.164e-7
0.444, -7.214e-7, -4.032e-7, 3.182e-7
0.443, -7.208e-7, -4.019e-7, 3.188e-7
0.442, -7.180e-7, -4.010e-7, 3.170e-7
0.441, -7.223e-7, -4.029e-7, 3.195e-7
0.440, -7.220e-7, -4.038e-7, 3.182e-7
0.439, -7.217e-7, -4.050e-7, 3.167e-7
0.438, -7.254e-7, -4.065e-7, 3.188e-7
0.437, -7.244e-7, -4.053e-7, 3.191e-7
0.436, -7.229e-7, -4.065e-7, 3.164e-7
0.435, -7.257e-7, -4.065e-7, 3.191e-7
0.434, -7.263e-7, -4.065e-7, 3.198e-7
0.433, -7.275e-7, -4.080e-7, 3.195e-7
0.432, -7.281e-7, -4.074e-7, 3.207e-7
0.431, -7.269e-7, -4.074e-7, 3.195e-7
0.430, -7.287e-7, -4.096e-7, 3.191e-7
0.429, -7.315e-7, -4.096e-7, 3.219e-7
0.428, -7.296e-7, -4.096e-7, 3.201e-7
0.427, -7.315e-7, -4.105e-7, 3.210e-7
0.426, -7.321e-7, -4.102e-7, 3.219e-7
0.425, -7.296e-7, -4.096e-7, 3.201e-7
0.424, -7.339e-7, -4.129e-7, 3.210e-7
0.423, -7.345e-7, -4.117e-7, 3.228e-7
0.422, -7.348e-7, -4.138e-7, 3.210e-7
0.421, -7.373e-7, -4.151e-7, 3.222e-7
0.420, -7.367e-7, -4.138e-7, 3.228e-7
0.419, -7.360e-7, -4.154e-7, 3.207e-7
0.418, -7.379e-7, -4.157e-7, 3.222e-7
0.417, -7.385e-7, -4.151e-7, 3.234e-7
0.416, -7.382e-7, -4.160e-7, 3.222e-7
0.415, -7.406e-7, -4.169e-7, 3.237e-7
0.414, -7.397e-7, -4.154e-7, 3.243e-7
0.413, -7.385e-7, -4.166e-7, 3.219e-7
0.412, -7.406e-7, -4.172e-7, 3.234e-7
0.411, -7.406e-7, -4.160e-7, 3.246e-7
0.410, -7.437e-7, -4.196e-7, 3.240e-7
0.409, -7.452e-7, -4.209e-7, 3.243e-7
0.408, -7.440e-7, -4.184e-7, 3.256e-7
0.407, -7.440e-7, -4.199e-7, 3.240e-7
0.406, -7.461e-7, -4.206e-7, 3.256e-7
0.405, -7.440e-7, -4.187e-7, 3.252e-7
0.404, -7.479e-7, -4.221e-7, 3.259e-7
0.403, -7.479e-7, -4.227e-7, 3.252e-7
0.402, -7.479e-7, -4.215e-7, 3.265e-7
0.401, -7.504e-7, -4.245e-7, 3.259e-7
0.400, -7.504e-7, -4.230e-7, 3.274e-7
0.399, -7.516e-7, -4.251e-7, 3.265e-7
0.398, -7.507e-7, -4.236e-7, 3.271e-7
0.397, -7.516e-7, -4.239e-7, 3.277e-7
0.396, -7.531e-7, -4.257e-7, 3.274e-7
0.395, -7.531e-7, -4.254e-7, 3.277e-7
0.394, -7.519e-7, -4.245e-7, 3.274e-7
0.393, -7.559e-7, -4.279e-7, 3.280e-7
0.392, -7.562e-7, -4.285e-7, 3.277e-7
0.391, -7.571e-7, -4.279e-7, 3.292e-7
0.390, -7.574e-7, -4.291e-7, 3.283e-7
0.389, -7.583e-7, -4.297e-7, 3.286e-7
0.388, -7.577e-7, -4.285e-7, 3.292e-7
0.387, -7.577e-7, -4.300e-7, 3.277e-7
0.386, -7.608e-7, -4.312e-7, 3.295e-7
0.385, -7.620e-7, -4.322e-7, 3.298e-7
0.384, -7.623e-7, -4.322e-7, 3.301e-7
0.383, -7.617e-7, -4.325e-7, 3.292e-7
0.382, -7.632e-7, -4.322e-7, 3.310e-7
0.381, -7.644e-7, -4.337e-7, 3.307e-7
0.380, -7.675e-7, -4.343e-7, 3.332e-7
0.379, -7.638e-7, -4.337e-7, 3.301e-7
0.378, -7.669e-7, -4.355e-7, 3.314e-7
0.377, -7.678e-7, -4.358e-7, 3.320e-7
0.376, -7.678e-7, -4.361e-7, 3.317e-7
0.375, -7.702e-7, -4.373e-7, 3.329e-7
0.374, -7.702e-7, -4.373e-7, 3.329e-7
0.373, -7.724e-7, -4.392e-7, 3.332e-7
0.372, -7.717e-7, -4.383e-7, 3.335e-7
0.371, -7.711e-7, -4.376e-7, 3.335e-7
0.370, -7.736e-7, -4.395e-7, 3.341e-7
0.369, -7.766e-7, -4.422e-7, 3.344e-7
0.368, -7.742e-7, -4.395e-7, 3.347e-7
0.367, -7.763e-7, -4.416e-7, 3.347e-7
0.366, -7.797e-7, -4.434e-7, 3.362e-7
0.365, -7.782e-7, -4.422e-7, 3.359e-7
0.364, -7.803e-7, -4.444e-7, 3.359e-7
0.363, -7.809e-7, -4.434e-7, 3.375e-7
0.362, -7.833e-7, -4.459e-7, 3.375e-7
0.361, -7.827e-7, -4.462e-7, 3.365e-7
0.360, -7.846e-7, -4.459e-7, 3.387e-7
0.359, -7.833e-7, -4.462e-7, 3.371e-7
0.358, -7.879e-7, -4.492e-7, 3.387e-7
0.357, -7.879e-7, -4.474e-7, 3.405e-7
0.356, -7.873e-7, -4.480e-7, 3.393e-7
0.355, -7.888e-7, -4.508e-7, 3.381e-7
0.354, -7.894e-7, -4.505e-7, 3.390e-7
0.353, -7.888e-7, -4.483e-7, 3.405e-7
0.352, -7.934e-7, -4.532e-7, 3.402e-7
0.351, -7.949e-7, -4.532e-7, 3.417e-7
0.350, -7.943e-7, -4.532e-7, 3.411e-7
0.349, -7.965e-7, -4.550e-7, 3.414e-7
0.348, -7.977e-7, -4.535e-7, 3.442e-7
0.347, -7.974e-7, -4.547e-7, 3.426e-7
0.346, -7.980e-7, -4.563e-7, 3.417e-7
0.345, -7.995e-7, -4.557e-7, 3.439e-7
0.344, -8.013e-7, -4.575e-7, 3.439e-7
0.343, -8.010e-7, -4.578e-7, 3.433e-7
0.342, -8.050e-7, -4.593e-7, 3.457e-7
0.341, -8.047e-7, -4.590e-7, 3.457e-7
0.340, -8.056e-7, -4.599e-7, 3.457e-7
0.339, -8.071e-7, -4.605e-7, 3.466e-7
0.338, -8.071e-7, -4.605e-7, 3.466e-7
0.337, -8.099e-7, -4.621e-7, 3.478e-7
0.336, -8.102e-7, -4.624e-7, 3.478e-7
0.335, -8.105e-7, -4.636e-7, 3.469e-7
0.334, -8.132e-7, -4.642e-7, 3.490e-7
0.333, -8.136e-7, -4.654e-7, 3.481e-7
0.332, -8.172e-7, -4.669e-7, 3.503e-7
0.331, -8.169e-7, -4.660e-7, 3.509e-7
0.330, -8.160e-7, -4.660e-7, 3.500e-7
0.329, -8.181e-7, -4.676e-7, 3.506e-7
0.328, -8.215e-7, -4.682e-7, 3.533e-7
0.327, -8.227e-7, -4.706e-7, 3.521e-7
0.326, -8.242e-7, -4.715e-7, 3.527e-7
0.325, -8.248e-7, -4.727e-7, 3.521e-7
0.324, -8.245e-7, -4.715e-7, 3.530e-7
0.323, -8.264e-7, -4.727e-7, 3.536e-7
0.322, -8.251e-7, -4.721e-7, 3.530e-7
0.321, -8.279e-7, -4.737e-7, 3.542e-7
0.320, -8.288e-7, -4.740e-7, 3.548e-7
0.319, -8.322e-7, -4.755e-7, 3.567e-7
0.318, -8.328e-7, -4.773e-7, 3.555e-7
0.317, -8.340e-7, -4.770e-7, 3.570e-7
0.316, -8.331e-7, -4.761e-7, 3.570e-7
0.315, -8.340e-7, -4.776e-7, 3.564e-7
0.314, -8.383e-7, -4.795e-7, 3.588e-7
0.313, -8.367e-7, -4.776e-7, 3.591e-7
0.312, -8.370e-7, -4.801e-7, 3.570e-7
0.311, -8.407e-7, -4.804e-7, 3.603e-7
0.310, -8.395e-7, -4.804e-7, 3.591e-7
0.309, -8.425e-7, -4.822e-7, 3.603e-7
0.308, -8.422e-7, -4.816e-7, 3.606e-7
0.307, -8.432e-7, -4.834e-7, 3.597e-7
0.306, -8.483e-7, -4.865e-7, 3.619e-7
0.305, -8.471e-7, -4.846e-7, 3.625e-7
0.304, -8.465e-7, -4.865e-7, 3.600e-7
0.303, -8.483e-7, -4.874e-7, 3.610e-7
0.302, -8.496e-7, -4.865e-7, 3.631e-7
0.301, -8.502e-7, -4.871e-7, 3.631e-7
0.300, -8.557e-7, -4.911e-7, 3.646e-7
0.299, -8.557e-7, -4.901e-7, 3.655e-7
0.298, -8.544e-7, -4.904e-7, 3.640e-7
0.297, -8.575e-7, -4.926e-7, 3.649e-7
0.296, -8.609e-7, -4.926e-7, 3.683e-7
0.295, -8.593e-7, -4.932e-7, 3.661e-7
0.294, -8.605e-7, -4.935e-7, 3.671e-7
0.293, -8.633e-7, -4.944e-7, 3.689e-7
0.292, -8.624e-7, -4.950e-7, 3.674e-7
0.291, -8.645e-7, -4.972e-7, 3.674e-7
0.290, -8.654e-7, -4.956e-7, 3.698e-7
0.289, -8.642e-7, -4.959e-7, 3.683e-7
0.288, -8.679e-7, -4.993e-7, 3.686e-7
0.287, -8.648e-7, -4.965e-7, 3.683e-7
0.286, -8.688e-7, -5.002e-7, 3.686e-7
0.285, -8.724e-7, -5.008e-7, 3.716e-7
0.284, -8.731e-7, -5.014e-7, 3.716e-7
0.283, -8.731e-7, -5.014e-7, 3.716e-7
0.282, -8.743e-7, -5.023e-7, 3.719e-7
0.281, -8.749e-7, -5.023e-7, 3.725e-7
0.280, -8.779e-7, -5.045e-7, 3.735e-7
0.279, -8.789e-7, -5.045e-7, 3.744e-7
0.278, -8.801e-7, -5.054e-7, 3.747e-7
0.277, -8.816e-7, -5.060e-7, 3.756e-7
0.276, -8.822e-7, -5.069e-7, 3.753e-7
0.275, -8.813e-7, -5.069e-7, 3.744e-7
0.274, -8.837e-7, -5.088e-7, 3.750e-7
0.273, -8.868e-7, -5.094e-7, 3.774e-7
0.272, -8.868e-7, -5.100e-7, 3.768e-7
0.271, -8.877e-7, -5.103e-7, 3.774e-7
0.270, -8.889e-7, -5.106e-7, 3.783e-7
0.269, -8.917e-7, -5.127e-7, 3.790e-7
0.268, -8.929e-7, -5.136e-7, 3.793e-7
0.267, -8.935e-7, -5.139e-7, 3.796e-7
0.266, -8.932e-7, -5.145e-7, 3.786e-7
0.265, -8.959e-7, -5.149e-7, 3.811e-7
0.264, -8.978e-7, -5.158e-7, 3.820e-7
0.263, -8.993e-7, -5.179e-7, 3.814e-7
0.262, -9.017e-7, -5.188e-7, 3.829e-7
0.261, -9.017e-7, -5.197e-7, 3.820e-7
0.260, -9.036e-7, -5.200e-7, 3.835e-7
0.259, -9.069e-7, -5.210e-7, 3.860e-7
0.258, -9.069e-7, -5.222e-7, 3.848e-7
0.257, -9.106e-7, -5.249e-7, 3.857e-7
0.256, -9.100e-7, -5.228e-7, 3.872e-7
0.255, -9.094e-7, -5.252e-7, 3.841e-7
0.254, -9.127e-7, -5.268e-7, 3.860e-7
0.253, -9.149e-7, -5.261e-7, 3.887e-7
0.252, -9.164e-7, -5.274e-7, 3.890e-7
0.251, -9.194e-7, -5.307e-7, 3.887e-7
0.250, -9.191e-7, -5.283e-7, 3.909e-7
0.249, -9.185e-7, -5.292e-7, 3.893e-7
0.248, -9.222e-7, -5.310e-7, 3.912e-7
0.247, -9.222e-7, -5.292e-7, 3.930e-7
0.246, -9.243e-7, -5.338e-7, 3.906e-7
0.245, -9.292e-7, -5.356e-7, 3.936e-7
0.244, -9.283e-7, -5.341e-7, 3.942e-7
0.243, -9.292e-7, -5.365e-7, 3.927e-7
0.242, -9.344e-7, -5.384e-7, 3.960e-7
0.241, -9.320e-7, -5.374e-7, 3.945e-7
0.240, -9.338e-7, -5.396e-7, 3.942e-7
0.239, -9.381e-7, -5.408e-7, 3.973e-7
0.238, -9.365e-7, -5.402e-7, 3.963e-7
0.237, -9.396e-7, -5.435e-7, 3.960e-7
0.236, -9.435e-7, -5.429e-7, 4.006e-7
0.235, -9.439e-7, -5.432e-7, 4.006e-7
0.234, -9.445e-7, -5.469e-7, 3.976e-7
0.233, -9.469e-7, -5.463e-7, 4.006e-7
0.232, -9.472e-7, -5.460e-7, 4.012e-7
0.231, -9.490e-7, -5.490e-7, 4.000e-7
0.230, -9.524e-7, -5.493e-7, 4.031e-7
0.229, -9.506e-7, -5.484e-7, 4.021e-7
0.228, -9.579e-7, -5.533e-7, 4.046e-7
0.227, -9.570e-7, -5.524e-7, 4.046e-7
0.226, -9.594e-7, -5.542e-7, 4.052e-7
0.225, -9.606e-7, -5.551e-7, 4.055e-7
0.224, -9.628e-7, -5.564e-7, 4.064e-7
0.223, -9.634e-7, -5.564e-7, 4.070e-7
0.222, -9.661e-7, -5.585e-7, 4.076e-7
0.221, -9.683e-7, -5.588e-7, 4.095e-7
0.220, -9.722e-7, -5.615e-7, 4.107e-7
0.219, -9.741e-7, -5.628e-7, 4.113e-7
0.218, -9.738e-7, -5.618e-7, 4.119e-7
0.217, -9.744e-7, -5.625e-7, 4.119e-7
0.216, -9.799e-7, -5.658e-7, 4.140e-7
0.215, -9.789e-7, -5.658e-7, 4.131e-7
0.214, -9.860e-7, -5.698e-7, 4.162e-7
0.213, -9.835e-7, -5.692e-7, 4.144e-7
0.212, -9.866e-7, -5.698e-7, 4.168e-7
0.211, -9.869e-7, -5.722e-7, 4.147e-7
0.210, -9.915e-7, -5.722e-7, 4.192e-7
0.209, -9.930e-7, -5.737e-7, 4.192e-7
0.208, -9.939e-7, -5.753e-7, 4.186e-7
0.207, -9.982e-7, -5.765e-7, 4.217e-7
0.206, -9.979e-7, -5.774e-7, 4.205e-7
0.205, -1.002e-6, -5.802e-7, 4.214e-7
0.204, -1.002e-6, -5.789e-7, 4.226e-7
0.203, -1.004e-6, -5.808e-7, 4.232e-7
0.202, -1.007e-6, -5.820e-7, 4.250e-7
0.201, -1.007e-6, -5.829e-7, 4.238e-7
0.200, -1.012e-6, -5.853e-7, 4.266e-7
0.199, -1.013e-6, -5.860e-7, 4.272e-7
0.198, -1.015e-6, -5.869e-7, 4.278e-7
0.197, -1.016e-6, -5.890e-7, 4.272e-7
0.196, -1.020e-6, -5.902e-7, 4.293e-7
0.195, -1.021e-6, -5.908e-7, 4.302e-7
0.194, -1.022e-6, -5.918e-7, 4.299e-7
0.193, -1.027e-6, -5.939e-7, 4.336e-7
0.192, -1.027e-6, -5.933e-7, 4.339e-7
0.191, -1.032e-6, -5.976e-7, 4.342e-7
0.190, -1.032e-6, -5.972e-7, 4.345e-7
0.189, -1.034e-6, -5.979e-7, 4.357e-7
0.188, -1.036e-6, -6.015e-7, 4.342e-7
0.187, -1.041e-6, -6.018e-7, 4.388e-7
0.186, -1.040e-6, -6.018e-7, 4.385e-7
0.185, -1.042e-6, -6.040e-7, 4.382e-7
0.184, -1.044e-6, -6.049e-7, 4.394e-7
0.183, -1.046e-6, -6.067e-7, 4.391e-7
0.182, -1.048e-6, -6.079e-7, 4.403e-7
0.181, -1.051e-6, -6.076e-7, 4.436e-7
0.180, -1.053e-6, -6.119e-7, 4.415e-7
0.179, -1.056e-6, -6.125e-7, 4.440e-7
0.178, -1.058e-6, -6.122e-7, 4.455e-7
0.177, -1.060e-6, -6.159e-7, 4.436e-7
0.176, -1.063e-6, -6.171e-7, 4.464e-7
0.175, -1.064e-6, -6.168e-7, 4.476e-7
0.174, -1.065e-6, -6.186e-7, 4.464e-7
0.173, -1.070e-6, -6.207e-7, 4.494e-7
0.172, -1.072e-6, -6.207e-7, 4.516e-7
0.171, -1.073e-6, -6.235e-7, 4.491e-7
0.170, -1.079e-6, -6.259e-7, 4.531e-7
0.169, -1.080e-6, -6.253e-7, 4.549e-7
0.168, -1.078e-6, -6.259e-7, 4.525e-7
0.167, -1.084e-6, -6.293e-7, 4.549e-7
0.166, -1.087e-6, -6.296e-7, 4.571e-7
0.165, -1.088e-6, -6.317e-7, 4.565e-7
0.164, -1.092e-6, -6.330e-7, 4.592e-7
0.163, -1.094e-6, -6.354e-7, 4.586e-7
0.162, -1.094e-6, -6.354e-7, 4.583e-7
0.161, -1.098e-6, -6.375e-7, 4.604e-7
0.160, -1.102e-6, -6.391e-7, 4.629e-7
0.159, -1.103e-6, -6.409e-7, 4.626e-7
0.158, -1.105e-6, -6.409e-7, 4.638e-7
0.157, -1.107e-6, -6.424e-7, 4.647e-7
0.156, -1.110e-6, -6.449e-7, 4.656e-7
0.155, -1.112e-6, -6.464e-7, 4.656e-7
0.154, -1.115e-6, -6.488e-7, 4.665e-7
0.153, -1.117e-6, -6.491e-7, 4.678e-7
0.152, -1.119e-6, -6.507e-7, 4.684e-7
0.151, -1.123e-6, -6.528e-7, 4.705e-7
0.150, -1.126e-6, -6.543e-7, 4.714e-7
0.149, -1.129e-6, -6.549e-7, 4.739e-7
0.148, -1.130e-6, -6.574e-7, 4.723e-7
0.147, -1.133e-6, -6.583e-7, 4.748e-7
0.146, -1.135e-6, -6.595e-7, 4.760e-7
0.145, -1.137e-6, -6.616e-7, 4.757e-7
0.144, -1.143e-6, -6.638e-7, 4.787e-7
0.143, -1.145e-6, -6.638e-7, 4.809e-7
0.142, -1.147e-6, -6.668e-7, 4.800e-7
0.141, -1.148e-6, -6.662e-7, 4.821e-7
0.140, -1.150e-6, -6.680e-7, 4.821e-7
0.139, -1.155e-6, -6.717e-7, 4.836e-7
0.138, -1.157e-6, -6.714e-7, 4.861e-7
0.137, -1.160e-6, -6.735e-7, 4.861e-7
0.136, -1.163e-6, -6.757e-7, 4.873e-7
0.135, -1.165e-6, -6.772e-7, 4.879e-7
0.134, -1.167e-6, -6.787e-7, 4.882e-7
0.133, -1.171e-6, -6.806e-7, 4.900e-7
0.132, -1.175e-6, -6.812e-7, 4.934e-7
0.131, -1.176e-6, -6.842e-7, 4.919e-7
0.130, -1.179e-6, -6.851e-7, 4.940e-7
0.129, -1.181e-6, -6.854e-7, 4.955e-7
0.128, -1.184e-6, -6.882e-7, 4.958e-7
0.127, -1.189e-6, -6.909e-7, 4.977e-7
0.126, -1.190e-6, -6.897e-7, 4.998e-7
0.125, -1.194e-6, -6.940e-7, 4.998e-7
0.124, -1.197e-6, -6.949e-7, 5.025e-7
0.123, -1.200e-6, -6.958e-7, 5.041e-7
0.122, -1.202e-6, -6.983e-7, 5.038e-7
0.121, -1.206e-6, -6.998e-7, 5.065e-7
0.120, -1.208e-6, -6.995e-7, 5.086e-7
0.119, -1.212e-6, -7.034e-7, 5.083e-7
0.118, -1.215e-6, -7.050e-7, 5.102e-7
0.117, -1.215e-6, -7.047e-7, 5.102e-7
0.116, -1.218e-6, -7.083e-7, 5.102e-7
0.115, -1.223e-6, -7.089e-7, 5.144e-7
0.114, -1.224e-6, -7.095e-7, 5.144e-7
0.113, -1.229e-6, -7.135e-7, 5.160e-7
0.112, -1.232e-6, -7.129e-7, 5.190e-7
0.111, -1.233e-6, -7.150e-7, 5.181e-7
0.110, -1.237e-6, -7.181e-7, 5.190e-7
0.109, -1.242e-6, -7.196e-7, 5.227e-7
0.108, -1.242e-6, -7.193e-7, 5.224e-7
0.107, -1.247e-6, -7.245e-7, 5.221e-7
0.106, -1.250e-6, -7.233e-7, 5.266e-7
0.105, -1.252e-6, -7.251e-7, 5.266e-7
0.104, -1.256e-6, -7.282e-7, 5.276e-7
0.103, -1.258e-6, -7.282e-7, 5.300e-7
0.102, -1.260e-6, -7.300e-7, 5.303e-7
0.101, -1.264e-6, -7.321e-7, 5.318e-7
0.100, -1.267e-6, -7.340e-7, 5.328e-7
0.099, -1.270e-6, -7.346e-7, 5.355e-7
0.098, -1.275e-6, -7.373e-7, 5.373e-7
0.097, -1.276e-6, -7.398e-7, 5.367e-7
0.096, -1.280e-6, -7.395e-7, 5.401e-7
0.095, -1.282e-6, -7.410e-7, 5.410e-7
0.094, -1.284e-6, -7.416e-7, 5.422e-7
0.093, -1.288e-6, -7.449e-7, 5.428e-7
0.092, -1.292e-6, -7.456e-7, 5.462e-7
0.091, -1.294e-6, -7.477e-7, 5.459e-7
0.090, -1.298e-6, -7.507e-7, 5.477e-7
0.089, -1.300e-6, -7.501e-7, 5.495e-7
0.088, -1.303e-6, -7.526e-7, 5.508e-7
0.087, -1.307e-6, -7.541e-7, 5.529e-7
0.086, -1.310e-6, -7.547e-7, 5.556e-7
0.085, -1.310e-6, -7.553e-7, 5.547e-7
0.084, -1.316e-6, -7.587e-7, 5.569e-7
0.083, -1.316e-6, -7.575e-7, 5.590e-7
0.082, -1.321e-6, -7.614e-7, 5.596e-7
0.081, -1.323e-6, -7.623e-7, 5.605e-7
0.080, -1.326e-6, -7.636e-7, 5.620e-7
0.079, -1.327e-6, -7.648e-7, 5.624e-7
0.078, -1.331e-6, -7.663e-7, 5.651e-7
0.077, -1.334e-6, -7.681e-7, 5.663e-7
0.076, -1.337e-6, -7.700e-7, 5.666e-7
0.075, -1.341e-6, -7.709e-7, 5.703e-7
0.074, -1.341e-6, -7.709e-7, 5.706e-7
0.073, -1.345e-6, -7.736e-7, 5.715e-7
0.072, -1.348e-6, -7.755e-7, 5.730e-7
0.071, -1.350e-6, -7.736e-7, 5.761e-7
0.070, -1.352e-6, -7.773e-7, 5.752e-7
0.069, -1.356e-6, -7.782e-7, 5.776e-7
0.068, -1.358e-6, -7.788e-7, 5.788e-7
0.067, -1.362e-6, -7.806e-7, 5.813e-7
0.066, -1.365e-6, -7.822e-7, 5.825e-7
0.065, -1.365e-6, -7.819e-7, 5.834e-7
0.064, -1.370e-6, -7.843e-7, 5.852e-7
0.063, -1.371e-6, -7.840e-7, 5.868e-7
0.062, -1.374e-6, -7.868e-7, 5.874e-7
0.061, -1.376e-6, -7.874e-7, 5.883e-7
0.060, -1.379e-6, -7.877e-7, 5.916e-7
0.059, -1.378e-6, -7.883e-7, 5.895e-7
0.058, -1.383e-6, -7.907e-7, 5.926e-7
0.057, -1.386e-6, -7.910e-7, 5.947e-7
0.056, -1.387e-6, -7.925e-7, 5.941e-7
0.055, -1.392e-6, -7.941e-7, 5.981e-7
0.054, -1.394e-6, -7.950e-7, 5.993e-7
0.053, -1.392e-6, -7.944e-7, 5.981e-7
0.052, -1.398e-6, -7.971e-7, 6.005e-7
0.051, -1.398e-6, -7.947e-7, 6.035e-7
0.050, -1.400e-6, -7.977e-7, 6.026e-7
0.049, -1.403e-6, -7.993e-7, 6.039e-7
0.048, -1.406e-6, -7.983e-7, 6.075e-7
0.047, -1.408e-6, -8.011e-7, 6.066e-7
0.046, -1.412e-6, -8.026e-7, 6.093e-7
0.045, -1.410e-6, -8.002e-7, 6.097e-7
0.044, -1.413e-6, -8.026e-7, 6.109e-7
0.043, -1.418e-6, -8.045e-7, 6.136e-7
0.042, -1.418e-6, -8.048e-7, 6.133e-7
0.041, -1.421e-6, -8.072e-7, 6.142e-7
0.040, -1.421e-6, -8.051e-7, 6.161e-7
0.039, -1.424e-6, -8.063e-7, 6.176e-7
0.038, -1.424e-6, -8.060e-7, 6.185e-7
0.037, -1.428e-6, -8.075e-7, 6.203e-7
0.036, -1.429e-6, -8.081e-7, 6.209e-7
0.035, -1.430e-6, -8.075e-7, 6.225e-7
0.034, -1.433e-6, -8.099e-7, 6.231e-7
0.033, -1.433e-6, -8.093e-7, 6.240e-7
0.032, -1.437e-6, -8.115e-7, 6.255e-7
0.031, -1.437e-6, -8.099e-7, 6.274e-7
0.030, -1.438e-6, -8.118e-7, 6.264e-7
0.029, -1.442e-6, -8.124e-7, 6.292e-7
0.028, -1.443e-6, -8.118e-7, 6.316e-7
0.027, -1.444e-6, -8.136e-7, 6.304e-7
0.026, -1.445e-6, -8.124e-7, 6.328e-7
0.025, -1.445e-6, -8.121e-7, 6.328e-7
0.024, -1.447e-6, -8.145e-7, 6.325e-7
0.023, -1.451e-6, -8.142e-7, 6.365e-7
0.022, -1.452e-6, -8.151e-7, 6.368e-7
0.021, -1.453e-6, -8.154e-7, 6.374e-7
0.020, -1.453e-6, -8.148e-7, 6.380e-7
0.019, -1.455e-6, -8.154e-7, 6.396e-7
0.018, -1.456e-6, -8.160e-7, 6.399e-7
0.017, -1.456e-6, -8.154e-7, 6.402e-7
0.016, -1.458e-6, -8.154e-7, 6.426e-7
0.015, -1.458e-6, -8.154e-7, 6.429e-7
0.014, -1.461e-6, -8.151e-7, 6.460e-7
0.013, -1.462e-6, -8.154e-7, 6.466e-7
0.012, -1.463e-6, -8.173e-7, 6.457e-7
0.011, -1.464e-6, -8.142e-7, 6.493e-7
0.010, -1.463e-6, -8.157e-7, 6.469e-7
0.009, -1.466e-6, -8.167e-7, 6.496e-7
0.008, -1.466e-6, -8.148e-7, 6.515e-7
0.007, -1.466e-6, -8.157e-7, 6.505e-7
0.006, -1.469e-6, -8.170e-7, 6.518e-7
0.005, -1.470e-6, -8.157e-7, 6.542e-7
0.004, -1.470e-6, -8.170e-7, 6.533e-7
0.003, -1.472e-6, -8.167e-7, 6.557e-7
0.002, -1.471e-6, -8.151e-7, 6.563e-7
0.001, -1.473e-6, -8.164e-7, 6.566e-7
0.000, -1.474e-6, -8.151e-7, 6.585e-7
-0.001, -1.474e-6, -8.145e-7, 6.591e-7
-0.002, -1.473e-6, -8.145e-7, 6.588e-7
-0.003, -1.477e-6, -8.154e-7, 6.618e-7
-0.004, -1.474e-6, -8.136e-7, 6.606e-7
-0.005, -1.474e-6, -8.136e-7, 6.606e-7
-0.006, -1.475e-6, -8.118e-7, 6.627e-7
-0.007, -1.475e-6, -8.121e-7, 6.634e-7
-0.008, -1.476e-6, -8.139e-7, 6.621e-7
-0.009, -1.476e-6, -8.112e-7, 6.652e-7
-0.010, -1.475e-6, -8.109e-7, 6.640e-7
-0.011, -1.478e-6, -8.124e-7, 6.655e-7
-0.012, -1.479e-6, -8.115e-7, 6.679e-7
-0.013, -1.476e-6, -8.090e-7, 6.673e-7
-0.014, -1.478e-6, -8.112e-7, 6.667e-7
-0.015, -1.480e-6, -8.099e-7, 6.698e-7
-0.016, -1.478e-6, -8.096e-7, 6.685e-7
-0.017, -1.478e-6, -8.090e-7, 6.692e-7
-0.018, -1.478e-6, -8.075e-7, 6.707e-7
-0.019, -1.477e-6, -8.066e-7, 6.704e-7
-0.020, -1.478e-6, -8.063e-7, 6.713e-7
-0.021, -1.478e-6, -8.063e-7, 6.719e-7
-0.022, -1.477e-6, -8.051e-7, 6.719e-7
-0.023, -1.476e-6, -8.048e-7, 6.713e-7
-0.024, -1.479e-6, -8.041e-7, 6.746e-7
-0.025, -1.478e-6, -8.032e-7, 6.743e-7
-0.026, -1.478e-6, -8.026e-7, 6.753e-7
-0.027, -1.477e-6, -8.020e-7, 6.753e-7
-0.028, -1.478e-6, -8.008e-7, 6.768e-7
-0.029, -1.478e-6, -8.014e-7, 6.768e-7
-0.030, -1.478e-6, -8.014e-7, 6.762e-7
-0.031, -1.477e-6, -7.996e-7, 6.771e-7
-0.032, -1.475e-6, -7.977e-7, 6.771e-7
-0.033, -1.475e-6, -7.974e-7, 6.771e-7
-0.034, -1.474e-6, -7.977e-7, 6.762e-7
-0.035, -1.474e-6, -7.959e-7, 6.783e-7
-0.036, -1.475e-6, -7.953e-7, 6.792e-7
-0.037, -1.473e-6, -7.959e-7, 6.774e-7
-0.038, -1.472e-6, -7.926e-7, 6.795e-7
-0.039, -1.470e-6, -7.916e-7, 6.786e-7
-0.040, -1.471e-6, -7.922e-7, 6.786e-7
-0.041, -1.469e-6, -7.892e-7, 6.795e-7
-0.042, -1.468e-6, -7.889e-7, 6.786e-7
-0.043, -1.468e-6, -7.889e-7, 6.792e-7
-0.044, -1.468e-6, -7.868e-7, 6.814e-7
-0.045, -1.465e-6, -7.861e-7, 6.789e-7
-0.046, -1.465e-6, -7.849e-7, 6.798e-7
-0.047, -1.463e-6, -7.828e-7, 6.801e-7
-0.048, -1.464e-6, -7.840e-7, 6.801e-7
-0.049, -1.462e-6, -7.819e-7, 6.804e-7
-0.050, -1.460e-6, -7.794e-7, 6.811e-7
-0.051, -1.458e-6, -7.794e-7, 6.786e-7
-0.052, -1.460e-6, -7.788e-7, 6.814e-7
-0.053, -1.455e-6, -7.752e-7, 6.798e-7
-0.054, -1.456e-6, -7.764e-7, 6.792e-7
-0.055, -1.454e-6, -7.736e-7, 6.808e-7
-0.056, -1.453e-6, -7.721e-7, 6.804e-7
-0.057, -1.452e-6, -7.727e-7, 6.795e-7
-0.058, -1.450e-6, -7.691e-7, 6.814e-7
-0.059, -1.448e-6, -7.694e-7, 6.789e-7
-0.060, -1.446e-6, -7.675e-7, 6.789e-7
-0.061, -1.446e-6, -7.666e-7, 6.795e-7
-0.062, -1.443e-6, -7.651e-7, 6.783e-7
-0.063, -1.445e-6, -7.654e-7, 6.792e-7
-0.064, -1.442e-6, -7.617e-7, 6.801e-7
-0.065, -1.441e-6, -7.630e-7, 6.777e-7
-0.066, -1.440e-6, -7.617e-7, 6.786e-7
-0.067, -1.439e-6, -7.578e-7, 6.808e-7
-0.068, -1.434e-6, -7.568e-7, 6.771e-7
-0.069, -1.435e-6, -7.568e-7, 6.783e-7
-0.070, -1.431e-6, -7.529e-7, 6.783e-7
-0.071, -1.431e-6, -7.547e-7, 6.759e-7
-0.072, -1.430e-6, -7.532e-7, 6.771e-7
-0.073, -1.429e-6, -7.501e-7, 6.786e-7
-0.074, -1.425e-6, -7.498e-7, 6.756e-7
-0.075, -1.424e-6, -7.486e-7, 6.750e-7
-0.076, -1.422e-6, -7.468e-7, 6.750e-7
-0.077, -1.421e-6, -7.462e-7, 6.746e-7
-0.078, -1.421e-6, -7.453e-7, 6.759e-7
-0.079, -1.417e-6, -7.422e-7, 6.743e-7
-0.080, -1.413e-6, -7.410e-7, 6.722e-7
-0.081, -1.413e-6, -7.398e-7, 6.737e-7
-0.082, -1.411e-6, -7.376e-7, 6.731e-7
-0.083, -1.410e-6, -7.379e-7, 6.722e-7
-0.084, -1.408e-6, -7.364e-7, 6.719e-7
-0.085, -1.404e-6, -7.337e-7, 6.707e-7
-0.086, -1.406e-6, -7.343e-7, 6.713e-7
-0.087, -1.403e-6, -7.306e-7, 6.719e-7
-0.088, -1.400e-6, -7.303e-7, 6.695e-7
-0.089, -1.399e-6, -7.288e-7, 6.698e-7
-0.090, -1.396e-6, -7.276e-7, 6.685e-7
-0.091, -1.394e-6, -7.254e-7, 6.689e-7
-0.092, -1.391e-6, -7.233e-7, 6.673e-7
-0.093, -1.389e-6, -7.224e-7, 6.664e-7
-0.094, -1.388e-6, -7.214e-7, 6.661e-7
-0.095, -1.387e-6, -7.202e-7, 6.670e-7
-0.096, -1.383e-6, -7.184e-7, 6.649e-7
-0.097, -1.384e-6, -7.181e-7, 6.655e-7
-0.098, -1.380e-6, -7.150e-7, 6.649e-7
-0.099, -1.376e-6, -7.135e-7, 6.621e-7
-0.100, -1.376e-6, -7.132e-7, 6.624e-7
-0.101, -1.374e-6, -7.129e-7, 6.615e-7
-0.102, -1.370e-6, -7.095e-7, 6.609e-7
-0.103, -1.371e-6, -7.111e-7, 6.597e-7
-0.104, -1.367e-6, -7.077e-7, 6.594e-7
-0.105, -1.365e-6, -7.056e-7, 6.591e-7
-0.106, -1.363e-6, -7.044e-7, 6.588e-7
-0.107, -1.361e-6, -7.038e-7, 6.576e-7
-0.108, -1.358e-6, -7.007e-7, 6.573e-7
-0.109, -1.356e-6, -7.007e-7, 6.557e-7
-0.110, -1.356e-6, -6.989e-7, 6.573e-7
-0.111, -1.352e-6, -6.973e-7, 6.542e-7
-0.112, -1.350e-6, -6.964e-7, 6.536e-7
-0.113, -1.350e-6, -6.949e-7, 6.548e-7
-0.114, -1.346e-6, -6.931e-7, 6.533e-7
-0.115, -1.345e-6, -6.925e-7, 6.521e-7
-0.116, -1.341e-6, -6.900e-7, 6.515e-7
-0.117, -1.342e-6, -6.928e-7, 6.493e-7
-0.118, -1.340e-6, -6.882e-7, 6.515e-7
-0.119, -1.337e-6, -6.864e-7, 6.502e-7
-0.120, -1.336e-6, -6.870e-7, 6.490e-7
-0.121, -1.332e-6, -6.845e-7, 6.475e-7
-0.122, -1.331e-6, -6.824e-7, 6.484e-7
-0.123, -1.333e-6, -6.861e-7, 6.472e-7
-0.124, -1.329e-6, -6.824e-7, 6.466e-7
-0.125, -1.325e-6, -6.787e-7, 6.460e-7
-0.126, -1.323e-6, -6.787e-7, 6.438e-7
-0.127, -1.323e-6, -6.790e-7, 6.441e-7
-0.128, -1.321e-6, -6.784e-7, 6.423e-7
-0.129, -1.320e-6, -6.775e-7, 6.420e-7
-0.130, -1.317e-6, -6.742e-7, 6.426e-7
-0.131, -1.313e-6, -6.723e-7, 6.411e-7
-0.132, -1.312e-6, -6.720e-7, 6.396e-7
-0.133, -1.311e-6, -6.702e-7, 6.411e-7
-0.134, -1.307e-6, -6.687e-7, 6.386e-7
-0.135, -1.306e-6, -6.699e-7, 6.359e-7
-0.136, -1.305e-6, -6.680e-7, 6.371e-7
-0.137, -1.300e-6, -6.650e-7, 6.347e-7
-0.138, -1.301e-6, -6.662e-7, 6.350e-7
-0.139, -1.301e-6, -6.641e-7, 6.365e-7
-0.140, -1.295e-6, -6.626e-7, 6.328e-7
-0.141, -1.295e-6, -6.626e-7, 6.322e-7
-0.142, -1.293e-6, -6.604e-7, 6.328e-7
-0.143, -1.290e-6, -6.592e-7, 6.310e-7
-0.144, -1.291e-6, -6.604e-7, 6.310e-7
-0.145, -1.288e-6, -6.580e-7, 6.304e-7
-0.146, -1.286e-6, -6.565e-7, 6.292e-7
-0.147, -1.284e-6, -6.558e-7, 6.283e-7
-0.148, -1.284e-6, -6.549e-7, 6.292e-7
-0.149, -1.280e-6, -6.537e-7, 6.267e-7
-0.150, -1.280e-6, -6.537e-7, 6.261e-7
-0.151, -1.279e-6, -6.531e-7, 6.255e-7
-0.152, -1.277e-6, -6.525e-7, 6.243e-7
-0.153, -1.276e-6, -6.513e-7, 6.243e-7
-0.154, -1.273e-6, -6.485e-7, 6.249e-7
-0.155, -1.273e-6, -6.507e-7, 6.225e-7
-0.156, -1.268e-6, -6.464e-7, 6.212e-7
-0.157, -1.267e-6, -6.467e-7, 6.203e-7
-0.158, -1.268e-6, -6.479e-7, 6.203e-7
-0.159, -1.263e-6, -6.446e-7, 6.188e-7
-0.160, -1.262e-6, -6.433e-7, 6.188e-7
-0.161, -1.261e-6, -6.433e-7, 6.173e-7
-0.162, -1.260e-6, -6.427e-7, 6.173e-7
-0.163, -1.259e-6, -6.424e-7, 6.164e-7
-0.164, -1.256e-6, -6.409e-7, 6.154e-7
-0.165, -1.254e-6, -6.394e-7, 6.145e-7
-0.166, -1.254e-6, -6.409e-7, 6.130e-7
-0.167, -1.252e-6, -6.388e-7, 6.136e-7
-0.168, -1.249e-6, -6.360e-7, 6.127e-7
-0.169, -1.249e-6, -6.375e-7, 6.118e-7
-0.170, -1.247e-6, -6.363e-7, 6.106e-7
-0.171, -1.247e-6, -6.369e-7, 6.100e-7
-0.172, -1.244e-6, -6.354e-7, 6.087e-7
-0.173, -1.244e-6, -6.354e-7, 6.087e-7
-0.174, -1.239e-6, -6.311e-7, 6.078e-7
-0.175, -1.240e-6, -6.339e-7, 6.057e-7
-0.176, -1.237e-6, -6.317e-7, 6.051e-7
-0.177, -1.237e-6, -6.308e-7, 6.060e-7
-0.178, -1.235e-6, -6.305e-7, 6.042e-7
-0.179, -1.233e-6, -6.278e-7, 6.051e-7
-0.180, -1.231e-6, -6.293e-7, 6.014e-7
-0.181, -1.228e-6, -6.275e-7, 6.008e-7
-0.182, -1.229e-6, -6.265e-7, 6.020e-7
-0.183, -1.226e-6, -6.250e-7, 6.005e-7
-0.184, -1.227e-6, -6.275e-7, 5.999e-7
-0.185, -1.224e-6, -6.235e-7, 6.008e-7
-0.186, -1.220e-6, -6.226e-7, 5.974e-7
-0.187, -1.221e-6, -6.247e-7, 5.965e-7
-0.188, -1.219e-6, -6.211e-7, 5.977e-7
-0.189, -1.217e-6, -6.217e-7, 5.956e-7
-0.190, -1.218e-6, -6.220e-7, 5.959e-7
-0.191, -1.215e-6, -6.192e-7, 5.959e-7
-0.192, -1.213e-6, -6.207e-7, 5.926e-7
-0.193, -1.215e-6, -6.214e-7, 5.938e-7
-0.194, -1.214e-6, -6.198e-7, 5.944e-7
-0.195, -1.210e-6, -6.189e-7, 5.913e-7
-0.196, -1.208e-6, -6.177e-7, 5.901e-7
-0.197, -1.210e-6, -6.177e-7, 5.926e-7
-0.198, -1.203e-6, -6.150e-7, 5.883e-7
-0.199, -1.205e-6, -6.168e-7, 5.883e-7
-0.200, -1.205e-6, -6.168e-7, 5.886e-7
-0.201, -1.200e-6, -6.146e-7, 5.855e-7
-0.202, -1.200e-6, -6.146e-7, 5.858e-7
-0.203, -1.201e-6, -6.131e-7, 5.877e-7
-0.204, -1.197e-6, -6.131e-7, 5.843e-7
-0.205, -1.200e-6, -6.143e-7, 5.858e-7
-0.206, -1.194e-6, -6.104e-7, 5.837e-7
-0.207, -1.196e-6, -6.119e-7, 5.840e-7
-0.208, -1.194e-6, -6.110e-7, 5.834e-7
-0.209, -1.190e-6, -6.095e-7, 5.810e-7
-0.210, -1.189e-6, -6.085e-7, 5.800e-7
-0.211, -1.189e-6, -6.079e-7, 5.813e-7
-0.212, -1.188e-6, -6.082e-7, 5.800e-7
-0.213, -1.185e-6, -6.064e-7, 5.785e-7
-0.214, -1.187e-6, -6.067e-7, 5.804e-7
-0.215, -1.185e-6, -6.070e-7, 5.782e-7
-0.216, -1.187e-6, -6.098e-7, 5.773e-7
-0.217, -1.185e-6, -6.079e-7, 5.770e-7
-0.218, -1.184e-6, -6.067e-7, 5.770e-7
-0.219, -1.179e-6, -6.049e-7, 5.746e-7
-0.220, -1.178e-6, -6.024e-7, 5.755e-7
-0.221, -1.178e-6, -6.040e-7, 5.743e-7
-0.222, -1.178e-6, -6.049e-7, 5.730e-7
-0.223, -1.175e-6, -6.015e-7, 5.736e-7
-0.224, -1.175e-6, -6.027e-7, 5.724e-7
-0.225, -1.176e-6, -6.027e-7, 5.733e-7
-0.226, -1.172e-6, -6.009e-7, 5.712e-7
-0.227, -1.176e-6, -6.037e-7, 5.727e-7
-0.228, -1.170e-6, -5.997e-7, 5.703e-7
-0.229, -1.169e-6, -6.003e-7, 5.691e-7
-0.230, -1.170e-6, -6.003e-7, 5.694e-7
-0.231, -1.170e-6, -5.991e-7, 5.709e-7
-0.232, -1.168e-6, -5.988e-7, 5.694e-7
-0.233, -1.165e-6, -5.976e-7, 5.678e-7
-0.234, -1.165e-6, -5.963e-7, 5.688e-7
-0.235, -1.163e-6, -5.963e-7, 5.669e-7
-0.236, -1.164e-6, -5.963e-7, 5.672e-7
-0.237, -1.163e-6, -5.957e-7, 5.672e-7
-0.238, -1.165e-6, -6.003e-7, 5.648e-7
-0.239, -1.161e-6, -5.954e-7, 5.657e-7
-0.240, -1.160e-6, -5.945e-7, 5.651e-7
-0.241, -1.160e-6, -5.954e-7, 5.645e-7
-0.242, -1.159e-6, -5.966e-7, 5.627e-7
-0.243, -1.157e-6, -5.942e-7, 5.630e-7
-0.244, -1.159e-6, -5.969e-7, 5.617e-7
-0.245, -1.159e-6, -5.960e-7, 5.633e-7
-0.246, -1.153e-6, -5.908e-7, 5.617e-7
-0.247, -1.152e-6, -5.921e-7, 5.596e-7
-0.248, -1.154e-6, -5.927e-7, 5.611e-7
-0.249, -1.152e-6, -5.915e-7, 5.608e-7
-0.250, -1.149e-6, -5.902e-7, 5.584e-7
-0.251, -1.151e-6, -5.908e-7, 5.605e-7
-0.252, -1.146e-6, -5.869e-7, 5.590e-7
-0.253, -1.148e-6, -5.899e-7, 5.584e-7
-0.254, -1.148e-6, -5.899e-7, 5.584e-7
-0.255, -1.148e-6, -5.896e-7, 5.587e-7
-0.256, -1.146e-6, -5.899e-7, 5.559e-7
-0.257, -1.147e-6, -5.881e-7, 5.587e-7
-0.258, -1.144e-6, -5.869e-7, 5.572e-7
-0.259, -1.146e-6, -5.905e-7, 5.559e-7
-0.260, -1.144e-6, -5.857e-7, 5.587e-7
-0.261, -1.142e-6, -5.857e-7, 5.559e-7
-0.262, -1.143e-6, -5.872e-7, 5.556e-7
-0.263, -1.144e-6, -5.893e-7, 5.550e-7
-0.264, -1.141e-6, -5.860e-7, 5.553e-7
-0.265, -1.144e-6, -5.893e-7, 5.544e-7
-0.266, -1.140e-6, -5.847e-7, 5.556e-7
-0.267, -1.139e-6, -5.841e-7, 5.544e-7
-0.268, -1.138e-6, -5.847e-7, 5.532e-7
-0.269, -1.136e-6, -5.832e-7, 5.532e-7
-0.270, -1.136e-6, -5.829e-7, 5.532e-7
-0.271, -1.135e-6, -5.823e-7, 5.532e-7
-0.272, -1.138e-6, -5.844e-7, 5.535e-7
-0.273, -1.135e-6, -5.826e-7, 5.526e-7
-0.274, -1.135e-6, -5.820e-7, 5.526e-7
-0.275, -1.134e-6, -5.820e-7, 5.523e-7
-0.276, -1.131e-6, -5.811e-7, 5.501e-7
-0.277, -1.131e-6, -5.805e-7, 5.508e-7
-0.278, -1.132e-6, -5.811e-7, 5.508e-7
-0.279, -1.128e-6, -5.792e-7, 5.489e-7
-0.280, -1.131e-6, -5.802e-7, 5.508e-7
-0.281, -1.132e-6, -5.814e-7, 5.501e-7
-0.282, -1.127e-6, -5.780e-7, 5.486e-7
-0.283, -1.129e-6, -5.786e-7, 5.504e-7
-0.284, -1.126e-6, -5.783e-7, 5.477e-7
-0.285, -1.128e-6, -5.796e-7, 5.480e-7
-0.286, -1.127e-6, -5.786e-7, 5.480e-7
-0.287, -1.126e-6, -5.786e-7, 5.471e-7
-0.288, -1.125e-6, -5.777e-7, 5.477e-7
-0.289, -1.124e-6, -5.765e-7, 5.477e-7
-0.290, -1.124e-6, -5.765e-7, 5.471e-7
-0.291, -1.122e-6, -5.759e-7, 5.465e-7
-0.292, -1.123e-6, -5.771e-7, 5.459e-7
-0.293, -1.119e-6, -5.744e-7, 5.450e-7
-0.294, -1.121e-6, -5.753e-7, 5.453e-7
-0.295, -1.120e-6, -5.744e-7, 5.459e-7
-0.296, -1.119e-6, -5.753e-7, 5.437e-7
-0.297, -1.119e-6, -5.753e-7, 5.440e-7
-0.298, -1.117e-6, -5.734e-7, 5.440e-7
-0.299, -1.117e-6, -5.734e-7, 5.440e-7
-0.300, -1.120e-6, -5.759e-7, 5.437e-7
-0.301, -1.118e-6, -5.753e-7, 5.425e-7
-0.302, -1.117e-6, -5.747e-7, 5.425e-7
-0.303, -1.115e-6, -5.722e-7, 5.425e-7
-0.304, -1.112e-6, -5.719e-7, 5.398e-7
-0.305, -1.114e-6, -5.738e-7, 5.407e-7
-0.306, -1.111e-6, -5.698e-7, 5.416e-7
-0.307, -1.109e-6, -5.689e-7, 5.401e-7
-0.308, -1.115e-6, -5.738e-7, 5.410e-7
-0.309, -1.110e-6, -5.689e-7, 5.410e-7
-0.310, -1.110e-6, -5.707e-7, 5.395e-7
-0.311, -1.110e-6, -5.707e-7, 5.398e-7
-0.312, -1.109e-6, -5.695e-7, 5.395e-7
-0.313, -1.108e-6, -5.701e-7, 5.382e-7
-0.314, -1.108e-6, -5.692e-7, 5.389e-7
-0.315, -1.104e-6, -5.670e-7, 5.373e-7
-0.316, -1.105e-6, -5.683e-7, 5.370e-7
-0.317, -1.107e-6, -5.689e-7, 5.385e-7
-0.318, -1.104e-6, -5.664e-7, 5.379e-7
-0.319, -1.103e-6, -5.667e-7, 5.358e-7
-0.320, -1.103e-6, -5.667e-7, 5.361e-7
-0.321, -1.100e-6, -5.643e-7, 5.358e-7
-0.322, -1.101e-6, -5.661e-7, 5.352e-7
-0.323, -1.102e-6, -5.677e-7, 5.343e-7
-0.324, -1.100e-6, -5.646e-7, 5.358e-7
-0.325, -1.099e-6, -5.652e-7, 5.337e-7
-0.326, -1.101e-6, -5.670e-7, 5.337e-7
-0.327, -1.098e-6, -5.640e-7, 5.340e-7
-0.328, -1.098e-6, -5.661e-7, 5.315e-7
-0.329, -1.097e-6, -5.637e-7, 5.331e-7
-0.330, -1.095e-6, -5.646e-7, 5.303e-7
-0.331, -1.093e-6, -5.628e-7, 5.300e-7
-0.332, -1.097e-6, -5.649e-7, 5.318e-7
-0.333, -1.092e-6, -5.625e-7, 5.294e-7
-0.334, -1.093e-6, -5.631e-7, 5.297e-7
-0.335, -1.093e-6, -5.625e-7, 5.303e-7
-0.336, -1.092e-6, -5.628e-7, 5.288e-7
-0.337, -1.091e-6, -5.628e-7, 5.285e-7
-0.338, -1.094e-6, -5.655e-7, 5.288e-7
-0.339, -1.089e-6, -5.609e-7, 5.285e-7
-0.340, -1.092e-6, -5.643e-7, 5.276e-7
-0.341, -1.087e-6, -5.603e-7, 5.263e-7
-0.342, -1.088e-6, -5.615e-7, 5.260e-7
-0.343, -1.087e-6, -5.615e-7, 5.257e-7
-0.344, -1.084e-6, -5.591e-7, 5.251e-7
-0.345, -1.086e-6, -5.619e-7, 5.242e-7
-0.346, -1.084e-6, -5.597e-7, 5.245e-7
-0.347, -1.084e-6, -5.597e-7, 5.239e-7
-0.348, -1.085e-6, -5.622e-7, 5.230e-7
-0.349, -1.084e-6, -5.600e-7, 5.236e-7
-0.350, -1.081e-6, -5.591e-7, 5.221e-7
-0.351, -1.079e-6, -5.591e-7, 5.202e-7
-0.352, -1.083e-6, -5.594e-7, 5.233e-7
-0.353, -1.081e-6, -5.603e-7, 5.202e-7
-0.354, -1.081e-6, -5.603e-7, 5.212e-7
-0.355, -1.082e-6, -5.609e-7, 5.208e-7
-0.356, -1.076e-6, -5.573e-7, 5.184e-7
-0.357, -1.078e-6, -5.588e-7, 5.187e-7
-0.358, -1.077e-6, -5.573e-7, 5.196e-7
-0.359, -1.077e-6, -5.603e-7, 5.169e-7
-0.360, -1.076e-6, -5.582e-7, 5.175e-7
-0.361, -1.077e-6, -5.591e-7, 5.178e-7
-0.362, -1.075e-6, -5.588e-7, 5.163e-7
-0.363, -1.076e-6, -5.591e-7, 5.166e-7
-0.364, -1.075e-6, -5.591e-7, 5.160e-7
-0.365, -1.076e-6, -5.612e-7, 5.147e-7
-0.366, -1.075e-6, -5.600e-7, 5.150e-7
-0.367, -1.071e-6, -5.564e-7, 5.150e-7
-0.368, -1.074e-6, -5.606e-7, 5.129e-7
-0.369, -1.074e-6, -5.615e-7, 5.126e-7
-0.370, -1.073e-6, -5.594e-7, 5.138e-7
-0.371, -1.070e-6, -5.585e-7, 5.111e-7
-0.372, -1.069e-6, -5.564e-7, 5.126e-7
-0.373, -1.068e-6, -5.561e-7, 5.123e-7
-0.374, -1.071e-6, -5.603e-7, 5.105e-7
-0.375, -1.068e-6, -5.579e-7, 5.105e-7
-0.376, -1.070e-6, -5.591e-7, 5.111e-7
-0.377, -1.069e-6, -5.606e-7, 5.080e-7
-0.378, -1.068e-6, -5.576e-7, 5.102e-7
-0.379, -1.065e-6, -5.573e-7, 5.077e-7
-0.380, -1.064e-6, -5.585e-7, 5.059e-7
-0.381, -1.066e-6, -5.582e-7, 5.077e-7
-0.382, -1.066e-6, -5.597e-7, 5.065e-7
-0.383, -1.063e-6, -5.579e-7, 5.050e-7
-0.384, -1.066e-6, -5.603e-7, 5.059e-7
-0.385, -1.067e-6, -5.600e-7, 5.074e-7
-0.386, -1.064e-6, -5.597e-7, 5.044e-7
-0.387, -1.066e-6, -5.609e-7, 5.050e-7
-0.388, -1.064e-6, -5.591e-7, 5.050e-7
-0.389, -1.064e-6, -5.609e-7, 5.035e-7
-0.390, -1.062e-6, -5.603e-7, 5.016e-7
-0.391, -1.061e-6, -5.600e-7, 5.013e-7
-0.392, -1.063e-6, -5.619e-7, 5.013e-7
-0.393, -1.063e-6, -5.603e-7, 5.025e-7
-0.394, -1.063e-6, -5.615e-7, 5.013e-7
-0.395, -1.062e-6, -5.615e-7, 5.004e-7
-0.396, -1.061e-6, -5.609e-7, 5.004e-7
-0.397, -1.062e-6, -5.631e-7, 4.992e-7
-0.398, -1.061e-6, -5.625e-7, 4.989e-7
-0.399, -1.061e-6, -5.631e-7, 4.983e-7
-0.400, -1.061e-6, -5.628e-7, 4.986e-7
