Mar. 20, 2018   15:38:28
Square Wave Voltammetry
File: c:\users\electrochemist\desktop\2018\20032018_unbufarray_unpap\53_g1_ph8,52_3.txt
Data Source:  Experiment
Instrument Model:  CHI1040A
Header: 
Note: 

Init E (V) = 0.7
Final E (V) = -0.4
Incr E (V) = 0.001
Amplitude (V) = 0.1
Frequency (Hz) = 152
Quiet Time (sec) = 2
Sensitivity (A/V) = 1e-5

Difference:
Ep = -0.011V
ip = -2.320e-8A
Ap = -5.879e-9VA

Forward:

Reverse:
Ep = -0.081V
ip = 6.110e-10A
Ah = 6.122e-10VA

Potential/V, Diff(i/A), For(i/A), Rev(i/A)

0.699, -7.110e-7, -2.387e-7, 4.724e-7
0.698, -8.361e-7, -4.096e-7, 4.266e-7
0.697, -8.331e-7, -4.187e-7, 4.144e-7
0.696, -8.270e-7, -4.187e-7, 4.083e-7
0.695, -8.270e-7, -4.248e-7, 4.022e-7
0.694, -8.239e-7, -4.248e-7, 3.991e-7
0.693, -8.209e-7, -4.248e-7, 3.961e-7
0.692, -8.148e-7, -4.248e-7, 3.900e-7
0.691, -8.148e-7, -4.248e-7, 3.900e-7
0.690, -8.148e-7, -4.248e-7, 3.900e-7
0.689, -8.087e-7, -4.248e-7, 3.839e-7
0.688, -8.117e-7, -4.248e-7, 3.869e-7
0.687, -8.056e-7, -4.248e-7, 3.808e-7
0.686, -8.056e-7, -4.279e-7, 3.778e-7
0.685, -8.026e-7, -4.248e-7, 3.778e-7
0.684, -8.026e-7, -4.248e-7, 3.778e-7
0.683, -7.995e-7, -4.248e-7, 3.747e-7
0.682, -7.965e-7, -4.248e-7, 3.717e-7
0.681, -7.965e-7, -4.248e-7, 3.717e-7
0.680, -7.995e-7, -4.248e-7, 3.747e-7
0.679, -7.965e-7, -4.248e-7, 3.717e-7
0.678, -7.934e-7, -4.248e-7, 3.686e-7
0.677, -7.965e-7, -4.279e-7, 3.686e-7
0.676, -7.934e-7, -4.248e-7, 3.686e-7
0.675, -7.904e-7, -4.218e-7, 3.686e-7
0.674, -7.873e-7, -4.248e-7, 3.625e-7
0.673, -7.873e-7, -4.248e-7, 3.625e-7
0.672, -7.904e-7, -4.279e-7, 3.625e-7
0.671, -7.904e-7, -4.248e-7, 3.656e-7
0.670, -7.873e-7, -4.248e-7, 3.625e-7
0.669, -7.843e-7, -4.248e-7, 3.594e-7
0.668, -7.873e-7, -4.279e-7, 3.594e-7
0.667, -7.843e-7, -4.248e-7, 3.594e-7
0.666, -7.843e-7, -4.279e-7, 3.564e-7
0.665, -7.843e-7, -4.248e-7, 3.594e-7
0.664, -7.812e-7, -4.248e-7, 3.564e-7
0.663, -7.873e-7, -4.309e-7, 3.564e-7
0.662, -7.812e-7, -4.248e-7, 3.564e-7
0.661, -7.812e-7, -4.279e-7, 3.533e-7
0.660, -7.782e-7, -4.248e-7, 3.533e-7
0.659, -7.812e-7, -4.248e-7, 3.564e-7
0.658, -7.782e-7, -4.279e-7, 3.503e-7
0.657, -7.782e-7, -4.248e-7, 3.533e-7
0.656, -7.751e-7, -4.248e-7, 3.503e-7
0.655, -7.782e-7, -4.279e-7, 3.503e-7
0.654, -7.782e-7, -4.279e-7, 3.503e-7
0.653, -7.751e-7, -4.248e-7, 3.503e-7
0.652, -7.751e-7, -4.279e-7, 3.472e-7
0.651, -7.751e-7, -4.248e-7, 3.503e-7
0.650, -7.721e-7, -4.248e-7, 3.472e-7
0.649, -7.782e-7, -4.309e-7, 3.472e-7
0.648, -7.782e-7, -4.279e-7, 3.503e-7
0.647, -7.721e-7, -4.248e-7, 3.472e-7
0.646, -7.751e-7, -4.309e-7, 3.442e-7
0.645, -7.782e-7, -4.279e-7, 3.503e-7
0.644, -7.721e-7, -4.279e-7, 3.442e-7
0.643, -7.751e-7, -4.309e-7, 3.442e-7
0.642, -7.751e-7, -4.279e-7, 3.472e-7
0.641, -7.690e-7, -4.248e-7, 3.442e-7
0.640, -7.751e-7, -4.309e-7, 3.442e-7
0.639, -7.782e-7, -4.309e-7, 3.472e-7
0.638, -7.690e-7, -4.279e-7, 3.411e-7
0.637, -7.721e-7, -4.279e-7, 3.442e-7
0.636, -7.721e-7, -4.279e-7, 3.442e-7
0.635, -7.690e-7, -4.279e-7, 3.411e-7
0.634, -7.721e-7, -4.309e-7, 3.411e-7
0.633, -7.721e-7, -4.279e-7, 3.442e-7
0.632, -7.721e-7, -4.309e-7, 3.411e-7
0.631, -7.721e-7, -4.309e-7, 3.411e-7
0.630, -7.690e-7, -4.279e-7, 3.411e-7
0.629, -7.690e-7, -4.279e-7, 3.411e-7
0.628, -7.751e-7, -4.309e-7, 3.442e-7
0.627, -7.751e-7, -4.309e-7, 3.442e-7
0.626, -7.721e-7, -4.309e-7, 3.411e-7
0.625, -7.721e-7, -4.309e-7, 3.411e-7
0.624, -7.721e-7, -4.309e-7, 3.411e-7
0.623, -7.721e-7, -4.340e-7, 3.381e-7
0.622, -7.751e-7, -4.340e-7, 3.411e-7
0.621, -7.721e-7, -4.309e-7, 3.411e-7
0.620, -7.751e-7, -4.340e-7, 3.411e-7
0.619, -7.751e-7, -4.340e-7, 3.411e-7
0.618, -7.721e-7, -4.340e-7, 3.381e-7
0.617, -7.751e-7, -4.340e-7, 3.411e-7
0.616, -7.751e-7, -4.340e-7, 3.411e-7
0.615, -7.721e-7, -4.340e-7, 3.381e-7
0.614, -7.751e-7, -4.340e-7, 3.411e-7
0.613, -7.751e-7, -4.340e-7, 3.411e-7
0.612, -7.751e-7, -4.340e-7, 3.411e-7
0.611, -7.751e-7, -4.340e-7, 3.411e-7
0.610, -7.782e-7, -4.340e-7, 3.442e-7
0.609, -7.782e-7, -4.370e-7, 3.411e-7
0.608, -7.782e-7, -4.370e-7, 3.411e-7
0.607, -7.782e-7, -4.370e-7, 3.411e-7
0.606, -7.690e-7, -4.340e-7, 3.350e-7
0.605, -7.782e-7, -4.370e-7, 3.411e-7
0.604, -7.782e-7, -4.370e-7, 3.411e-7
0.603, -7.782e-7, -4.401e-7, 3.381e-7
0.602, -7.812e-7, -4.401e-7, 3.411e-7
0.601, -7.782e-7, -4.370e-7, 3.411e-7
0.600, -7.782e-7, -4.401e-7, 3.381e-7
0.599, -7.782e-7, -4.370e-7, 3.411e-7
0.598, -7.751e-7, -4.370e-7, 3.381e-7
0.597, -7.812e-7, -4.401e-7, 3.411e-7
0.596, -7.751e-7, -4.370e-7, 3.381e-7
0.595, -7.782e-7, -4.401e-7, 3.381e-7
0.594, -7.812e-7, -4.431e-7, 3.381e-7
0.593, -7.782e-7, -4.370e-7, 3.411e-7
0.592, -7.751e-7, -4.401e-7, 3.350e-7
0.591, -7.812e-7, -4.431e-7, 3.381e-7
0.590, -7.751e-7, -4.370e-7, 3.381e-7
0.589, -7.782e-7, -4.401e-7, 3.381e-7
0.588, -7.843e-7, -4.431e-7, 3.411e-7
0.587, -7.782e-7, -4.370e-7, 3.411e-7
0.586, -7.782e-7, -4.431e-7, 3.350e-7
0.585, -7.812e-7, -4.431e-7, 3.381e-7
0.584, -7.812e-7, -4.401e-7, 3.411e-7
0.583, -7.812e-7, -4.431e-7, 3.381e-7
0.582, -7.843e-7, -4.462e-7, 3.381e-7
0.581, -7.812e-7, -4.401e-7, 3.411e-7
0.580, -7.812e-7, -4.431e-7, 3.381e-7
0.579, -7.812e-7, -4.431e-7, 3.381e-7
0.578, -7.812e-7, -4.401e-7, 3.411e-7
0.577, -7.843e-7, -4.462e-7, 3.381e-7
0.576, -7.873e-7, -4.462e-7, 3.411e-7
0.575, -7.843e-7, -4.431e-7, 3.411e-7
0.574, -7.782e-7, -4.431e-7, 3.350e-7
0.573, -7.843e-7, -4.462e-7, 3.381e-7
0.572, -7.812e-7, -4.431e-7, 3.381e-7
0.571, -7.843e-7, -4.462e-7, 3.381e-7
0.570, -7.843e-7, -4.431e-7, 3.411e-7
0.569, -7.843e-7, -4.431e-7, 3.411e-7
0.568, -7.843e-7, -4.462e-7, 3.381e-7
0.567, -7.873e-7, -4.462e-7, 3.411e-7
0.566, -7.843e-7, -4.462e-7, 3.381e-7
0.565, -7.843e-7, -4.462e-7, 3.381e-7
0.564, -7.843e-7, -4.462e-7, 3.381e-7
0.563, -7.843e-7, -4.462e-7, 3.381e-7
0.562, -7.843e-7, -4.462e-7, 3.381e-7
0.561, -7.843e-7, -4.462e-7, 3.381e-7
0.560, -7.873e-7, -4.492e-7, 3.381e-7
0.559, -7.873e-7, -4.462e-7, 3.411e-7
0.558, -7.843e-7, -4.462e-7, 3.381e-7
0.557, -7.873e-7, -4.492e-7, 3.381e-7
0.556, -7.843e-7, -4.462e-7, 3.381e-7
0.555, -7.904e-7, -4.492e-7, 3.411e-7
0.554, -7.873e-7, -4.492e-7, 3.381e-7
0.553, -7.873e-7, -4.492e-7, 3.381e-7
0.552, -7.873e-7, -4.492e-7, 3.381e-7
0.551, -7.873e-7, -4.492e-7, 3.381e-7
0.550, -7.873e-7, -4.492e-7, 3.381e-7
0.549, -7.873e-7, -4.492e-7, 3.381e-7
0.548, -7.934e-7, -4.523e-7, 3.411e-7
0.547, -7.873e-7, -4.492e-7, 3.381e-7
0.546, -7.904e-7, -4.523e-7, 3.381e-7
0.545, -7.934e-7, -4.523e-7, 3.411e-7
0.544, -7.904e-7, -4.492e-7, 3.411e-7
0.543, -7.904e-7, -4.523e-7, 3.381e-7
0.542, -7.965e-7, -4.553e-7, 3.411e-7
0.541, -7.904e-7, -4.523e-7, 3.381e-7
0.540, -7.904e-7, -4.523e-7, 3.381e-7
0.539, -7.965e-7, -4.553e-7, 3.411e-7
0.538, -7.904e-7, -4.523e-7, 3.381e-7
0.537, -7.965e-7, -4.553e-7, 3.411e-7
0.536, -7.965e-7, -4.523e-7, 3.442e-7
0.535, -7.965e-7, -4.553e-7, 3.411e-7
0.534, -7.934e-7, -4.553e-7, 3.381e-7
0.533, -7.965e-7, -4.553e-7, 3.411e-7
0.532, -7.965e-7, -4.553e-7, 3.411e-7
0.531, -7.934e-7, -4.553e-7, 3.381e-7
0.530, -8.026e-7, -4.584e-7, 3.442e-7
0.529, -7.934e-7, -4.553e-7, 3.381e-7
0.528, -7.995e-7, -4.584e-7, 3.411e-7
0.527, -7.995e-7, -4.553e-7, 3.442e-7
0.526, -7.965e-7, -4.553e-7, 3.411e-7
0.525, -8.026e-7, -4.614e-7, 3.411e-7
0.524, -8.026e-7, -4.584e-7, 3.442e-7
0.523, -7.995e-7, -4.584e-7, 3.411e-7
0.522, -8.026e-7, -4.614e-7, 3.411e-7
0.521, -8.026e-7, -4.584e-7, 3.442e-7
0.520, -8.026e-7, -4.584e-7, 3.442e-7
0.519, -8.087e-7, -4.645e-7, 3.442e-7
0.518, -8.056e-7, -4.614e-7, 3.442e-7
0.517, -8.056e-7, -4.614e-7, 3.442e-7
0.516, -8.087e-7, -4.645e-7, 3.442e-7
0.515, -8.056e-7, -4.614e-7, 3.442e-7
0.514, -8.026e-7, -4.614e-7, 3.411e-7
0.513, -8.087e-7, -4.645e-7, 3.442e-7
0.512, -8.087e-7, -4.614e-7, 3.472e-7
0.511, -8.087e-7, -4.645e-7, 3.442e-7
0.510, -8.117e-7, -4.645e-7, 3.472e-7
0.509, -8.087e-7, -4.614e-7, 3.472e-7
0.508, -8.117e-7, -4.645e-7, 3.472e-7
0.507, -8.148e-7, -4.675e-7, 3.472e-7
0.506, -8.087e-7, -4.614e-7, 3.472e-7
0.505, -8.117e-7, -4.675e-7, 3.442e-7
0.504, -8.148e-7, -4.675e-7, 3.472e-7
0.503, -8.178e-7, -4.706e-7, 3.472e-7
0.502, -8.178e-7, -4.706e-7, 3.472e-7
0.501, -8.148e-7, -4.675e-7, 3.472e-7
0.500, -8.178e-7, -4.675e-7, 3.503e-7
0.499, -8.178e-7, -4.706e-7, 3.472e-7
0.498, -8.178e-7, -4.706e-7, 3.472e-7
0.497, -8.178e-7, -4.706e-7, 3.472e-7
0.496, -8.209e-7, -4.736e-7, 3.472e-7
0.495, -8.209e-7, -4.706e-7, 3.503e-7
0.494, -8.239e-7, -4.736e-7, 3.503e-7
0.493, -8.209e-7, -4.736e-7, 3.472e-7
0.492, -8.209e-7, -4.706e-7, 3.503e-7
0.491, -8.239e-7, -4.736e-7, 3.503e-7
0.490, -8.239e-7, -4.736e-7, 3.503e-7
0.489, -8.239e-7, -4.736e-7, 3.503e-7
0.488, -8.270e-7, -4.767e-7, 3.503e-7
0.487, -8.300e-7, -4.767e-7, 3.533e-7
0.486, -8.270e-7, -4.767e-7, 3.503e-7
0.485, -8.331e-7, -4.797e-7, 3.533e-7
0.484, -8.331e-7, -4.797e-7, 3.533e-7
0.483, -8.270e-7, -4.767e-7, 3.503e-7
0.482, -8.331e-7, -4.797e-7, 3.533e-7
0.481, -8.300e-7, -4.767e-7, 3.533e-7
0.480, -8.331e-7, -4.797e-7, 3.533e-7
0.479, -8.331e-7, -4.797e-7, 3.533e-7
0.478, -8.331e-7, -4.797e-7, 3.533e-7
0.477, -8.331e-7, -4.797e-7, 3.533e-7
0.476, -8.361e-7, -4.828e-7, 3.533e-7
0.475, -8.361e-7, -4.797e-7, 3.564e-7
0.474, -8.361e-7, -4.828e-7, 3.533e-7
0.473, -8.361e-7, -4.828e-7, 3.533e-7
0.472, -8.361e-7, -4.797e-7, 3.564e-7
0.471, -8.392e-7, -4.858e-7, 3.533e-7
0.470, -8.422e-7, -4.858e-7, 3.564e-7
0.469, -8.392e-7, -4.828e-7, 3.564e-7
0.468, -8.392e-7, -4.858e-7, 3.533e-7
0.467, -8.453e-7, -4.889e-7, 3.564e-7
0.466, -8.453e-7, -4.828e-7, 3.625e-7
0.465, -8.422e-7, -4.858e-7, 3.564e-7
0.464, -8.453e-7, -4.889e-7, 3.564e-7
0.463, -8.453e-7, -4.858e-7, 3.594e-7
0.462, -8.453e-7, -4.889e-7, 3.564e-7
0.461, -8.483e-7, -4.889e-7, 3.594e-7
0.460, -8.453e-7, -4.858e-7, 3.594e-7
0.459, -8.453e-7, -4.889e-7, 3.564e-7
0.458, -8.483e-7, -4.889e-7, 3.594e-7
0.457, -8.483e-7, -4.889e-7, 3.594e-7
0.456, -8.483e-7, -4.919e-7, 3.564e-7
0.455, -8.514e-7, -4.919e-7, 3.594e-7
0.454, -8.483e-7, -4.889e-7, 3.594e-7
0.453, -8.544e-7, -4.950e-7, 3.594e-7
0.452, -8.514e-7, -4.919e-7, 3.594e-7
0.451, -8.514e-7, -4.919e-7, 3.594e-7
0.450, -8.544e-7, -4.950e-7, 3.594e-7
0.449, -8.575e-7, -4.950e-7, 3.625e-7
0.448, -8.544e-7, -4.950e-7, 3.594e-7
0.447, -8.575e-7, -4.980e-7, 3.594e-7
0.446, -8.544e-7, -4.950e-7, 3.594e-7
0.445, -8.544e-7, -4.950e-7, 3.594e-7
0.444, -8.575e-7, -4.980e-7, 3.594e-7
0.443, -8.575e-7, -4.950e-7, 3.625e-7
0.442, -8.605e-7, -4.980e-7, 3.625e-7
0.441, -8.605e-7, -4.980e-7, 3.625e-7
0.440, -8.605e-7, -4.980e-7, 3.625e-7
0.439, -8.605e-7, -4.980e-7, 3.625e-7
0.438, -8.636e-7, -5.011e-7, 3.625e-7
0.437, -8.636e-7, -5.011e-7, 3.625e-7
0.436, -8.636e-7, -5.011e-7, 3.625e-7
0.435, -8.666e-7, -5.011e-7, 3.655e-7
0.434, -8.666e-7, -5.011e-7, 3.655e-7
0.433, -8.636e-7, -5.011e-7, 3.625e-7
0.432, -8.666e-7, -5.011e-7, 3.655e-7
0.431, -8.666e-7, -5.011e-7, 3.655e-7
0.430, -8.697e-7, -5.042e-7, 3.655e-7
0.429, -8.666e-7, -5.011e-7, 3.655e-7
0.428, -8.697e-7, -5.042e-7, 3.655e-7
0.427, -8.666e-7, -5.042e-7, 3.625e-7
0.426, -8.728e-7, -5.042e-7, 3.686e-7
0.425, -8.728e-7, -5.072e-7, 3.655e-7
0.424, -8.758e-7, -5.072e-7, 3.686e-7
0.423, -8.697e-7, -5.042e-7, 3.655e-7
0.422, -8.728e-7, -5.072e-7, 3.655e-7
0.421, -8.789e-7, -5.103e-7, 3.686e-7
0.420, -8.758e-7, -5.072e-7, 3.686e-7
0.419, -8.789e-7, -5.103e-7, 3.686e-7
0.418, -8.819e-7, -5.103e-7, 3.717e-7
0.417, -8.789e-7, -5.103e-7, 3.686e-7
0.416, -8.789e-7, -5.103e-7, 3.686e-7
0.415, -8.819e-7, -5.103e-7, 3.717e-7
0.414, -8.819e-7, -5.103e-7, 3.717e-7
0.413, -8.850e-7, -5.164e-7, 3.686e-7
0.412, -8.880e-7, -5.133e-7, 3.747e-7
0.411, -8.850e-7, -5.133e-7, 3.717e-7
0.410, -8.850e-7, -5.164e-7, 3.686e-7
0.409, -8.880e-7, -5.133e-7, 3.747e-7
0.408, -8.880e-7, -5.133e-7, 3.747e-7
0.407, -8.911e-7, -5.194e-7, 3.717e-7
0.406, -8.911e-7, -5.164e-7, 3.747e-7
0.405, -8.880e-7, -5.164e-7, 3.717e-7
0.404, -8.941e-7, -5.225e-7, 3.717e-7
0.403, -8.941e-7, -5.194e-7, 3.747e-7
0.402, -8.941e-7, -5.194e-7, 3.747e-7
0.401, -8.972e-7, -5.225e-7, 3.747e-7
0.400, -9.002e-7, -5.225e-7, 3.778e-7
0.399, -8.972e-7, -5.225e-7, 3.747e-7
0.398, -9.033e-7, -5.255e-7, 3.778e-7
0.397, -9.002e-7, -5.225e-7, 3.778e-7
0.396, -8.972e-7, -5.225e-7, 3.747e-7
0.395, -9.033e-7, -5.255e-7, 3.778e-7
0.394, -9.033e-7, -5.255e-7, 3.778e-7
0.393, -9.033e-7, -5.255e-7, 3.778e-7
0.392, -9.063e-7, -5.255e-7, 3.808e-7
0.391, -9.094e-7, -5.286e-7, 3.808e-7
0.390, -9.094e-7, -5.286e-7, 3.808e-7
0.389, -9.124e-7, -5.286e-7, 3.839e-7
0.388, -9.094e-7, -5.286e-7, 3.808e-7
0.387, -9.155e-7, -5.316e-7, 3.839e-7
0.386, -9.124e-7, -5.316e-7, 3.808e-7
0.385, -9.155e-7, -5.316e-7, 3.839e-7
0.384, -9.124e-7, -5.316e-7, 3.808e-7
0.383, -9.185e-7, -5.347e-7, 3.839e-7
0.382, -9.185e-7, -5.347e-7, 3.839e-7
0.381, -9.246e-7, -5.377e-7, 3.869e-7
0.380, -9.216e-7, -5.347e-7, 3.869e-7
0.379, -9.185e-7, -5.347e-7, 3.839e-7
0.378, -9.277e-7, -5.408e-7, 3.869e-7
0.377, -9.246e-7, -5.377e-7, 3.869e-7
0.376, -9.277e-7, -5.408e-7, 3.869e-7
0.375, -9.307e-7, -5.408e-7, 3.900e-7
0.374, -9.277e-7, -5.408e-7, 3.869e-7
0.373, -9.338e-7, -5.438e-7, 3.900e-7
0.372, -9.338e-7, -5.438e-7, 3.900e-7
0.371, -9.338e-7, -5.438e-7, 3.900e-7
0.370, -9.338e-7, -5.438e-7, 3.900e-7
0.369, -9.338e-7, -5.438e-7, 3.900e-7
0.368, -9.368e-7, -5.438e-7, 3.930e-7
0.367, -9.399e-7, -5.469e-7, 3.930e-7
0.366, -9.429e-7, -5.469e-7, 3.961e-7
0.365, -9.368e-7, -5.469e-7, 3.900e-7
0.364, -9.429e-7, -5.499e-7, 3.930e-7
0.363, -9.399e-7, -5.469e-7, 3.930e-7
0.362, -9.429e-7, -5.499e-7, 3.930e-7
0.361, -9.460e-7, -5.499e-7, 3.961e-7
0.360, -9.460e-7, -5.499e-7, 3.961e-7
0.359, -9.429e-7, -5.499e-7, 3.930e-7
0.358, -9.490e-7, -5.530e-7, 3.961e-7
0.357, -9.521e-7, -5.530e-7, 3.991e-7
0.356, -9.521e-7, -5.560e-7, 3.961e-7
0.355, -9.551e-7, -5.560e-7, 3.991e-7
0.354, -9.521e-7, -5.530e-7, 3.991e-7
0.353, -9.551e-7, -5.560e-7, 3.991e-7
0.352, -9.582e-7, -5.591e-7, 3.991e-7
0.351, -9.582e-7, -5.560e-7, 4.022e-7
0.350, -9.582e-7, -5.591e-7, 3.991e-7
0.349, -9.612e-7, -5.621e-7, 3.991e-7
0.348, -9.643e-7, -5.591e-7, 4.052e-7
0.347, -9.612e-7, -5.621e-7, 3.991e-7
0.346, -9.643e-7, -5.621e-7, 4.022e-7
0.345, -9.582e-7, -5.591e-7, 3.991e-7
0.344, -9.643e-7, -5.621e-7, 4.022e-7
0.343, -9.674e-7, -5.652e-7, 4.022e-7
0.342, -9.674e-7, -5.621e-7, 4.052e-7
0.341, -9.704e-7, -5.652e-7, 4.052e-7
0.340, -9.704e-7, -5.652e-7, 4.052e-7
0.339, -9.735e-7, -5.652e-7, 4.083e-7
0.338, -9.704e-7, -5.682e-7, 4.022e-7
0.337, -9.765e-7, -5.682e-7, 4.083e-7
0.336, -9.735e-7, -5.682e-7, 4.052e-7
0.335, -9.796e-7, -5.713e-7, 4.083e-7
0.334, -9.765e-7, -5.682e-7, 4.083e-7
0.333, -9.796e-7, -5.713e-7, 4.083e-7
0.332, -9.796e-7, -5.713e-7, 4.083e-7
0.331, -9.826e-7, -5.743e-7, 4.083e-7
0.330, -9.826e-7, -5.743e-7, 4.083e-7
0.329, -9.826e-7, -5.713e-7, 4.113e-7
0.328, -9.857e-7, -5.743e-7, 4.113e-7
0.327, -9.857e-7, -5.743e-7, 4.113e-7
0.326, -9.887e-7, -5.774e-7, 4.113e-7
0.325, -9.857e-7, -5.743e-7, 4.113e-7
0.324, -9.887e-7, -5.774e-7, 4.113e-7
0.323, -9.918e-7, -5.774e-7, 4.144e-7
0.322, -9.887e-7, -5.774e-7, 4.113e-7
0.321, -9.948e-7, -5.804e-7, 4.144e-7
0.320, -9.948e-7, -5.804e-7, 4.144e-7
0.319, -9.948e-7, -5.804e-7, 4.144e-7
0.318, -9.979e-7, -5.835e-7, 4.144e-7
0.317, -1.001e-6, -5.835e-7, 4.174e-7
0.316, -9.979e-7, -5.804e-7, 4.174e-7
0.315, -9.979e-7, -5.835e-7, 4.144e-7
0.314, -1.001e-6, -5.835e-7, 4.174e-7
0.313, -1.001e-6, -5.835e-7, 4.174e-7
0.312, -1.007e-6, -5.865e-7, 4.205e-7
0.311, -1.007e-6, -5.865e-7, 4.205e-7
0.310, -1.007e-6, -5.896e-7, 4.174e-7
0.309, -1.010e-6, -5.865e-7, 4.235e-7
0.308, -1.010e-6, -5.896e-7, 4.205e-7
0.307, -1.010e-6, -5.896e-7, 4.205e-7
0.306, -1.016e-6, -5.926e-7, 4.235e-7
0.305, -1.013e-6, -5.896e-7, 4.235e-7
0.304, -1.016e-6, -5.926e-7, 4.235e-7
0.303, -1.022e-6, -5.957e-7, 4.266e-7
0.302, -1.016e-6, -5.926e-7, 4.235e-7
0.301, -1.019e-6, -5.957e-7, 4.235e-7
0.300, -1.019e-6, -5.926e-7, 4.266e-7
0.299, -1.022e-6, -5.957e-7, 4.266e-7
0.298, -1.025e-6, -5.988e-7, 4.266e-7
0.297, -1.025e-6, -5.988e-7, 4.266e-7
0.296, -1.025e-6, -5.988e-7, 4.266e-7
0.295, -1.031e-6, -6.018e-7, 4.296e-7
0.294, -1.031e-6, -6.018e-7, 4.296e-7
0.293, -1.031e-6, -6.018e-7, 4.296e-7
0.292, -1.034e-6, -6.049e-7, 4.296e-7
0.291, -1.034e-6, -6.018e-7, 4.327e-7
0.290, -1.034e-6, -6.018e-7, 4.327e-7
0.289, -1.041e-6, -6.079e-7, 4.327e-7
0.288, -1.041e-6, -6.049e-7, 4.357e-7
0.287, -1.044e-6, -6.079e-7, 4.357e-7
0.286, -1.044e-6, -6.110e-7, 4.327e-7
0.285, -1.047e-6, -6.079e-7, 4.388e-7
0.284, -1.044e-6, -6.079e-7, 4.357e-7
0.283, -1.050e-6, -6.140e-7, 4.357e-7
0.282, -1.050e-6, -6.110e-7, 4.388e-7
0.281, -1.050e-6, -6.110e-7, 4.388e-7
0.280, -1.053e-6, -6.140e-7, 4.388e-7
0.279, -1.056e-6, -6.140e-7, 4.418e-7
0.278, -1.053e-6, -6.140e-7, 4.388e-7
0.277, -1.059e-6, -6.171e-7, 4.418e-7
0.276, -1.059e-6, -6.171e-7, 4.418e-7
0.275, -1.059e-6, -6.171e-7, 4.418e-7
0.274, -1.065e-6, -6.201e-7, 4.449e-7
0.273, -1.065e-6, -6.201e-7, 4.449e-7
0.272, -1.068e-6, -6.232e-7, 4.449e-7
0.271, -1.068e-6, -6.232e-7, 4.449e-7
0.270, -1.068e-6, -6.232e-7, 4.449e-7
0.269, -1.074e-6, -6.262e-7, 4.479e-7
0.268, -1.077e-6, -6.262e-7, 4.510e-7
0.267, -1.074e-6, -6.262e-7, 4.479e-7
0.266, -1.074e-6, -6.262e-7, 4.479e-7
0.265, -1.080e-6, -6.293e-7, 4.510e-7
0.264, -1.080e-6, -6.293e-7, 4.510e-7
0.263, -1.086e-6, -6.323e-7, 4.540e-7
0.262, -1.083e-6, -6.293e-7, 4.540e-7
0.261, -1.086e-6, -6.323e-7, 4.540e-7
0.260, -1.092e-6, -6.384e-7, 4.540e-7
0.259, -1.089e-6, -6.354e-7, 4.540e-7
0.258, -1.089e-6, -6.354e-7, 4.540e-7
0.257, -1.096e-6, -6.384e-7, 4.571e-7
0.256, -1.092e-6, -6.354e-7, 4.571e-7
0.255, -1.096e-6, -6.384e-7, 4.571e-7
0.254, -1.102e-6, -6.415e-7, 4.601e-7
0.253, -1.102e-6, -6.415e-7, 4.601e-7
0.252, -1.102e-6, -6.415e-7, 4.601e-7
0.251, -1.105e-6, -6.415e-7, 4.632e-7
0.250, -1.108e-6, -6.445e-7, 4.632e-7
0.249, -1.108e-6, -6.476e-7, 4.601e-7
0.248, -1.111e-6, -6.445e-7, 4.662e-7
0.247, -1.111e-6, -6.476e-7, 4.632e-7
0.246, -1.114e-6, -6.476e-7, 4.662e-7
0.245, -1.117e-6, -6.476e-7, 4.693e-7
0.244, -1.120e-6, -6.537e-7, 4.662e-7
0.243, -1.120e-6, -6.537e-7, 4.662e-7
0.242, -1.123e-6, -6.537e-7, 4.693e-7
0.241, -1.117e-6, -6.506e-7, 4.662e-7
0.240, -1.126e-6, -6.567e-7, 4.693e-7
0.239, -1.129e-6, -6.567e-7, 4.724e-7
0.238, -1.129e-6, -6.567e-7, 4.724e-7
0.237, -1.132e-6, -6.598e-7, 4.724e-7
0.236, -1.132e-6, -6.567e-7, 4.754e-7
0.235, -1.135e-6, -6.628e-7, 4.724e-7
0.234, -1.138e-6, -6.628e-7, 4.754e-7
0.233, -1.138e-6, -6.628e-7, 4.754e-7
0.232, -1.141e-6, -6.659e-7, 4.754e-7
0.231, -1.141e-6, -6.659e-7, 4.754e-7
0.230, -1.144e-6, -6.659e-7, 4.785e-7
0.229, -1.144e-6, -6.689e-7, 4.754e-7
0.228, -1.150e-6, -6.689e-7, 4.815e-7
0.227, -1.150e-6, -6.689e-7, 4.815e-7
0.226, -1.153e-6, -6.720e-7, 4.815e-7
0.225, -1.157e-6, -6.720e-7, 4.846e-7
0.224, -1.160e-6, -6.750e-7, 4.846e-7
0.223, -1.157e-6, -6.750e-7, 4.815e-7
0.222, -1.163e-6, -6.781e-7, 4.846e-7
0.221, -1.163e-6, -6.750e-7, 4.876e-7
0.220, -1.163e-6, -6.781e-7, 4.846e-7
0.219, -1.166e-6, -6.781e-7, 4.876e-7
0.218, -1.166e-6, -6.811e-7, 4.846e-7
0.217, -1.172e-6, -6.842e-7, 4.876e-7
0.216, -1.175e-6, -6.842e-7, 4.907e-7
0.215, -1.172e-6, -6.842e-7, 4.876e-7
0.214, -1.175e-6, -6.842e-7, 4.907e-7
0.213, -1.178e-6, -6.842e-7, 4.937e-7
0.212, -1.181e-6, -6.872e-7, 4.937e-7
0.211, -1.181e-6, -6.872e-7, 4.937e-7
0.210, -1.184e-6, -6.903e-7, 4.937e-7
0.209, -1.187e-6, -6.934e-7, 4.937e-7
0.208, -1.184e-6, -6.903e-7, 4.937e-7
0.207, -1.190e-6, -6.934e-7, 4.968e-7
0.206, -1.190e-6, -6.934e-7, 4.968e-7
0.205, -1.196e-6, -6.964e-7, 4.998e-7
0.204, -1.196e-6, -6.964e-7, 4.998e-7
0.203, -1.199e-6, -6.995e-7, 4.998e-7
0.202, -1.199e-6, -6.964e-7, 5.029e-7
0.201, -1.202e-6, -6.995e-7, 5.029e-7
0.200, -1.205e-6, -7.025e-7, 5.029e-7
0.199, -1.205e-6, -7.025e-7, 5.029e-7
0.198, -1.208e-6, -7.056e-7, 5.029e-7
0.197, -1.215e-6, -7.086e-7, 5.059e-7
0.196, -1.215e-6, -7.056e-7, 5.090e-7
0.195, -1.215e-6, -7.086e-7, 5.059e-7
0.194, -1.218e-6, -7.086e-7, 5.090e-7
0.193, -1.221e-6, -7.117e-7, 5.090e-7
0.192, -1.224e-6, -7.117e-7, 5.120e-7
0.191, -1.227e-6, -7.147e-7, 5.120e-7
0.190, -1.227e-6, -7.147e-7, 5.120e-7
0.189, -1.233e-6, -7.178e-7, 5.151e-7
0.188, -1.236e-6, -7.208e-7, 5.151e-7
0.187, -1.233e-6, -7.178e-7, 5.151e-7
0.186, -1.239e-6, -7.239e-7, 5.151e-7
0.185, -1.242e-6, -7.239e-7, 5.181e-7
0.184, -1.242e-6, -7.239e-7, 5.181e-7
0.183, -1.245e-6, -7.269e-7, 5.181e-7
0.182, -1.251e-6, -7.269e-7, 5.242e-7
0.181, -1.248e-6, -7.269e-7, 5.212e-7
0.180, -1.254e-6, -7.300e-7, 5.242e-7
0.179, -1.254e-6, -7.300e-7, 5.242e-7
0.178, -1.254e-6, -7.300e-7, 5.242e-7
0.177, -1.260e-6, -7.361e-7, 5.242e-7
0.176, -1.266e-6, -7.361e-7, 5.303e-7
0.175, -1.266e-6, -7.361e-7, 5.303e-7
0.174, -1.269e-6, -7.422e-7, 5.273e-7
0.173, -1.273e-6, -7.422e-7, 5.303e-7
0.172, -1.276e-6, -7.422e-7, 5.334e-7
0.171, -1.282e-6, -7.483e-7, 5.334e-7
0.170, -1.282e-6, -7.452e-7, 5.364e-7
0.169, -1.282e-6, -7.483e-7, 5.334e-7
0.168, -1.285e-6, -7.513e-7, 5.334e-7
0.167, -1.291e-6, -7.513e-7, 5.395e-7
0.166, -1.291e-6, -7.544e-7, 5.364e-7
0.165, -1.294e-6, -7.544e-7, 5.395e-7
0.164, -1.297e-6, -7.544e-7, 5.425e-7
0.163, -1.300e-6, -7.574e-7, 5.425e-7
0.162, -1.303e-6, -7.605e-7, 5.425e-7
0.161, -1.309e-6, -7.605e-7, 5.486e-7
0.160, -1.306e-6, -7.605e-7, 5.456e-7
0.159, -1.312e-6, -7.635e-7, 5.486e-7
0.158, -1.312e-6, -7.635e-7, 5.486e-7
0.157, -1.315e-6, -7.666e-7, 5.486e-7
0.156, -1.321e-6, -7.696e-7, 5.517e-7
0.155, -1.321e-6, -7.696e-7, 5.517e-7
0.154, -1.324e-6, -7.727e-7, 5.517e-7
0.153, -1.330e-6, -7.727e-7, 5.578e-7
0.152, -1.330e-6, -7.757e-7, 5.547e-7
0.151, -1.334e-6, -7.788e-7, 5.547e-7
0.150, -1.340e-6, -7.788e-7, 5.608e-7
0.149, -1.343e-6, -7.818e-7, 5.608e-7
0.148, -1.346e-6, -7.818e-7, 5.639e-7
0.147, -1.349e-6, -7.849e-7, 5.639e-7
0.146, -1.352e-6, -7.880e-7, 5.639e-7
0.145, -1.355e-6, -7.880e-7, 5.669e-7
0.144, -1.361e-6, -7.910e-7, 5.700e-7
0.143, -1.358e-6, -7.880e-7, 5.700e-7
0.142, -1.364e-6, -7.941e-7, 5.700e-7
0.141, -1.370e-6, -7.971e-7, 5.731e-7
0.140, -1.370e-6, -7.971e-7, 5.731e-7
0.139, -1.373e-6, -7.971e-7, 5.761e-7
0.138, -1.376e-6, -8.002e-7, 5.761e-7
0.137, -1.376e-6, -8.002e-7, 5.761e-7
0.136, -1.382e-6, -8.032e-7, 5.792e-7
0.135, -1.388e-6, -8.063e-7, 5.822e-7
0.134, -1.388e-6, -8.063e-7, 5.822e-7
0.133, -1.395e-6, -8.093e-7, 5.853e-7
0.132, -1.398e-6, -8.124e-7, 5.853e-7
0.131, -1.401e-6, -8.124e-7, 5.883e-7
0.130, -1.401e-6, -8.124e-7, 5.883e-7
0.129, -1.404e-6, -8.154e-7, 5.883e-7
0.128, -1.410e-6, -8.185e-7, 5.914e-7
0.127, -1.413e-6, -8.185e-7, 5.944e-7
0.126, -1.413e-6, -8.215e-7, 5.914e-7
0.125, -1.416e-6, -8.215e-7, 5.944e-7
0.124, -1.419e-6, -8.215e-7, 5.975e-7
0.123, -1.425e-6, -8.276e-7, 5.975e-7
0.122, -1.428e-6, -8.276e-7, 6.005e-7
0.121, -1.431e-6, -8.276e-7, 6.036e-7
0.120, -1.431e-6, -8.307e-7, 6.005e-7
0.119, -1.437e-6, -8.337e-7, 6.036e-7
0.118, -1.434e-6, -8.307e-7, 6.036e-7
0.117, -1.440e-6, -8.368e-7, 6.036e-7
0.116, -1.449e-6, -8.398e-7, 6.097e-7
0.115, -1.450e-6, -8.368e-7, 6.127e-7
0.114, -1.449e-6, -8.398e-7, 6.097e-7
0.113, -1.456e-6, -8.429e-7, 6.127e-7
0.112, -1.459e-6, -8.429e-7, 6.158e-7
0.111, -1.459e-6, -8.459e-7, 6.127e-7
0.110, -1.468e-6, -8.490e-7, 6.188e-7
0.109, -1.465e-6, -8.459e-7, 6.188e-7
0.108, -1.471e-6, -8.520e-7, 6.188e-7
0.107, -1.474e-6, -8.520e-7, 6.219e-7
0.106, -1.474e-6, -8.520e-7, 6.219e-7
0.105, -1.480e-6, -8.551e-7, 6.249e-7
0.104, -1.486e-6, -8.581e-7, 6.280e-7
0.103, -1.483e-6, -8.551e-7, 6.280e-7
0.102, -1.486e-6, -8.581e-7, 6.280e-7
0.101, -1.492e-6, -8.612e-7, 6.310e-7
0.100, -1.492e-6, -8.612e-7, 6.310e-7
0.099, -1.498e-6, -8.642e-7, 6.341e-7
0.098, -1.504e-6, -8.673e-7, 6.371e-7
0.097, -1.504e-6, -8.673e-7, 6.371e-7
0.096, -1.504e-6, -8.673e-7, 6.371e-7
0.095, -1.507e-6, -8.673e-7, 6.402e-7
0.094, -1.514e-6, -8.703e-7, 6.432e-7
0.093, -1.517e-6, -8.734e-7, 6.432e-7
0.092, -1.517e-6, -8.734e-7, 6.432e-7
0.091, -1.523e-6, -8.764e-7, 6.463e-7
0.090, -1.523e-6, -8.764e-7, 6.463e-7
0.089, -1.529e-6, -8.795e-7, 6.493e-7
0.088, -1.532e-6, -8.826e-7, 6.493e-7
0.087, -1.535e-6, -8.826e-7, 6.524e-7
0.086, -1.541e-6, -8.856e-7, 6.554e-7
0.085, -1.541e-6, -8.856e-7, 6.554e-7
0.084, -1.541e-6, -8.856e-7, 6.554e-7
0.083, -1.544e-6, -8.856e-7, 6.585e-7
0.082, -1.547e-6, -8.887e-7, 6.585e-7
0.081, -1.550e-6, -8.887e-7, 6.615e-7
0.080, -1.556e-6, -8.917e-7, 6.646e-7
0.079, -1.559e-6, -8.948e-7, 6.646e-7
0.078, -1.562e-6, -8.948e-7, 6.677e-7
0.077, -1.562e-6, -8.948e-7, 6.677e-7
0.076, -1.569e-6, -8.978e-7, 6.707e-7
0.075, -1.569e-6, -8.978e-7, 6.707e-7
0.074, -1.575e-6, -9.009e-7, 6.738e-7
0.073, -1.578e-6, -9.009e-7, 6.768e-7
0.072, -1.578e-6, -9.009e-7, 6.768e-7
0.071, -1.581e-6, -9.039e-7, 6.768e-7
0.070, -1.590e-6, -9.070e-7, 6.829e-7
0.069, -1.590e-6, -9.070e-7, 6.829e-7
0.068, -1.593e-6, -9.100e-7, 6.829e-7
0.067, -1.593e-6, -9.070e-7, 6.860e-7
0.066, -1.593e-6, -9.070e-7, 6.860e-7
0.065, -1.602e-6, -9.161e-7, 6.860e-7
0.064, -1.605e-6, -9.131e-7, 6.921e-7
0.063, -1.605e-6, -9.131e-7, 6.921e-7
0.062, -1.611e-6, -9.192e-7, 6.921e-7
0.061, -1.611e-6, -9.161e-7, 6.951e-7
0.060, -1.611e-6, -9.161e-7, 6.951e-7
0.059, -1.617e-6, -9.192e-7, 6.982e-7
0.058, -1.620e-6, -9.192e-7, 7.012e-7
0.057, -1.620e-6, -9.192e-7, 7.012e-7
0.056, -1.623e-6, -9.222e-7, 7.012e-7
0.055, -1.630e-6, -9.222e-7, 7.073e-7
0.054, -1.626e-6, -9.222e-7, 7.043e-7
0.053, -1.633e-6, -9.253e-7, 7.073e-7
0.052, -1.636e-6, -9.253e-7, 7.104e-7
0.051, -1.636e-6, -9.253e-7, 7.104e-7
0.050, -1.639e-6, -9.283e-7, 7.104e-7
0.049, -1.645e-6, -9.283e-7, 7.165e-7
0.048, -1.642e-6, -9.283e-7, 7.134e-7
0.047, -1.648e-6, -9.314e-7, 7.165e-7
0.046, -1.654e-6, -9.314e-7, 7.226e-7
0.045, -1.654e-6, -9.344e-7, 7.195e-7
0.044, -1.657e-6, -9.314e-7, 7.256e-7
0.043, -1.657e-6, -9.314e-7, 7.256e-7
0.042, -1.660e-6, -9.314e-7, 7.287e-7
0.041, -1.663e-6, -9.344e-7, 7.287e-7
0.040, -1.669e-6, -9.375e-7, 7.317e-7
0.039, -1.669e-6, -9.375e-7, 7.317e-7
0.038, -1.672e-6, -9.375e-7, 7.348e-7
0.037, -1.672e-6, -9.375e-7, 7.348e-7
0.036, -1.678e-6, -9.405e-7, 7.378e-7
0.035, -1.678e-6, -9.405e-7, 7.378e-7
0.034, -1.678e-6, -9.375e-7, 7.409e-7
0.033, -1.681e-6, -9.405e-7, 7.409e-7
0.032, -1.684e-6, -9.405e-7, 7.439e-7
0.031, -1.684e-6, -9.405e-7, 7.439e-7
0.030, -1.688e-6, -9.405e-7, 7.470e-7
0.029, -1.691e-6, -9.436e-7, 7.470e-7
0.028, -1.691e-6, -9.436e-7, 7.470e-7
0.027, -1.694e-6, -9.436e-7, 7.500e-7
0.026, -1.694e-6, -9.436e-7, 7.500e-7
0.025, -1.697e-6, -9.436e-7, 7.531e-7
0.024, -1.703e-6, -9.466e-7, 7.561e-7
0.023, -1.700e-6, -9.436e-7, 7.561e-7
0.022, -1.703e-6, -9.436e-7, 7.592e-7
0.021, -1.706e-6, -9.466e-7, 7.592e-7
0.020, -1.706e-6, -9.436e-7, 7.622e-7
0.019, -1.709e-6, -9.466e-7, 7.622e-7
0.018, -1.712e-6, -9.466e-7, 7.653e-7
0.017, -1.715e-6, -9.466e-7, 7.684e-7
0.016, -1.715e-6, -9.497e-7, 7.653e-7
0.015, -1.718e-6, -9.466e-7, 7.714e-7
0.014, -1.715e-6, -9.466e-7, 7.684e-7
0.013, -1.718e-6, -9.466e-7, 7.714e-7
0.012, -1.718e-6, -9.436e-7, 7.745e-7
0.011, -1.718e-6, -9.466e-7, 7.714e-7
0.010, -1.724e-6, -9.497e-7, 7.745e-7
0.009, -1.721e-6, -9.436e-7, 7.775e-7
0.008, -1.721e-6, -9.466e-7, 7.745e-7
0.007, -1.727e-6, -9.466e-7, 7.806e-7
0.006, -1.724e-6, -9.436e-7, 7.806e-7
0.005, -1.727e-6, -9.466e-7, 7.806e-7
0.004, -1.733e-6, -9.497e-7, 7.836e-7
0.003, -1.730e-6, -9.436e-7, 7.867e-7
0.002, -1.730e-6, -9.466e-7, 7.836e-7
0.001, -1.733e-6, -9.466e-7, 7.867e-7
0.000, -1.730e-6, -9.436e-7, 7.867e-7
-0.001, -1.730e-6, -9.436e-7, 7.867e-7
-0.002, -1.733e-6, -9.436e-7, 7.897e-7
-0.003, -1.736e-6, -9.436e-7, 7.928e-7
-0.004, -1.733e-6, -9.436e-7, 7.897e-7
-0.005, -1.736e-6, -9.436e-7, 7.928e-7
-0.006, -1.739e-6, -9.436e-7, 7.958e-7
-0.007, -1.736e-6, -9.436e-7, 7.928e-7
-0.008, -1.739e-6, -9.436e-7, 7.958e-7
-0.009, -1.739e-6, -9.405e-7, 7.989e-7
-0.010, -1.736e-6, -9.405e-7, 7.958e-7
-0.011, -1.742e-6, -9.436e-7, 7.989e-7
-0.012, -1.742e-6, -9.405e-7, 8.019e-7
-0.013, -1.736e-6, -9.375e-7, 7.989e-7
-0.014, -1.742e-6, -9.375e-7, 8.050e-7
-0.015, -1.736e-6, -9.344e-7, 8.019e-7
-0.016, -1.742e-6, -9.375e-7, 8.050e-7
-0.017, -1.739e-6, -9.344e-7, 8.050e-7
-0.018, -1.736e-6, -9.314e-7, 8.050e-7
-0.019, -1.742e-6, -9.375e-7, 8.050e-7
-0.020, -1.736e-6, -9.314e-7, 8.050e-7
-0.021, -1.739e-6, -9.314e-7, 8.080e-7
-0.022, -1.739e-6, -9.314e-7, 8.080e-7
-0.023, -1.739e-6, -9.314e-7, 8.080e-7
-0.024, -1.736e-6, -9.283e-7, 8.080e-7
-0.025, -1.739e-6, -9.283e-7, 8.111e-7
-0.026, -1.739e-6, -9.283e-7, 8.111e-7
-0.027, -1.739e-6, -9.283e-7, 8.111e-7
-0.028, -1.739e-6, -9.283e-7, 8.111e-7
-0.029, -1.739e-6, -9.253e-7, 8.141e-7
-0.030, -1.739e-6, -9.253e-7, 8.141e-7
-0.031, -1.739e-6, -9.253e-7, 8.141e-7
-0.032, -1.736e-6, -9.222e-7, 8.141e-7
-0.033, -1.739e-6, -9.253e-7, 8.141e-7
-0.034, -1.736e-6, -9.222e-7, 8.141e-7
-0.035, -1.733e-6, -9.161e-7, 8.172e-7
-0.036, -1.736e-6, -9.192e-7, 8.172e-7
-0.037, -1.739e-6, -9.192e-7, 8.202e-7
-0.038, -1.730e-6, -9.131e-7, 8.172e-7
-0.039, -1.739e-6, -9.192e-7, 8.202e-7
-0.040, -1.733e-6, -9.131e-7, 8.202e-7
-0.041, -1.733e-6, -9.131e-7, 8.202e-7
-0.042, -1.733e-6, -9.131e-7, 8.202e-7
-0.043, -1.730e-6, -9.100e-7, 8.202e-7
-0.044, -1.730e-6, -9.100e-7, 8.202e-7
-0.045, -1.733e-6, -9.100e-7, 8.233e-7
-0.046, -1.730e-6, -9.070e-7, 8.233e-7
-0.047, -1.730e-6, -9.070e-7, 8.233e-7
-0.048, -1.727e-6, -9.039e-7, 8.233e-7
-0.049, -1.724e-6, -9.009e-7, 8.233e-7
-0.050, -1.727e-6, -9.039e-7, 8.233e-7
-0.051, -1.727e-6, -9.009e-7, 8.263e-7
-0.052, -1.724e-6, -9.009e-7, 8.233e-7
-0.053, -1.724e-6, -9.009e-7, 8.233e-7
-0.054, -1.724e-6, -8.978e-7, 8.263e-7
-0.055, -1.724e-6, -8.978e-7, 8.263e-7
-0.056, -1.718e-6, -8.948e-7, 8.233e-7
-0.057, -1.721e-6, -8.948e-7, 8.263e-7
-0.058, -1.718e-6, -8.917e-7, 8.263e-7
-0.059, -1.715e-6, -8.917e-7, 8.233e-7
-0.060, -1.718e-6, -8.887e-7, 8.294e-7
-0.061, -1.718e-6, -8.887e-7, 8.294e-7
-0.062, -1.718e-6, -8.917e-7, 8.263e-7
-0.063, -1.715e-6, -8.856e-7, 8.294e-7
-0.064, -1.715e-6, -8.856e-7, 8.294e-7
-0.065, -1.709e-6, -8.826e-7, 8.263e-7
-0.066, -1.712e-6, -8.826e-7, 8.294e-7
-0.067, -1.712e-6, -8.826e-7, 8.294e-7
-0.068, -1.706e-6, -8.795e-7, 8.263e-7
-0.069, -1.706e-6, -8.764e-7, 8.294e-7
-0.070, -1.706e-6, -8.764e-7, 8.294e-7
-0.071, -1.706e-6, -8.764e-7, 8.294e-7
-0.072, -1.703e-6, -8.734e-7, 8.294e-7
-0.073, -1.703e-6, -8.734e-7, 8.294e-7
-0.074, -1.703e-6, -8.734e-7, 8.294e-7
-0.075, -1.700e-6, -8.703e-7, 8.294e-7
-0.076, -1.700e-6, -8.703e-7, 8.294e-7
-0.077, -1.697e-6, -8.673e-7, 8.294e-7
-0.078, -1.697e-6, -8.673e-7, 8.294e-7
-0.079, -1.697e-6, -8.673e-7, 8.294e-7
-0.080, -1.694e-6, -8.612e-7, 8.324e-7
-0.081, -1.691e-6, -8.581e-7, 8.324e-7
-0.082, -1.691e-6, -8.612e-7, 8.294e-7
-0.083, -1.688e-6, -8.581e-7, 8.294e-7
-0.084, -1.684e-6, -8.551e-7, 8.294e-7
-0.085, -1.684e-6, -8.551e-7, 8.294e-7
-0.086, -1.684e-6, -8.551e-7, 8.294e-7
-0.087, -1.684e-6, -8.551e-7, 8.294e-7
-0.088, -1.681e-6, -8.551e-7, 8.263e-7
-0.089, -1.678e-6, -8.490e-7, 8.294e-7
-0.090, -1.675e-6, -8.490e-7, 8.263e-7
-0.091, -1.675e-6, -8.490e-7, 8.263e-7
-0.092, -1.672e-6, -8.459e-7, 8.263e-7
-0.093, -1.669e-6, -8.429e-7, 8.263e-7
-0.094, -1.675e-6, -8.459e-7, 8.294e-7
-0.095, -1.666e-6, -8.398e-7, 8.263e-7
-0.096, -1.666e-6, -8.398e-7, 8.263e-7
-0.097, -1.666e-6, -8.398e-7, 8.263e-7
-0.098, -1.666e-6, -8.398e-7, 8.263e-7
-0.099, -1.663e-6, -8.368e-7, 8.263e-7
-0.100, -1.663e-6, -8.368e-7, 8.263e-7
-0.101, -1.657e-6, -8.337e-7, 8.233e-7
-0.102, -1.660e-6, -8.337e-7, 8.263e-7
-0.103, -1.657e-6, -8.307e-7, 8.263e-7
-0.104, -1.651e-6, -8.307e-7, 8.202e-7
-0.105, -1.657e-6, -8.307e-7, 8.263e-7
-0.106, -1.651e-6, -8.246e-7, 8.263e-7
-0.107, -1.645e-6, -8.246e-7, 8.202e-7
-0.108, -1.651e-6, -8.276e-7, 8.233e-7
-0.109, -1.642e-6, -8.185e-7, 8.233e-7
-0.110, -1.642e-6, -8.215e-7, 8.202e-7
-0.111, -1.642e-6, -8.215e-7, 8.202e-7
-0.112, -1.639e-6, -8.185e-7, 8.202e-7
-0.113, -1.636e-6, -8.185e-7, 8.172e-7
-0.114, -1.636e-6, -8.154e-7, 8.202e-7
-0.115, -1.633e-6, -8.124e-7, 8.202e-7
-0.116, -1.630e-6, -8.124e-7, 8.172e-7
-0.117, -1.633e-6, -8.154e-7, 8.172e-7
-0.118, -1.630e-6, -8.093e-7, 8.202e-7
-0.119, -1.626e-6, -8.093e-7, 8.172e-7
-0.120, -1.623e-6, -8.093e-7, 8.141e-7
-0.121, -1.620e-6, -8.063e-7, 8.141e-7
-0.122, -1.620e-6, -8.063e-7, 8.141e-7
-0.123, -1.620e-6, -8.063e-7, 8.141e-7
-0.124, -1.614e-6, -8.002e-7, 8.141e-7
-0.125, -1.611e-6, -8.002e-7, 8.111e-7
-0.126, -1.614e-6, -8.002e-7, 8.141e-7
-0.127, -1.611e-6, -8.002e-7, 8.111e-7
-0.128, -1.611e-6, -8.002e-7, 8.111e-7
-0.129, -1.608e-6, -7.971e-7, 8.111e-7
-0.130, -1.602e-6, -7.941e-7, 8.080e-7
-0.131, -1.602e-6, -7.941e-7, 8.080e-7
-0.132, -1.599e-6, -7.910e-7, 8.080e-7
-0.133, -1.599e-6, -7.910e-7, 8.080e-7
-0.134, -1.593e-6, -7.880e-7, 8.050e-7
-0.135, -1.596e-6, -7.880e-7, 8.080e-7
-0.136, -1.593e-6, -7.880e-7, 8.050e-7
-0.137, -1.593e-6, -7.880e-7, 8.050e-7
-0.138, -1.590e-6, -7.849e-7, 8.050e-7
-0.139, -1.587e-6, -7.819e-7, 8.050e-7
-0.140, -1.584e-6, -7.819e-7, 8.019e-7
-0.141, -1.587e-6, -7.819e-7, 8.050e-7
-0.142, -1.584e-6, -7.819e-7, 8.019e-7
-0.143, -1.581e-6, -7.788e-7, 8.019e-7
-0.144, -1.575e-6, -7.757e-7, 7.989e-7
-0.145, -1.575e-6, -7.757e-7, 7.989e-7
-0.146, -1.575e-6, -7.757e-7, 7.989e-7
-0.147, -1.572e-6, -7.727e-7, 7.989e-7
-0.148, -1.575e-6, -7.757e-7, 7.989e-7
-0.149, -1.565e-6, -7.696e-7, 7.958e-7
-0.150, -1.569e-6, -7.727e-7, 7.958e-7
-0.151, -1.565e-6, -7.727e-7, 7.928e-7
-0.152, -1.562e-6, -7.696e-7, 7.928e-7
-0.153, -1.569e-6, -7.727e-7, 7.958e-7
-0.154, -1.559e-6, -7.666e-7, 7.928e-7
-0.155, -1.559e-6, -7.666e-7, 7.928e-7
-0.156, -1.553e-6, -7.635e-7, 7.897e-7
-0.157, -1.556e-6, -7.666e-7, 7.897e-7
-0.158, -1.556e-6, -7.635e-7, 7.928e-7
-0.159, -1.550e-6, -7.635e-7, 7.867e-7
-0.160, -1.550e-6, -7.605e-7, 7.897e-7
-0.161, -1.547e-6, -7.574e-7, 7.897e-7
-0.162, -1.547e-6, -7.605e-7, 7.867e-7
-0.163, -1.544e-6, -7.574e-7, 7.867e-7
-0.164, -1.544e-6, -7.574e-7, 7.867e-7
-0.165, -1.544e-6, -7.605e-7, 7.836e-7
-0.166, -1.541e-6, -7.544e-7, 7.867e-7
-0.167, -1.538e-6, -7.544e-7, 7.836e-7
-0.168, -1.541e-6, -7.574e-7, 7.836e-7
-0.169, -1.538e-6, -7.544e-7, 7.836e-7
-0.170, -1.532e-6, -7.513e-7, 7.806e-7
-0.171, -1.532e-6, -7.513e-7, 7.806e-7
-0.172, -1.532e-6, -7.513e-7, 7.806e-7
-0.173, -1.529e-6, -7.483e-7, 7.806e-7
-0.174, -1.532e-6, -7.544e-7, 7.775e-7
-0.175, -1.526e-6, -7.483e-7, 7.775e-7
-0.176, -1.523e-6, -7.452e-7, 7.775e-7
-0.177, -1.526e-6, -7.513e-7, 7.745e-7
-0.178, -1.526e-6, -7.483e-7, 7.775e-7
-0.179, -1.517e-6, -7.422e-7, 7.745e-7
-0.180, -1.523e-6, -7.483e-7, 7.745e-7
-0.181, -1.520e-6, -7.452e-7, 7.745e-7
-0.182, -1.514e-6, -7.422e-7, 7.714e-7
-0.183, -1.517e-6, -7.452e-7, 7.714e-7
-0.184, -1.517e-6, -7.422e-7, 7.745e-7
-0.185, -1.514e-6, -7.422e-7, 7.714e-7
-0.186, -1.511e-6, -7.391e-7, 7.714e-7
-0.187, -1.511e-6, -7.391e-7, 7.714e-7
-0.188, -1.511e-6, -7.422e-7, 7.684e-7
-0.189, -1.511e-6, -7.391e-7, 7.714e-7
-0.190, -1.504e-6, -7.361e-7, 7.684e-7
-0.191, -1.507e-6, -7.391e-7, 7.684e-7
-0.192, -1.507e-6, -7.391e-7, 7.684e-7
-0.193, -1.501e-6, -7.330e-7, 7.684e-7
-0.194, -1.507e-6, -7.391e-7, 7.684e-7
-0.195, -1.507e-6, -7.391e-7, 7.684e-7
-0.196, -1.504e-6, -7.361e-7, 7.684e-7
-0.197, -1.498e-6, -7.361e-7, 7.622e-7
-0.198, -1.498e-6, -7.330e-7, 7.653e-7
-0.199, -1.495e-6, -7.330e-7, 7.622e-7
-0.200, -1.495e-6, -7.361e-7, 7.592e-7
-0.201, -1.495e-6, -7.330e-7, 7.622e-7
-0.202, -1.495e-6, -7.330e-7, 7.622e-7
-0.203, -1.495e-6, -7.330e-7, 7.622e-7
-0.204, -1.492e-6, -7.330e-7, 7.592e-7
-0.205, -1.492e-6, -7.330e-7, 7.592e-7
-0.206, -1.489e-6, -7.300e-7, 7.592e-7
-0.207, -1.489e-6, -7.300e-7, 7.592e-7
-0.208, -1.492e-6, -7.330e-7, 7.592e-7
-0.209, -1.486e-6, -7.300e-7, 7.561e-7
-0.210, -1.486e-6, -7.300e-7, 7.561e-7
-0.211, -1.489e-6, -7.330e-7, 7.561e-7
-0.212, -1.486e-6, -7.300e-7, 7.561e-7
-0.213, -1.492e-6, -7.361e-7, 7.561e-7
-0.214, -1.480e-6, -7.269e-7, 7.531e-7
-0.215, -1.486e-6, -7.300e-7, 7.561e-7
-0.216, -1.483e-6, -7.269e-7, 7.561e-7
-0.217, -1.483e-6, -7.269e-7, 7.561e-7
-0.218, -1.480e-6, -7.239e-7, 7.561e-7
-0.219, -1.474e-6, -7.239e-7, 7.500e-7
-0.220, -1.480e-6, -7.269e-7, 7.531e-7
-0.221, -1.474e-6, -7.208e-7, 7.531e-7
-0.222, -1.477e-6, -7.269e-7, 7.500e-7
-0.223, -1.474e-6, -7.239e-7, 7.500e-7
-0.224, -1.471e-6, -7.208e-7, 7.500e-7
-0.225, -1.474e-6, -7.239e-7, 7.500e-7
-0.226, -1.474e-6, -7.239e-7, 7.500e-7
-0.227, -1.474e-6, -7.239e-7, 7.500e-7
-0.228, -1.468e-6, -7.208e-7, 7.470e-7
-0.229, -1.468e-6, -7.208e-7, 7.470e-7
-0.230, -1.471e-6, -7.208e-7, 7.500e-7
-0.231, -1.462e-6, -7.178e-7, 7.439e-7
-0.232, -1.471e-6, -7.239e-7, 7.470e-7
-0.233, -1.468e-6, -7.208e-7, 7.470e-7
-0.234, -1.465e-6, -7.208e-7, 7.439e-7
-0.235, -1.471e-6, -7.239e-7, 7.470e-7
-0.236, -1.462e-6, -7.178e-7, 7.439e-7
-0.237, -1.462e-6, -7.208e-7, 7.409e-7
-0.238, -1.462e-6, -7.208e-7, 7.409e-7
-0.239, -1.459e-6, -7.147e-7, 7.439e-7
-0.240, -1.459e-6, -7.178e-7, 7.409e-7
-0.241, -1.459e-6, -7.178e-7, 7.409e-7
-0.242, -1.459e-6, -7.178e-7, 7.409e-7
-0.243, -1.459e-6, -7.178e-7, 7.409e-7
-0.244, -1.459e-6, -7.178e-7, 7.409e-7
-0.245, -1.459e-6, -7.178e-7, 7.409e-7
-0.246, -1.459e-6, -7.208e-7, 7.378e-7
-0.247, -1.459e-6, -7.178e-7, 7.409e-7
-0.248, -1.456e-6, -7.178e-7, 7.378e-7
-0.249, -1.449e-6, -7.117e-7, 7.378e-7
-0.250, -1.456e-6, -7.147e-7, 7.409e-7
-0.251, -1.453e-6, -7.147e-7, 7.378e-7
-0.252, -1.449e-6, -7.117e-7, 7.378e-7
-0.253, -1.449e-6, -7.117e-7, 7.378e-7
-0.254, -1.450e-6, -7.147e-7, 7.348e-7
-0.255, -1.449e-6, -7.117e-7, 7.378e-7
-0.256, -1.446e-6, -7.117e-7, 7.348e-7
-0.257, -1.446e-6, -7.117e-7, 7.348e-7
-0.258, -1.446e-6, -7.147e-7, 7.317e-7
-0.259, -1.450e-6, -7.147e-7, 7.348e-7
-0.260, -1.443e-6, -7.117e-7, 7.317e-7
-0.261, -1.443e-6, -7.117e-7, 7.317e-7
-0.262, -1.450e-6, -7.147e-7, 7.348e-7
-0.263, -1.443e-6, -7.117e-7, 7.317e-7
-0.264, -1.443e-6, -7.117e-7, 7.317e-7
-0.265, -1.443e-6, -7.117e-7, 7.317e-7
-0.266, -1.437e-6, -7.086e-7, 7.287e-7
-0.267, -1.437e-6, -7.086e-7, 7.287e-7
-0.268, -1.440e-6, -7.117e-7, 7.287e-7
-0.269, -1.446e-6, -7.147e-7, 7.317e-7
-0.270, -1.440e-6, -7.117e-7, 7.287e-7
-0.271, -1.440e-6, -7.117e-7, 7.287e-7
-0.272, -1.440e-6, -7.117e-7, 7.287e-7
-0.273, -1.437e-6, -7.086e-7, 7.287e-7
-0.274, -1.434e-6, -7.086e-7, 7.256e-7
-0.275, -1.437e-6, -7.086e-7, 7.287e-7
-0.276, -1.434e-6, -7.056e-7, 7.287e-7
-0.277, -1.440e-6, -7.117e-7, 7.287e-7
-0.278, -1.434e-6, -7.056e-7, 7.287e-7
-0.279, -1.437e-6, -7.086e-7, 7.287e-7
-0.280, -1.434e-6, -7.086e-7, 7.256e-7
-0.281, -1.437e-6, -7.086e-7, 7.287e-7
-0.282, -1.428e-6, -7.025e-7, 7.256e-7
-0.283, -1.431e-6, -7.056e-7, 7.256e-7
-0.284, -1.428e-6, -7.025e-7, 7.256e-7
-0.285, -1.428e-6, -7.025e-7, 7.256e-7
-0.286, -1.434e-6, -7.117e-7, 7.226e-7
-0.287, -1.431e-6, -7.056e-7, 7.256e-7
-0.288, -1.428e-6, -7.056e-7, 7.226e-7
-0.289, -1.431e-6, -7.086e-7, 7.226e-7
-0.290, -1.428e-6, -7.025e-7, 7.256e-7
-0.291, -1.425e-6, -7.025e-7, 7.226e-7
-0.292, -1.431e-6, -7.086e-7, 7.226e-7
-0.293, -1.428e-6, -7.025e-7, 7.256e-7
-0.294, -1.428e-6, -7.056e-7, 7.226e-7
-0.295, -1.431e-6, -7.086e-7, 7.226e-7
-0.296, -1.434e-6, -7.086e-7, 7.256e-7
-0.297, -1.428e-6, -7.056e-7, 7.226e-7
-0.298, -1.431e-6, -7.086e-7, 7.226e-7
-0.299, -1.428e-6, -7.056e-7, 7.226e-7
-0.300, -1.431e-6, -7.086e-7, 7.226e-7
-0.301, -1.425e-6, -7.056e-7, 7.195e-7
-0.302, -1.428e-6, -7.056e-7, 7.226e-7
-0.303, -1.425e-6, -7.056e-7, 7.195e-7
-0.304, -1.428e-6, -7.056e-7, 7.226e-7
-0.305, -1.428e-6, -7.056e-7, 7.226e-7
-0.306, -1.425e-6, -7.056e-7, 7.195e-7
-0.307, -1.428e-6, -7.086e-7, 7.195e-7
-0.308, -1.422e-6, -7.025e-7, 7.195e-7
-0.309, -1.431e-6, -7.117e-7, 7.195e-7
-0.310, -1.431e-6, -7.086e-7, 7.226e-7
-0.311, -1.428e-6, -7.086e-7, 7.195e-7
-0.312, -1.428e-6, -7.056e-7, 7.226e-7
-0.313, -1.425e-6, -7.056e-7, 7.195e-7
-0.314, -1.428e-6, -7.086e-7, 7.195e-7
-0.315, -1.425e-6, -7.056e-7, 7.195e-7
-0.316, -1.431e-6, -7.086e-7, 7.226e-7
-0.317, -1.428e-6, -7.086e-7, 7.195e-7
-0.318, -1.425e-6, -7.086e-7, 7.165e-7
-0.319, -1.431e-6, -7.086e-7, 7.226e-7
-0.320, -1.428e-6, -7.086e-7, 7.195e-7
-0.321, -1.428e-6, -7.086e-7, 7.195e-7
-0.322, -1.428e-6, -7.086e-7, 7.195e-7
-0.323, -1.428e-6, -7.086e-7, 7.195e-7
-0.324, -1.428e-6, -7.086e-7, 7.195e-7
-0.325, -1.428e-6, -7.086e-7, 7.195e-7
-0.326, -1.428e-6, -7.086e-7, 7.195e-7
-0.327, -1.428e-6, -7.086e-7, 7.195e-7
-0.328, -1.425e-6, -7.086e-7, 7.165e-7
-0.329, -1.428e-6, -7.117e-7, 7.165e-7
-0.330, -1.428e-6, -7.117e-7, 7.165e-7
-0.331, -1.428e-6, -7.117e-7, 7.165e-7
-0.332, -1.425e-6, -7.086e-7, 7.165e-7
-0.333, -1.428e-6, -7.086e-7, 7.195e-7
-0.334, -1.428e-6, -7.117e-7, 7.165e-7
-0.335, -1.428e-6, -7.117e-7, 7.165e-7
-0.336, -1.428e-6, -7.086e-7, 7.195e-7
-0.337, -1.425e-6, -7.117e-7, 7.134e-7
-0.338, -1.434e-6, -7.178e-7, 7.165e-7
-0.339, -1.428e-6, -7.117e-7, 7.165e-7
-0.340, -1.425e-6, -7.117e-7, 7.134e-7
-0.341, -1.428e-6, -7.147e-7, 7.134e-7
-0.342, -1.425e-6, -7.117e-7, 7.134e-7
-0.343, -1.428e-6, -7.147e-7, 7.134e-7
-0.344, -1.431e-6, -7.178e-7, 7.134e-7
-0.345, -1.428e-6, -7.117e-7, 7.165e-7
-0.346, -1.431e-6, -7.178e-7, 7.134e-7
-0.347, -1.431e-6, -7.147e-7, 7.165e-7
-0.348, -1.431e-6, -7.178e-7, 7.134e-7
-0.349, -1.422e-6, -7.117e-7, 7.104e-7
-0.350, -1.428e-6, -7.178e-7, 7.104e-7
-0.351, -1.425e-6, -7.147e-7, 7.104e-7
-0.352, -1.425e-6, -7.147e-7, 7.104e-7
-0.353, -1.431e-6, -7.178e-7, 7.134e-7
-0.354, -1.425e-6, -7.147e-7, 7.104e-7
-0.355, -1.428e-6, -7.178e-7, 7.104e-7
-0.356, -1.428e-6, -7.178e-7, 7.104e-7
-0.357, -1.431e-6, -7.208e-7, 7.104e-7
-0.358, -1.425e-6, -7.178e-7, 7.073e-7
-0.359, -1.428e-6, -7.178e-7, 7.104e-7
-0.360, -1.425e-6, -7.178e-7, 7.073e-7
-0.361, -1.428e-6, -7.178e-7, 7.104e-7
-0.362, -1.428e-6, -7.208e-7, 7.073e-7
-0.363, -1.428e-6, -7.178e-7, 7.104e-7
-0.364, -1.431e-6, -7.208e-7, 7.104e-7
-0.365, -1.428e-6, -7.178e-7, 7.104e-7
-0.366, -1.428e-6, -7.208e-7, 7.073e-7
-0.367, -1.431e-6, -7.239e-7, 7.073e-7
-0.368, -1.428e-6, -7.239e-7, 7.043e-7
-0.369, -1.428e-6, -7.239e-7, 7.043e-7
-0.370, -1.434e-6, -7.269e-7, 7.073e-7
-0.371, -1.431e-6, -7.239e-7, 7.073e-7
-0.372, -1.428e-6, -7.239e-7, 7.043e-7
-0.373, -1.431e-6, -7.269e-7, 7.043e-7
-0.374, -1.431e-6, -7.269e-7, 7.043e-7
-0.375, -1.431e-6, -7.269e-7, 7.043e-7
-0.376, -1.431e-6, -7.269e-7, 7.043e-7
-0.377, -1.431e-6, -7.269e-7, 7.043e-7
-0.378, -1.434e-6, -7.300e-7, 7.043e-7
-0.379, -1.434e-6, -7.300e-7, 7.043e-7
-0.380, -1.431e-6, -7.300e-7, 7.012e-7
-0.381, -1.437e-6, -7.361e-7, 7.012e-7
-0.382, -1.434e-6, -7.330e-7, 7.012e-7
-0.383, -1.437e-6, -7.361e-7, 7.012e-7
-0.384, -1.431e-6, -7.300e-7, 7.012e-7
-0.385, -1.437e-6, -7.361e-7, 7.012e-7
-0.386, -1.434e-6, -7.361e-7, 6.982e-7
-0.387, -1.437e-6, -7.361e-7, 7.012e-7
-0.388, -1.437e-6, -7.361e-7, 7.012e-7
-0.389, -1.434e-6, -7.361e-7, 6.982e-7
-0.390, -1.434e-6, -7.330e-7, 7.012e-7
-0.391, -1.440e-6, -7.391e-7, 7.012e-7
-0.392, -1.437e-6, -7.422e-7, 6.951e-7
-0.393, -1.440e-6, -7.391e-7, 7.012e-7
-0.394, -1.434e-6, -7.391e-7, 6.951e-7
-0.395, -1.440e-6, -7.422e-7, 6.982e-7
-0.396, -1.443e-6, -7.452e-7, 6.982e-7
-0.397, -1.440e-6, -7.422e-7, 6.982e-7
-0.398, -1.437e-6, -7.422e-7, 6.951e-7
-0.399, -1.443e-6, -7.452e-7, 6.982e-7
-0.400, -1.440e-6, -7.422e-7, 6.982e-7
