Mar. 20, 2018   15:41:14
Square Wave Voltammetry
File: c:\users\electrochemist\desktop\2018\20032018_unbufarray_unpap\54_g4_ph8,52_4.txt
Data Source:  Experiment
Instrument Model:  CHI1040A
Header: 
Note: 

Init E (V) = 0.7
Final E (V) = -0.4
Incr E (V) = 0.001
Amplitude (V) = 0.1
Frequency (Hz) = 152
Quiet Time (sec) = 2
Sensitivity (A/V) = 1e-6

Difference:

Forward:

Reverse:

Potential/V, Diff(i/A), For(i/A), Rev(i/A)

0.699, -7.449e-7, -1.944e-7, 5.505e-7
0.698, -9.109e-7, -4.068e-7, 5.041e-7
0.697, -9.109e-7, -4.178e-7, 4.931e-7
0.696, -9.094e-7, -4.233e-7, 4.861e-7
0.695, -9.054e-7, -4.221e-7, 4.833e-7
0.694, -9.030e-7, -4.215e-7, 4.815e-7
0.693, -8.993e-7, -4.233e-7, 4.760e-7
0.692, -8.978e-7, -4.218e-7, 4.760e-7
0.691, -8.929e-7, -4.221e-7, 4.708e-7
0.690, -8.898e-7, -4.227e-7, 4.671e-7
0.689, -8.886e-7, -4.221e-7, 4.665e-7
0.688, -8.868e-7, -4.218e-7, 4.650e-7
0.687, -8.856e-7, -4.245e-7, 4.610e-7
0.686, -8.837e-7, -4.203e-7, 4.635e-7
0.685, -8.792e-7, -4.209e-7, 4.583e-7
0.684, -8.776e-7, -4.206e-7, 4.571e-7
0.683, -8.761e-7, -4.212e-7, 4.549e-7
0.682, -8.758e-7, -4.215e-7, 4.543e-7
0.681, -8.746e-7, -4.215e-7, 4.531e-7
0.680, -8.709e-7, -4.190e-7, 4.519e-7
0.679, -8.670e-7, -4.190e-7, 4.479e-7
0.678, -8.715e-7, -4.224e-7, 4.491e-7
0.677, -8.715e-7, -4.215e-7, 4.501e-7
0.676, -8.642e-7, -4.190e-7, 4.452e-7
0.675, -8.627e-7, -4.196e-7, 4.430e-7
0.674, -8.630e-7, -4.190e-7, 4.440e-7
0.673, -8.605e-7, -4.184e-7, 4.421e-7
0.672, -8.599e-7, -4.199e-7, 4.400e-7
0.671, -8.590e-7, -4.190e-7, 4.400e-7
0.670, -8.529e-7, -4.160e-7, 4.369e-7
0.669, -8.569e-7, -4.193e-7, 4.375e-7
0.668, -8.535e-7, -4.169e-7, 4.366e-7
0.667, -8.526e-7, -4.203e-7, 4.324e-7
0.666, -8.541e-7, -4.178e-7, 4.363e-7
0.665, -8.493e-7, -4.145e-7, 4.348e-7
0.664, -8.483e-7, -4.172e-7, 4.311e-7
0.663, -8.499e-7, -4.181e-7, 4.318e-7
0.662, -8.456e-7, -4.166e-7, 4.290e-7
0.661, -8.477e-7, -4.184e-7, 4.293e-7
0.660, -8.490e-7, -4.184e-7, 4.305e-7
0.659, -8.432e-7, -4.166e-7, 4.266e-7
0.658, -8.462e-7, -4.196e-7, 4.266e-7
0.657, -8.435e-7, -4.166e-7, 4.269e-7
0.656, -8.410e-7, -4.160e-7, 4.250e-7
0.655, -8.419e-7, -4.190e-7, 4.229e-7
0.654, -8.432e-7, -4.169e-7, 4.263e-7
0.653, -8.380e-7, -4.166e-7, 4.214e-7
0.652, -8.380e-7, -4.178e-7, 4.202e-7
0.651, -8.386e-7, -4.163e-7, 4.223e-7
0.650, -8.389e-7, -4.175e-7, 4.214e-7
0.649, -8.377e-7, -4.178e-7, 4.198e-7
0.648, -8.374e-7, -4.172e-7, 4.202e-7
0.647, -8.337e-7, -4.163e-7, 4.174e-7
0.646, -8.358e-7, -4.178e-7, 4.180e-7
0.645, -8.340e-7, -4.166e-7, 4.174e-7
0.644, -8.343e-7, -4.172e-7, 4.171e-7
0.643, -8.334e-7, -4.181e-7, 4.153e-7
0.642, -8.340e-7, -4.175e-7, 4.165e-7
0.641, -8.313e-7, -4.163e-7, 4.150e-7
0.640, -8.303e-7, -4.169e-7, 4.134e-7
0.639, -8.282e-7, -4.145e-7, 4.137e-7
0.638, -8.319e-7, -4.175e-7, 4.144e-7
0.637, -8.285e-7, -4.160e-7, 4.125e-7
0.636, -8.276e-7, -4.160e-7, 4.116e-7
0.635, -8.285e-7, -4.166e-7, 4.119e-7
0.634, -8.291e-7, -4.163e-7, 4.128e-7
0.633, -8.282e-7, -4.154e-7, 4.128e-7
0.632, -8.270e-7, -4.163e-7, 4.107e-7
0.631, -8.288e-7, -4.163e-7, 4.125e-7
0.630, -8.267e-7, -4.172e-7, 4.095e-7
0.629, -8.255e-7, -4.166e-7, 4.089e-7
0.628, -8.264e-7, -4.163e-7, 4.101e-7
0.627, -8.230e-7, -4.163e-7, 4.067e-7
0.626, -8.248e-7, -4.157e-7, 4.092e-7
0.625, -8.245e-7, -4.160e-7, 4.086e-7
0.624, -8.239e-7, -4.172e-7, 4.067e-7
0.623, -8.248e-7, -4.169e-7, 4.079e-7
0.622, -8.215e-7, -4.145e-7, 4.070e-7
0.621, -8.221e-7, -4.172e-7, 4.049e-7
0.620, -8.215e-7, -4.163e-7, 4.052e-7
0.619, -8.230e-7, -4.166e-7, 4.064e-7
0.618, -8.184e-7, -4.163e-7, 4.021e-7
0.617, -8.203e-7, -4.160e-7, 4.043e-7
0.616, -8.233e-7, -4.169e-7, 4.064e-7
0.615, -8.166e-7, -4.151e-7, 4.015e-7
0.614, -8.224e-7, -4.175e-7, 4.049e-7
0.613, -8.184e-7, -4.148e-7, 4.037e-7
0.612, -8.184e-7, -4.172e-7, 4.012e-7
0.611, -8.206e-7, -4.169e-7, 4.037e-7
0.610, -8.166e-7, -4.141e-7, 4.025e-7
0.609, -8.166e-7, -4.160e-7, 4.006e-7
0.608, -8.190e-7, -4.160e-7, 4.031e-7
0.607, -8.154e-7, -4.145e-7, 4.009e-7
0.606, -8.157e-7, -4.154e-7, 4.003e-7
0.605, -8.193e-7, -4.181e-7, 4.012e-7
0.604, -8.154e-7, -4.157e-7, 3.997e-7
0.603, -8.157e-7, -4.172e-7, 3.985e-7
0.602, -8.132e-7, -4.138e-7, 3.994e-7
0.601, -8.151e-7, -4.166e-7, 3.985e-7
0.600, -8.142e-7, -4.163e-7, 3.979e-7
0.599, -8.172e-7, -4.163e-7, 4.009e-7
0.598, -8.120e-7, -4.163e-7, 3.957e-7
0.597, -8.160e-7, -4.181e-7, 3.979e-7
0.596, -8.151e-7, -4.154e-7, 3.997e-7
0.595, -8.108e-7, -4.157e-7, 3.951e-7
0.594, -8.139e-7, -4.160e-7, 3.979e-7
0.593, -8.123e-7, -4.157e-7, 3.967e-7
0.592, -8.129e-7, -4.157e-7, 3.973e-7
0.591, -8.169e-7, -4.184e-7, 3.985e-7
0.590, -8.126e-7, -4.160e-7, 3.967e-7
0.589, -8.102e-7, -4.157e-7, 3.945e-7
0.588, -8.126e-7, -4.175e-7, 3.951e-7
0.587, -8.120e-7, -4.157e-7, 3.964e-7
0.586, -8.099e-7, -4.166e-7, 3.933e-7
0.585, -8.123e-7, -4.169e-7, 3.954e-7
0.584, -8.120e-7, -4.151e-7, 3.970e-7
0.583, -8.117e-7, -4.178e-7, 3.939e-7
0.582, -8.123e-7, -4.172e-7, 3.951e-7
0.581, -8.099e-7, -4.151e-7, 3.948e-7
0.580, -8.102e-7, -4.172e-7, 3.930e-7
0.579, -8.093e-7, -4.163e-7, 3.930e-7
0.578, -8.093e-7, -4.169e-7, 3.924e-7
0.577, -8.111e-7, -4.172e-7, 3.939e-7
0.576, -8.087e-7, -4.151e-7, 3.936e-7
0.575, -8.084e-7, -4.163e-7, 3.921e-7
0.574, -8.090e-7, -4.181e-7, 3.909e-7
0.573, -8.102e-7, -4.178e-7, 3.924e-7
0.572, -8.053e-7, -4.151e-7, 3.902e-7
0.571, -8.090e-7, -4.178e-7, 3.912e-7
0.570, -8.065e-7, -4.169e-7, 3.896e-7
0.569, -8.071e-7, -4.163e-7, 3.909e-7
0.568, -8.068e-7, -4.154e-7, 3.915e-7
0.567, -8.071e-7, -4.157e-7, 3.915e-7
0.566, -8.059e-7, -4.169e-7, 3.890e-7
0.565, -8.078e-7, -4.175e-7, 3.902e-7
0.564, -8.053e-7, -4.160e-7, 3.893e-7
0.563, -8.056e-7, -4.175e-7, 3.881e-7
0.562, -8.074e-7, -4.175e-7, 3.899e-7
0.561, -8.044e-7, -4.160e-7, 3.884e-7
0.560, -8.044e-7, -4.163e-7, 3.881e-7
0.559, -8.050e-7, -4.157e-7, 3.893e-7
0.558, -8.044e-7, -4.169e-7, 3.875e-7
0.557, -8.068e-7, -4.187e-7, 3.881e-7
0.556, -8.044e-7, -4.166e-7, 3.878e-7
0.555, -8.050e-7, -4.163e-7, 3.887e-7
0.554, -8.059e-7, -4.181e-7, 3.878e-7
0.553, -8.050e-7, -4.175e-7, 3.875e-7
0.552, -8.029e-7, -4.160e-7, 3.869e-7
0.551, -8.053e-7, -4.181e-7, 3.872e-7
0.550, -8.059e-7, -4.172e-7, 3.887e-7
0.549, -8.032e-7, -4.169e-7, 3.863e-7
0.548, -8.038e-7, -4.184e-7, 3.854e-7
0.547, -8.041e-7, -4.169e-7, 3.872e-7
0.546, -8.059e-7, -4.196e-7, 3.863e-7
0.545, -8.078e-7, -4.199e-7, 3.878e-7
0.544, -8.071e-7, -4.193e-7, 3.878e-7
0.543, -8.017e-7, -4.163e-7, 3.854e-7
0.542, -8.059e-7, -4.187e-7, 3.872e-7
0.541, -8.041e-7, -4.163e-7, 3.878e-7
0.540, -8.041e-7, -4.184e-7, 3.857e-7
0.539, -8.050e-7, -4.187e-7, 3.863e-7
0.538, -8.053e-7, -4.184e-7, 3.869e-7
0.537, -8.050e-7, -4.193e-7, 3.857e-7
0.536, -8.062e-7, -4.199e-7, 3.863e-7
0.535, -8.059e-7, -4.184e-7, 3.875e-7
0.534, -8.053e-7, -4.209e-7, 3.844e-7
0.533, -8.074e-7, -4.190e-7, 3.884e-7
0.532, -8.053e-7, -4.184e-7, 3.869e-7
0.531, -8.044e-7, -4.193e-7, 3.851e-7
0.530, -8.068e-7, -4.193e-7, 3.875e-7
0.529, -8.065e-7, -4.203e-7, 3.863e-7
0.528, -8.078e-7, -4.230e-7, 3.848e-7
0.527, -8.087e-7, -4.206e-7, 3.881e-7
0.526, -8.056e-7, -4.187e-7, 3.869e-7
0.525, -8.081e-7, -4.230e-7, 3.851e-7
0.524, -8.081e-7, -4.221e-7, 3.860e-7
0.523, -8.062e-7, -4.218e-7, 3.844e-7
0.522, -8.047e-7, -4.212e-7, 3.835e-7
0.521, -8.084e-7, -4.221e-7, 3.863e-7
0.520, -8.068e-7, -4.206e-7, 3.863e-7
0.519, -8.081e-7, -4.236e-7, 3.844e-7
0.518, -8.120e-7, -4.242e-7, 3.878e-7
0.517, -8.087e-7, -4.230e-7, 3.857e-7
0.516, -8.081e-7, -4.224e-7, 3.857e-7
0.515, -8.074e-7, -4.215e-7, 3.860e-7
0.514, -8.087e-7, -4.236e-7, 3.851e-7
0.513, -8.093e-7, -4.233e-7, 3.860e-7
0.512, -8.108e-7, -4.233e-7, 3.875e-7
0.511, -8.105e-7, -4.239e-7, 3.866e-7
0.510, -8.099e-7, -4.233e-7, 3.866e-7
0.509, -8.090e-7, -4.236e-7, 3.854e-7
0.508, -8.117e-7, -4.239e-7, 3.878e-7
0.507, -8.123e-7, -4.230e-7, 3.893e-7
0.506, -8.102e-7, -4.227e-7, 3.875e-7
0.505, -8.111e-7, -4.264e-7, 3.848e-7
0.504, -8.114e-7, -4.245e-7, 3.869e-7
0.503, -8.120e-7, -4.245e-7, 3.875e-7
0.502, -8.136e-7, -4.261e-7, 3.875e-7
0.501, -8.126e-7, -4.254e-7, 3.872e-7
0.500, -8.111e-7, -4.273e-7, 3.838e-7
0.499, -8.132e-7, -4.267e-7, 3.866e-7
0.498, -8.102e-7, -4.245e-7, 3.857e-7
0.497, -8.157e-7, -4.285e-7, 3.872e-7
0.496, -8.117e-7, -4.261e-7, 3.857e-7
0.495, -8.114e-7, -4.257e-7, 3.857e-7
0.494, -8.139e-7, -4.276e-7, 3.863e-7
0.493, -8.139e-7, -4.279e-7, 3.860e-7
0.492, -8.139e-7, -4.276e-7, 3.863e-7
0.491, -8.129e-7, -4.264e-7, 3.866e-7
0.490, -8.154e-7, -4.276e-7, 3.878e-7
0.489, -8.163e-7, -4.279e-7, 3.884e-7
0.488, -8.114e-7, -4.276e-7, 3.838e-7
0.487, -8.148e-7, -4.276e-7, 3.872e-7
0.486, -8.151e-7, -4.288e-7, 3.863e-7
0.485, -8.145e-7, -4.285e-7, 3.860e-7
0.484, -8.169e-7, -4.291e-7, 3.878e-7
0.483, -8.132e-7, -4.261e-7, 3.872e-7
0.482, -8.166e-7, -4.300e-7, 3.866e-7
0.481, -8.166e-7, -4.303e-7, 3.863e-7
0.480, -8.154e-7, -4.288e-7, 3.866e-7
0.479, -8.172e-7, -4.322e-7, 3.851e-7
0.478, -8.169e-7, -4.300e-7, 3.869e-7
0.477, -8.172e-7, -4.297e-7, 3.875e-7
0.476, -8.175e-7, -4.312e-7, 3.863e-7
0.475, -8.178e-7, -4.300e-7, 3.878e-7
0.474, -8.163e-7, -4.306e-7, 3.857e-7
0.473, -8.206e-7, -4.331e-7, 3.875e-7
0.472, -8.187e-7, -4.315e-7, 3.872e-7
0.471, -8.178e-7, -4.309e-7, 3.869e-7
0.470, -8.184e-7, -4.334e-7, 3.851e-7
0.469, -8.193e-7, -4.312e-7, 3.881e-7
0.468, -8.178e-7, -4.322e-7, 3.857e-7
0.467, -8.203e-7, -4.340e-7, 3.863e-7
0.466, -8.187e-7, -4.315e-7, 3.872e-7
0.465, -8.172e-7, -4.315e-7, 3.857e-7
0.464, -8.197e-7, -4.337e-7, 3.860e-7
0.463, -8.169e-7, -4.306e-7, 3.863e-7
0.462, -8.181e-7, -4.337e-7, 3.844e-7
0.461, -8.215e-7, -4.349e-7, 3.866e-7
0.460, -8.181e-7, -4.309e-7, 3.872e-7
0.459, -8.166e-7, -4.309e-7, 3.857e-7
0.458, -8.212e-7, -4.346e-7, 3.866e-7
0.457, -8.200e-7, -4.322e-7, 3.878e-7
0.456, -8.212e-7, -4.346e-7, 3.866e-7
0.455, -8.218e-7, -4.346e-7, 3.872e-7
0.454, -8.215e-7, -4.340e-7, 3.875e-7
0.453, -8.200e-7, -4.346e-7, 3.854e-7
0.452, -8.221e-7, -4.349e-7, 3.872e-7
0.451, -8.197e-7, -4.346e-7, 3.851e-7
0.450, -8.230e-7, -4.364e-7, 3.866e-7
0.449, -8.203e-7, -4.358e-7, 3.844e-7
0.448, -8.221e-7, -4.343e-7, 3.878e-7
0.447, -8.218e-7, -4.361e-7, 3.857e-7
0.446, -8.227e-7, -4.346e-7, 3.881e-7
0.445, -8.203e-7, -4.346e-7, 3.857e-7
0.444, -8.224e-7, -4.361e-7, 3.863e-7
0.443, -8.236e-7, -4.376e-7, 3.860e-7
0.442, -8.230e-7, -4.373e-7, 3.857e-7
0.441, -8.239e-7, -4.367e-7, 3.872e-7
0.440, -8.224e-7, -4.364e-7, 3.860e-7
0.439, -8.239e-7, -4.373e-7, 3.866e-7
0.438, -8.261e-7, -4.389e-7, 3.872e-7
0.437, -8.258e-7, -4.383e-7, 3.875e-7
0.436, -8.230e-7, -4.373e-7, 3.857e-7
0.435, -8.261e-7, -4.395e-7, 3.866e-7
0.434, -8.255e-7, -4.383e-7, 3.872e-7
0.433, -8.270e-7, -4.407e-7, 3.863e-7
0.432, -8.245e-7, -4.370e-7, 3.875e-7
0.431, -8.261e-7, -4.404e-7, 3.857e-7
0.430, -8.251e-7, -4.386e-7, 3.866e-7
0.429, -8.264e-7, -4.395e-7, 3.869e-7
0.428, -8.264e-7, -4.395e-7, 3.869e-7
0.427, -8.270e-7, -4.401e-7, 3.869e-7
0.426, -8.267e-7, -4.398e-7, 3.869e-7
0.425, -8.258e-7, -4.395e-7, 3.863e-7
0.424, -8.270e-7, -4.413e-7, 3.857e-7
0.423, -8.276e-7, -4.410e-7, 3.866e-7
0.422, -8.236e-7, -4.386e-7, 3.851e-7
0.421, -8.291e-7, -4.425e-7, 3.866e-7
0.420, -8.288e-7, -4.407e-7, 3.881e-7
0.419, -8.291e-7, -4.431e-7, 3.860e-7
0.418, -8.325e-7, -4.447e-7, 3.878e-7
0.417, -8.297e-7, -4.413e-7, 3.884e-7
0.416, -8.300e-7, -4.434e-7, 3.866e-7
0.415, -8.309e-7, -4.431e-7, 3.878e-7
0.414, -8.325e-7, -4.434e-7, 3.890e-7
0.413, -8.291e-7, -4.431e-7, 3.860e-7
0.412, -8.334e-7, -4.453e-7, 3.881e-7
0.411, -8.331e-7, -4.447e-7, 3.884e-7
0.410, -8.328e-7, -4.456e-7, 3.872e-7
0.409, -8.361e-7, -4.462e-7, 3.899e-7
0.408, -8.319e-7, -4.447e-7, 3.872e-7
0.407, -8.319e-7, -4.465e-7, 3.854e-7
0.406, -8.355e-7, -4.453e-7, 3.902e-7
0.405, -8.319e-7, -4.444e-7, 3.875e-7
0.404, -8.337e-7, -4.471e-7, 3.866e-7
0.403, -8.361e-7, -4.468e-7, 3.893e-7
0.402, -8.331e-7, -4.459e-7, 3.872e-7
0.401, -8.374e-7, -4.492e-7, 3.881e-7
0.400, -8.370e-7, -4.471e-7, 3.899e-7
0.399, -8.364e-7, -4.483e-7, 3.881e-7
0.398, -8.389e-7, -4.511e-7, 3.878e-7
0.397, -8.404e-7, -4.492e-7, 3.912e-7
0.396, -8.404e-7, -4.502e-7, 3.902e-7
0.395, -8.404e-7, -4.508e-7, 3.896e-7
0.394, -8.398e-7, -4.492e-7, 3.906e-7
0.393, -8.377e-7, -4.477e-7, 3.899e-7
0.392, -8.398e-7, -4.511e-7, 3.887e-7
0.391, -8.398e-7, -4.489e-7, 3.909e-7
0.390, -8.374e-7, -4.492e-7, 3.881e-7
0.389, -8.410e-7, -4.517e-7, 3.893e-7
0.388, -8.435e-7, -4.511e-7, 3.924e-7
0.387, -8.435e-7, -4.529e-7, 3.906e-7
0.386, -8.428e-7, -4.523e-7, 3.906e-7
0.385, -8.416e-7, -4.511e-7, 3.906e-7
0.384, -8.432e-7, -4.520e-7, 3.912e-7
0.383, -8.456e-7, -4.538e-7, 3.918e-7
0.382, -8.447e-7, -4.535e-7, 3.912e-7
0.381, -8.456e-7, -4.557e-7, 3.899e-7
0.380, -8.483e-7, -4.547e-7, 3.936e-7
0.379, -8.477e-7, -4.553e-7, 3.924e-7
0.378, -8.450e-7, -4.538e-7, 3.912e-7
0.377, -8.493e-7, -4.563e-7, 3.930e-7
0.376, -8.474e-7, -4.553e-7, 3.921e-7
0.375, -8.499e-7, -4.578e-7, 3.921e-7
0.374, -8.505e-7, -4.569e-7, 3.936e-7
0.373, -8.486e-7, -4.566e-7, 3.921e-7
0.372, -8.496e-7, -4.581e-7, 3.915e-7
0.371, -8.514e-7, -4.581e-7, 3.933e-7
0.370, -8.529e-7, -4.590e-7, 3.939e-7
0.369, -8.511e-7, -4.590e-7, 3.921e-7
0.368, -8.517e-7, -4.590e-7, 3.927e-7
0.367, -8.544e-7, -4.596e-7, 3.948e-7
0.366, -8.526e-7, -4.599e-7, 3.927e-7
0.365, -8.554e-7, -4.608e-7, 3.945e-7
0.364, -8.523e-7, -4.587e-7, 3.936e-7
0.363, -8.547e-7, -4.605e-7, 3.942e-7
0.362, -8.563e-7, -4.605e-7, 3.957e-7
0.361, -8.560e-7, -4.611e-7, 3.948e-7
0.360, -8.593e-7, -4.633e-7, 3.960e-7
0.359, -8.618e-7, -4.633e-7, 3.985e-7
0.358, -8.560e-7, -4.627e-7, 3.933e-7
0.357, -8.590e-7, -4.642e-7, 3.948e-7
0.356, -8.581e-7, -4.624e-7, 3.957e-7
0.355, -8.587e-7, -4.645e-7, 3.942e-7
0.354, -8.624e-7, -4.660e-7, 3.963e-7
0.353, -8.596e-7, -4.624e-7, 3.973e-7
0.352, -8.590e-7, -4.648e-7, 3.942e-7
0.351, -8.621e-7, -4.651e-7, 3.970e-7
0.350, -8.612e-7, -4.645e-7, 3.967e-7
0.349, -8.618e-7, -4.663e-7, 3.954e-7
0.348, -8.636e-7, -4.657e-7, 3.979e-7
0.347, -8.612e-7, -4.660e-7, 3.951e-7
0.346, -8.627e-7, -4.679e-7, 3.948e-7
0.345, -8.639e-7, -4.663e-7, 3.976e-7
0.344, -8.642e-7, -4.669e-7, 3.973e-7
0.343, -8.654e-7, -4.685e-7, 3.970e-7
0.342, -8.663e-7, -4.685e-7, 3.979e-7
0.341, -8.648e-7, -4.694e-7, 3.954e-7
0.340, -8.712e-7, -4.718e-7, 3.994e-7
0.339, -8.657e-7, -4.679e-7, 3.979e-7
0.338, -8.673e-7, -4.697e-7, 3.976e-7
0.337, -8.673e-7, -4.706e-7, 3.967e-7
0.336, -8.673e-7, -4.685e-7, 3.988e-7
0.335, -8.676e-7, -4.700e-7, 3.976e-7
0.334, -8.715e-7, -4.724e-7, 3.991e-7
0.333, -8.715e-7, -4.727e-7, 3.988e-7
0.332, -8.712e-7, -4.730e-7, 3.982e-7
0.331, -8.728e-7, -4.727e-7, 4.000e-7
0.330, -8.724e-7, -4.721e-7, 4.003e-7
0.329, -8.721e-7, -4.737e-7, 3.985e-7
0.328, -8.734e-7, -4.746e-7, 3.988e-7
0.327, -8.737e-7, -4.743e-7, 3.994e-7
0.326, -8.737e-7, -4.752e-7, 3.985e-7
0.325, -8.718e-7, -4.746e-7, 3.973e-7
0.324, -8.737e-7, -4.752e-7, 3.985e-7
0.323, -8.770e-7, -4.764e-7, 4.006e-7
0.322, -8.779e-7, -4.767e-7, 4.012e-7
0.321, -8.770e-7, -4.761e-7, 4.009e-7
0.320, -8.786e-7, -4.776e-7, 4.009e-7
0.319, -8.764e-7, -4.761e-7, 4.003e-7
0.318, -8.770e-7, -4.764e-7, 4.006e-7
0.317, -8.782e-7, -4.779e-7, 4.003e-7
0.316, -8.795e-7, -4.785e-7, 4.009e-7
0.315, -8.776e-7, -4.779e-7, 3.997e-7
0.314, -8.804e-7, -4.788e-7, 4.015e-7
0.313, -8.798e-7, -4.785e-7, 4.012e-7
0.312, -8.813e-7, -4.798e-7, 4.015e-7
0.311, -8.816e-7, -4.788e-7, 4.028e-7
0.310, -8.801e-7, -4.779e-7, 4.021e-7
0.309, -8.819e-7, -4.801e-7, 4.018e-7
0.308, -8.828e-7, -4.813e-7, 4.015e-7
0.307, -8.840e-7, -4.801e-7, 4.040e-7
0.306, -8.865e-7, -4.831e-7, 4.034e-7
0.305, -8.862e-7, -4.825e-7, 4.037e-7
0.304, -8.837e-7, -4.816e-7, 4.021e-7
0.303, -8.862e-7, -4.828e-7, 4.034e-7
0.302, -8.868e-7, -4.837e-7, 4.031e-7
0.301, -8.889e-7, -4.849e-7, 4.040e-7
0.300, -8.877e-7, -4.856e-7, 4.021e-7
0.299, -8.886e-7, -4.843e-7, 4.043e-7
0.298, -8.868e-7, -4.846e-7, 4.021e-7
0.297, -8.877e-7, -4.853e-7, 4.025e-7
0.296, -8.914e-7, -4.862e-7, 4.052e-7
0.295, -8.905e-7, -4.859e-7, 4.046e-7
0.294, -8.923e-7, -4.880e-7, 4.043e-7
0.293, -8.923e-7, -4.868e-7, 4.055e-7
0.292, -8.908e-7, -4.862e-7, 4.046e-7
0.291, -8.950e-7, -4.895e-7, 4.055e-7
0.290, -8.935e-7, -4.874e-7, 4.061e-7
0.289, -8.926e-7, -4.883e-7, 4.043e-7
0.288, -8.966e-7, -4.892e-7, 4.073e-7
0.287, -8.972e-7, -4.892e-7, 4.079e-7
0.286, -8.953e-7, -4.907e-7, 4.046e-7
0.285, -8.972e-7, -4.907e-7, 4.064e-7
0.284, -8.993e-7, -4.907e-7, 4.086e-7
0.283, -8.981e-7, -4.923e-7, 4.058e-7
0.282, -9.017e-7, -4.932e-7, 4.086e-7
0.281, -8.990e-7, -4.907e-7, 4.082e-7
0.280, -9.030e-7, -4.953e-7, 4.076e-7
0.279, -9.030e-7, -4.938e-7, 4.092e-7
0.278, -9.002e-7, -4.926e-7, 4.076e-7
0.277, -9.030e-7, -4.956e-7, 4.073e-7
0.276, -9.054e-7, -4.956e-7, 4.098e-7
0.275, -9.033e-7, -4.947e-7, 4.086e-7
0.274, -9.057e-7, -4.972e-7, 4.086e-7
0.273, -9.066e-7, -4.956e-7, 4.110e-7
0.272, -9.057e-7, -4.968e-7, 4.089e-7
0.271, -9.075e-7, -4.987e-7, 4.089e-7
0.270, -9.115e-7, -4.999e-7, 4.116e-7
0.269, -9.094e-7, -4.978e-7, 4.116e-7
0.268, -9.121e-7, -5.011e-7, 4.110e-7
0.267, -9.115e-7, -4.996e-7, 4.119e-7
0.266, -9.121e-7, -4.999e-7, 4.122e-7
0.265, -9.130e-7, -5.017e-7, 4.113e-7
0.264, -9.139e-7, -5.017e-7, 4.122e-7
0.263, -9.133e-7, -5.014e-7, 4.119e-7
0.262, -9.149e-7, -5.033e-7, 4.116e-7
0.261, -9.158e-7, -5.020e-7, 4.137e-7
0.260, -9.164e-7, -5.030e-7, 4.134e-7
0.259, -9.185e-7, -5.054e-7, 4.131e-7
0.258, -9.207e-7, -5.054e-7, 4.153e-7
0.257, -9.207e-7, -5.066e-7, 4.140e-7
0.256, -9.219e-7, -5.069e-7, 4.150e-7
0.255, -9.207e-7, -5.051e-7, 4.156e-7
0.254, -9.213e-7, -5.060e-7, 4.153e-7
0.253, -9.228e-7, -5.094e-7, 4.134e-7
0.252, -9.234e-7, -5.072e-7, 4.162e-7
0.251, -9.280e-7, -5.106e-7, 4.174e-7
0.250, -9.268e-7, -5.097e-7, 4.171e-7
0.249, -9.295e-7, -5.121e-7, 4.174e-7
0.248, -9.329e-7, -5.127e-7, 4.202e-7
0.247, -9.320e-7, -5.130e-7, 4.189e-7
0.246, -9.307e-7, -5.124e-7, 4.183e-7
0.245, -9.332e-7, -5.139e-7, 4.192e-7
0.244, -9.344e-7, -5.139e-7, 4.205e-7
0.243, -9.353e-7, -5.155e-7, 4.198e-7
0.242, -9.347e-7, -5.152e-7, 4.195e-7
0.241, -9.374e-7, -5.158e-7, 4.217e-7
0.240, -9.371e-7, -5.167e-7, 4.205e-7
0.239, -9.387e-7, -5.179e-7, 4.208e-7
0.238, -9.405e-7, -5.182e-7, 4.223e-7
0.237, -9.387e-7, -5.182e-7, 4.205e-7
0.236, -9.420e-7, -5.207e-7, 4.214e-7
0.235, -9.420e-7, -5.197e-7, 4.223e-7
0.234, -9.411e-7, -5.191e-7, 4.220e-7
0.233, -9.439e-7, -5.207e-7, 4.232e-7
0.232, -9.457e-7, -5.219e-7, 4.238e-7
0.231, -9.448e-7, -5.216e-7, 4.232e-7
0.230, -9.469e-7, -5.234e-7, 4.235e-7
0.229, -9.490e-7, -5.228e-7, 4.263e-7
0.228, -9.478e-7, -5.249e-7, 4.229e-7
0.227, -9.527e-7, -5.274e-7, 4.253e-7
0.226, -9.500e-7, -5.246e-7, 4.253e-7
0.225, -9.539e-7, -5.277e-7, 4.263e-7
0.224, -9.567e-7, -5.286e-7, 4.281e-7
0.223, -9.555e-7, -5.283e-7, 4.272e-7
0.222, -9.573e-7, -5.304e-7, 4.269e-7
0.221, -9.588e-7, -5.301e-7, 4.287e-7
0.220, -9.551e-7, -5.292e-7, 4.259e-7
0.219, -9.606e-7, -5.326e-7, 4.281e-7
0.218, -9.600e-7, -5.313e-7, 4.287e-7
0.217, -9.594e-7, -5.316e-7, 4.278e-7
0.216, -9.628e-7, -5.338e-7, 4.290e-7
0.215, -9.634e-7, -5.329e-7, 4.305e-7
0.214, -9.631e-7, -5.335e-7, 4.296e-7
0.213, -9.677e-7, -5.377e-7, 4.299e-7
0.212, -9.680e-7, -5.356e-7, 4.324e-7
0.211, -9.670e-7, -5.371e-7, 4.299e-7
0.210, -9.713e-7, -5.390e-7, 4.324e-7
0.209, -9.719e-7, -5.393e-7, 4.327e-7
0.208, -9.698e-7, -5.396e-7, 4.302e-7
0.207, -9.741e-7, -5.405e-7, 4.336e-7
0.206, -9.762e-7, -5.408e-7, 4.354e-7
0.205, -9.731e-7, -5.420e-7, 4.311e-7
0.204, -9.768e-7, -5.435e-7, 4.333e-7
0.203, -9.765e-7, -5.423e-7, 4.342e-7
0.202, -9.786e-7, -5.448e-7, 4.339e-7
0.201, -9.826e-7, -5.466e-7, 4.360e-7
0.200, -9.820e-7, -5.445e-7, 4.375e-7
0.199, -9.820e-7, -5.469e-7, 4.351e-7
0.198, -9.841e-7, -5.481e-7, 4.360e-7
0.197, -9.857e-7, -5.493e-7, 4.363e-7
0.196, -9.866e-7, -5.499e-7, 4.366e-7
0.195, -9.884e-7, -5.506e-7, 4.378e-7
0.194, -9.890e-7, -5.512e-7, 4.378e-7
0.193, -9.899e-7, -5.521e-7, 4.378e-7
0.192, -9.915e-7, -5.533e-7, 4.382e-7
0.191, -9.927e-7, -5.545e-7, 4.382e-7
0.190, -9.945e-7, -5.551e-7, 4.394e-7
0.189, -9.936e-7, -5.548e-7, 4.388e-7
0.188, -9.948e-7, -5.548e-7, 4.400e-7
0.187, -9.982e-7, -5.567e-7, 4.415e-7
0.186, -9.988e-7, -5.579e-7, 4.409e-7
0.185, -1.000e-6, -5.591e-7, 4.409e-7
0.184, -1.002e-6, -5.588e-7, 4.427e-7
0.183, -1.002e-6, -5.594e-7, 4.427e-7
0.182, -1.008e-6, -5.634e-7, 4.443e-7
0.181, -1.005e-6, -5.622e-7, 4.424e-7
0.180, -1.004e-6, -5.606e-7, 4.430e-7
0.179, -1.009e-6, -5.649e-7, 4.443e-7
0.178, -1.009e-6, -5.646e-7, 4.449e-7
0.177, -1.012e-6, -5.649e-7, 4.467e-7
0.176, -1.013e-6, -5.686e-7, 4.440e-7
0.175, -1.014e-6, -5.683e-7, 4.458e-7
0.174, -1.017e-6, -5.698e-7, 4.473e-7
0.173, -1.019e-6, -5.719e-7, 4.470e-7
0.172, -1.018e-6, -5.710e-7, 4.473e-7
0.171, -1.020e-6, -5.710e-7, 4.488e-7
0.170, -1.021e-6, -5.731e-7, 4.476e-7
0.169, -1.023e-6, -5.738e-7, 4.494e-7
0.168, -1.024e-6, -5.747e-7, 4.497e-7
0.167, -1.028e-6, -5.771e-7, 4.513e-7
0.166, -1.027e-6, -5.762e-7, 4.510e-7
0.165, -1.028e-6, -5.783e-7, 4.501e-7
0.164, -1.031e-6, -5.789e-7, 4.519e-7
0.163, -1.033e-6, -5.786e-7, 4.543e-7
0.162, -1.034e-6, -5.823e-7, 4.519e-7
0.161, -1.038e-6, -5.832e-7, 4.552e-7
0.160, -1.037e-6, -5.823e-7, 4.546e-7
0.159, -1.040e-6, -5.853e-7, 4.546e-7
0.158, -1.043e-6, -5.866e-7, 4.565e-7
0.157, -1.043e-6, -5.872e-7, 4.562e-7
0.156, -1.046e-6, -5.905e-7, 4.555e-7
0.155, -1.051e-6, -5.908e-7, 4.598e-7
0.154, -1.048e-6, -5.887e-7, 4.589e-7
0.153, -1.051e-6, -5.918e-7, 4.589e-7
0.152, -1.054e-6, -5.930e-7, 4.610e-7
0.151, -1.055e-6, -5.936e-7, 4.613e-7
0.150, -1.055e-6, -5.960e-7, 4.589e-7
0.149, -1.062e-6, -5.979e-7, 4.638e-7
0.148, -1.058e-6, -5.960e-7, 4.620e-7
0.147, -1.062e-6, -5.997e-7, 4.620e-7
0.146, -1.066e-6, -6.006e-7, 4.653e-7
0.145, -1.063e-6, -5.991e-7, 4.641e-7
0.144, -1.068e-6, -6.030e-7, 4.650e-7
0.143, -1.073e-6, -6.040e-7, 4.693e-7
0.142, -1.068e-6, -6.027e-7, 4.656e-7
0.141, -1.072e-6, -6.067e-7, 4.650e-7
0.140, -1.075e-6, -6.055e-7, 4.693e-7
0.139, -1.076e-6, -6.073e-7, 4.690e-7
0.138, -1.080e-6, -6.101e-7, 4.699e-7
0.137, -1.083e-6, -6.113e-7, 4.720e-7
0.136, -1.081e-6, -6.110e-7, 4.702e-7
0.135, -1.085e-6, -6.134e-7, 4.714e-7
0.134, -1.088e-6, -6.146e-7, 4.729e-7
0.133, -1.089e-6, -6.159e-7, 4.729e-7
0.132, -1.091e-6, -6.162e-7, 4.745e-7
0.131, -1.093e-6, -6.177e-7, 4.754e-7
0.130, -1.094e-6, -6.186e-7, 4.757e-7
0.129, -1.098e-6, -6.214e-7, 4.763e-7
0.128, -1.099e-6, -6.223e-7, 4.763e-7
0.127, -1.101e-6, -6.229e-7, 4.784e-7
0.126, -1.104e-6, -6.244e-7, 4.800e-7
0.125, -1.104e-6, -6.250e-7, 4.787e-7
0.124, -1.105e-6, -6.256e-7, 4.793e-7
0.123, -1.110e-6, -6.278e-7, 4.818e-7
0.122, -1.110e-6, -6.278e-7, 4.818e-7
0.121, -1.114e-6, -6.305e-7, 4.836e-7
0.120, -1.117e-6, -6.320e-7, 4.848e-7
0.119, -1.116e-6, -6.311e-7, 4.845e-7
0.118, -1.118e-6, -6.339e-7, 4.842e-7
0.117, -1.122e-6, -6.351e-7, 4.870e-7
0.116, -1.126e-6, -6.381e-7, 4.876e-7
0.115, -1.126e-6, -6.375e-7, 4.888e-7
0.114, -1.126e-6, -6.366e-7, 4.894e-7
0.113, -1.129e-6, -6.397e-7, 4.894e-7
0.112, -1.132e-6, -6.424e-7, 4.900e-7
0.111, -1.133e-6, -6.406e-7, 4.928e-7
0.110, -1.135e-6, -6.433e-7, 4.922e-7
0.109, -1.139e-6, -6.445e-7, 4.940e-7
0.108, -1.142e-6, -6.461e-7, 4.955e-7
0.107, -1.142e-6, -6.470e-7, 4.949e-7
0.106, -1.146e-6, -6.488e-7, 4.970e-7
0.105, -1.146e-6, -6.491e-7, 4.970e-7
0.104, -1.149e-6, -6.510e-7, 4.977e-7
0.103, -1.152e-6, -6.516e-7, 5.004e-7
0.102, -1.151e-6, -6.503e-7, 5.004e-7
0.101, -1.153e-6, -6.534e-7, 4.995e-7
0.100, -1.158e-6, -6.552e-7, 5.025e-7
0.099, -1.157e-6, -6.543e-7, 5.025e-7
0.098, -1.162e-6, -6.580e-7, 5.038e-7
0.097, -1.163e-6, -6.592e-7, 5.041e-7
0.096, -1.161e-6, -6.568e-7, 5.041e-7
0.095, -1.168e-6, -6.619e-7, 5.065e-7
0.094, -1.171e-6, -6.622e-7, 5.083e-7
0.093, -1.169e-6, -6.619e-7, 5.074e-7
0.092, -1.173e-6, -6.632e-7, 5.096e-7
0.091, -1.175e-6, -6.638e-7, 5.111e-7
0.090, -1.176e-6, -6.662e-7, 5.099e-7
0.089, -1.179e-6, -6.671e-7, 5.123e-7
0.088, -1.180e-6, -6.674e-7, 5.129e-7
0.087, -1.182e-6, -6.696e-7, 5.123e-7
0.086, -1.184e-6, -6.708e-7, 5.135e-7
0.085, -1.189e-6, -6.702e-7, 5.187e-7
0.084, -1.187e-6, -6.726e-7, 5.147e-7
0.083, -1.191e-6, -6.735e-7, 5.178e-7
0.082, -1.192e-6, -6.729e-7, 5.187e-7
0.081, -1.193e-6, -6.738e-7, 5.190e-7
0.080, -1.196e-6, -6.763e-7, 5.196e-7
0.079, -1.197e-6, -6.754e-7, 5.215e-7
0.078, -1.199e-6, -6.775e-7, 5.215e-7
0.077, -1.200e-6, -6.787e-7, 5.218e-7
0.076, -1.202e-6, -6.778e-7, 5.245e-7
0.075, -1.203e-6, -6.806e-7, 5.221e-7
0.074, -1.208e-6, -6.824e-7, 5.251e-7
0.073, -1.205e-6, -6.790e-7, 5.263e-7
0.072, -1.208e-6, -6.827e-7, 5.257e-7
0.071, -1.214e-6, -6.842e-7, 5.297e-7
0.070, -1.214e-6, -6.842e-7, 5.300e-7
0.069, -1.216e-6, -6.857e-7, 5.306e-7
0.068, -1.218e-6, -6.860e-7, 5.315e-7
0.067, -1.217e-6, -6.857e-7, 5.312e-7
0.066, -1.220e-6, -6.888e-7, 5.309e-7
0.065, -1.221e-6, -6.882e-7, 5.331e-7
0.064, -1.222e-6, -6.873e-7, 5.352e-7
0.063, -1.228e-6, -6.909e-7, 5.370e-7
0.062, -1.228e-6, -6.912e-7, 5.364e-7
0.061, -1.228e-6, -6.922e-7, 5.355e-7
0.060, -1.232e-6, -6.934e-7, 5.382e-7
0.059, -1.232e-6, -6.928e-7, 5.395e-7
0.058, -1.233e-6, -6.937e-7, 5.395e-7
0.057, -1.235e-6, -6.940e-7, 5.410e-7
0.056, -1.235e-6, -6.943e-7, 5.410e-7
0.055, -1.238e-6, -6.952e-7, 5.425e-7
0.054, -1.239e-6, -6.955e-7, 5.431e-7
0.053, -1.240e-6, -6.955e-7, 5.450e-7
0.052, -1.243e-6, -6.976e-7, 5.450e-7
0.051, -1.242e-6, -6.976e-7, 5.447e-7
0.050, -1.244e-6, -6.970e-7, 5.471e-7
0.049, -1.249e-6, -7.013e-7, 5.480e-7
0.048, -1.248e-6, -6.998e-7, 5.483e-7
0.047, -1.251e-6, -7.013e-7, 5.495e-7
0.046, -1.249e-6, -7.007e-7, 5.480e-7
0.045, -1.253e-6, -7.016e-7, 5.517e-7
0.044, -1.254e-6, -7.013e-7, 5.529e-7
0.043, -1.255e-6, -7.013e-7, 5.532e-7
0.042, -1.255e-6, -7.016e-7, 5.538e-7
0.041, -1.257e-6, -7.022e-7, 5.550e-7
0.040, -1.258e-6, -7.028e-7, 5.553e-7
0.039, -1.260e-6, -7.025e-7, 5.572e-7
0.038, -1.260e-6, -7.037e-7, 5.562e-7
0.037, -1.263e-6, -7.053e-7, 5.578e-7
0.036, -1.264e-6, -7.031e-7, 5.608e-7
0.035, -1.263e-6, -7.050e-7, 5.581e-7
0.034, -1.267e-6, -7.059e-7, 5.611e-7
0.033, -1.267e-6, -7.053e-7, 5.617e-7
0.032, -1.266e-6, -7.056e-7, 5.608e-7
0.031, -1.270e-6, -7.068e-7, 5.630e-7
0.030, -1.270e-6, -7.056e-7, 5.642e-7
0.029, -1.272e-6, -7.077e-7, 5.642e-7
0.028, -1.274e-6, -7.068e-7, 5.669e-7
0.027, -1.272e-6, -7.059e-7, 5.660e-7
0.026, -1.275e-6, -7.089e-7, 5.657e-7
0.025, -1.277e-6, -7.086e-7, 5.688e-7
0.024, -1.273e-6, -7.065e-7, 5.669e-7
0.023, -1.276e-6, -7.086e-7, 5.672e-7
0.022, -1.279e-6, -7.074e-7, 5.712e-7
0.021, -1.278e-6, -7.074e-7, 5.706e-7
0.020, -1.278e-6, -7.089e-7, 5.691e-7
0.019, -1.283e-6, -7.080e-7, 5.746e-7
0.018, -1.280e-6, -7.068e-7, 5.730e-7
0.017, -1.283e-6, -7.099e-7, 5.727e-7
0.016, -1.286e-6, -7.089e-7, 5.767e-7
0.015, -1.283e-6, -7.083e-7, 5.746e-7
0.014, -1.286e-6, -7.092e-7, 5.764e-7
0.013, -1.285e-6, -7.080e-7, 5.770e-7
0.012, -1.283e-6, -7.065e-7, 5.767e-7
0.011, -1.286e-6, -7.095e-7, 5.764e-7
0.010, -1.288e-6, -7.080e-7, 5.804e-7
0.009, -1.287e-6, -7.071e-7, 5.794e-7
0.008, -1.288e-6, -7.083e-7, 5.794e-7
0.007, -1.288e-6, -7.068e-7, 5.813e-7
0.006, -1.287e-6, -7.065e-7, 5.801e-7
0.005, -1.287e-6, -7.071e-7, 5.804e-7
0.004, -1.290e-6, -7.062e-7, 5.837e-7
0.003, -1.291e-6, -7.068e-7, 5.840e-7
0.002, -1.291e-6, -7.071e-7, 5.840e-7
0.001, -1.291e-6, -7.056e-7, 5.849e-7
0.000, -1.290e-6, -7.062e-7, 5.837e-7
-0.001, -1.292e-6, -7.068e-7, 5.852e-7
-0.002, -1.292e-6, -7.059e-7, 5.862e-7
-0.003, -1.293e-6, -7.059e-7, 5.874e-7
-0.004, -1.292e-6, -7.047e-7, 5.877e-7
-0.005, -1.293e-6, -7.037e-7, 5.889e-7
-0.006, -1.293e-6, -7.050e-7, 5.877e-7
-0.007, -1.293e-6, -7.041e-7, 5.892e-7
-0.008, -1.293e-6, -7.041e-7, 5.886e-7
-0.009, -1.294e-6, -7.044e-7, 5.901e-7
-0.010, -1.294e-6, -7.034e-7, 5.904e-7
-0.011, -1.291e-6, -7.016e-7, 5.892e-7
-0.012, -1.294e-6, -7.034e-7, 5.907e-7
-0.013, -1.295e-6, -7.025e-7, 5.923e-7
-0.014, -1.292e-6, -7.010e-7, 5.907e-7
-0.015, -1.294e-6, -7.019e-7, 5.920e-7
-0.016, -1.294e-6, -7.001e-7, 5.944e-7
-0.017, -1.291e-6, -6.998e-7, 5.916e-7
-0.018, -1.294e-6, -7.010e-7, 5.935e-7
-0.019, -1.292e-6, -6.986e-7, 5.935e-7
-0.020, -1.292e-6, -6.986e-7, 5.932e-7
-0.021, -1.294e-6, -6.989e-7, 5.950e-7
-0.022, -1.290e-6, -6.958e-7, 5.941e-7
-0.023, -1.291e-6, -6.967e-7, 5.944e-7
-0.024, -1.291e-6, -6.955e-7, 5.953e-7
-0.025, -1.289e-6, -6.928e-7, 5.959e-7
-0.026, -1.290e-6, -6.955e-7, 5.941e-7
-0.027, -1.289e-6, -6.937e-7, 5.956e-7
-0.028, -1.289e-6, -6.931e-7, 5.962e-7
-0.029, -1.285e-6, -6.915e-7, 5.938e-7
-0.030, -1.288e-6, -6.915e-7, 5.962e-7
-0.031, -1.286e-6, -6.894e-7, 5.965e-7
-0.032, -1.288e-6, -6.912e-7, 5.965e-7
-0.033, -1.286e-6, -6.891e-7, 5.968e-7
-0.034, -1.286e-6, -6.894e-7, 5.968e-7
-0.035, -1.283e-6, -6.879e-7, 5.956e-7
-0.036, -1.287e-6, -6.891e-7, 5.974e-7
-0.037, -1.283e-6, -6.861e-7, 5.965e-7
-0.038, -1.283e-6, -6.873e-7, 5.956e-7
-0.039, -1.282e-6, -6.842e-7, 5.981e-7
-0.040, -1.279e-6, -6.839e-7, 5.950e-7
-0.041, -1.281e-6, -6.839e-7, 5.971e-7
-0.042, -1.279e-6, -6.812e-7, 5.977e-7
-0.043, -1.279e-6, -6.827e-7, 5.962e-7
-0.044, -1.278e-6, -6.806e-7, 5.971e-7
-0.045, -1.278e-6, -6.803e-7, 5.974e-7
-0.046, -1.275e-6, -6.784e-7, 5.962e-7
-0.047, -1.279e-6, -6.806e-7, 5.981e-7
-0.048, -1.274e-6, -6.772e-7, 5.968e-7
-0.049, -1.272e-6, -6.763e-7, 5.959e-7
-0.050, -1.271e-6, -6.751e-7, 5.962e-7
-0.051, -1.271e-6, -6.745e-7, 5.962e-7
-0.052, -1.269e-6, -6.735e-7, 5.953e-7
-0.053, -1.270e-6, -6.732e-7, 5.968e-7
-0.054, -1.266e-6, -6.705e-7, 5.959e-7
-0.055, -1.266e-6, -6.708e-7, 5.950e-7
-0.056, -1.265e-6, -6.702e-7, 5.953e-7
-0.057, -1.266e-6, -6.687e-7, 5.971e-7
-0.058, -1.264e-6, -6.696e-7, 5.941e-7
-0.059, -1.265e-6, -6.687e-7, 5.965e-7
-0.060, -1.260e-6, -6.650e-7, 5.947e-7
-0.061, -1.258e-6, -6.653e-7, 5.932e-7
-0.062, -1.259e-6, -6.644e-7, 5.944e-7
-0.063, -1.256e-6, -6.622e-7, 5.941e-7
-0.064, -1.255e-6, -6.610e-7, 5.935e-7
-0.065, -1.256e-6, -6.610e-7, 5.950e-7
-0.066, -1.252e-6, -6.601e-7, 5.920e-7
-0.067, -1.255e-6, -6.607e-7, 5.941e-7
-0.068, -1.251e-6, -6.577e-7, 5.929e-7
-0.069, -1.251e-6, -6.592e-7, 5.920e-7
-0.070, -1.248e-6, -6.555e-7, 5.926e-7
-0.071, -1.247e-6, -6.546e-7, 5.923e-7
-0.072, -1.247e-6, -6.558e-7, 5.910e-7
-0.073, -1.246e-6, -6.540e-7, 5.916e-7
-0.074, -1.241e-6, -6.516e-7, 5.898e-7
-0.075, -1.241e-6, -6.513e-7, 5.895e-7
-0.076, -1.243e-6, -6.516e-7, 5.910e-7
-0.077, -1.238e-6, -6.497e-7, 5.886e-7
-0.078, -1.238e-6, -6.491e-7, 5.892e-7
-0.079, -1.237e-6, -6.482e-7, 5.883e-7
-0.080, -1.235e-6, -6.470e-7, 5.877e-7
-0.081, -1.236e-6, -6.479e-7, 5.877e-7
-0.082, -1.234e-6, -6.461e-7, 5.880e-7
-0.083, -1.232e-6, -6.442e-7, 5.877e-7
-0.084, -1.231e-6, -6.442e-7, 5.868e-7
-0.085, -1.231e-6, -6.424e-7, 5.883e-7
-0.086, -1.230e-6, -6.433e-7, 5.865e-7
-0.087, -1.226e-6, -6.415e-7, 5.846e-7
-0.088, -1.228e-6, -6.412e-7, 5.865e-7
-0.089, -1.223e-6, -6.397e-7, 5.837e-7
-0.090, -1.222e-6, -6.384e-7, 5.834e-7
-0.091, -1.222e-6, -6.375e-7, 5.843e-7
-0.092, -1.219e-6, -6.360e-7, 5.831e-7
-0.093, -1.222e-6, -6.381e-7, 5.837e-7
-0.094, -1.218e-6, -6.354e-7, 5.831e-7
-0.095, -1.215e-6, -6.342e-7, 5.804e-7
-0.096, -1.217e-6, -6.360e-7, 5.807e-7
-0.097, -1.215e-6, -6.323e-7, 5.828e-7
-0.098, -1.212e-6, -6.330e-7, 5.791e-7
-0.099, -1.214e-6, -6.323e-7, 5.813e-7
-0.100, -1.211e-6, -6.299e-7, 5.810e-7
-0.101, -1.208e-6, -6.299e-7, 5.782e-7
-0.102, -1.209e-6, -6.290e-7, 5.800e-7
-0.103, -1.206e-6, -6.275e-7, 5.785e-7
-0.104, -1.202e-6, -6.275e-7, 5.749e-7
-0.105, -1.206e-6, -6.269e-7, 5.794e-7
-0.106, -1.200e-6, -6.238e-7, 5.767e-7
-0.107, -1.202e-6, -6.262e-7, 5.755e-7
-0.108, -1.203e-6, -6.250e-7, 5.779e-7
-0.109, -1.200e-6, -6.244e-7, 5.758e-7
-0.110, -1.199e-6, -6.247e-7, 5.739e-7
-0.111, -1.199e-6, -6.235e-7, 5.752e-7
-0.112, -1.196e-6, -6.214e-7, 5.743e-7
-0.113, -1.194e-6, -6.214e-7, 5.730e-7
-0.114, -1.194e-6, -6.198e-7, 5.739e-7
-0.115, -1.192e-6, -6.195e-7, 5.721e-7
-0.116, -1.193e-6, -6.207e-7, 5.721e-7
-0.117, -1.190e-6, -6.171e-7, 5.727e-7
-0.118, -1.189e-6, -6.165e-7, 5.721e-7
-0.119, -1.190e-6, -6.195e-7, 5.703e-7
-0.120, -1.188e-6, -6.168e-7, 5.709e-7
-0.121, -1.184e-6, -6.146e-7, 5.694e-7
-0.122, -1.184e-6, -6.159e-7, 5.685e-7
-0.123, -1.185e-6, -6.146e-7, 5.703e-7
-0.124, -1.182e-6, -6.140e-7, 5.678e-7
-0.125, -1.181e-6, -6.131e-7, 5.675e-7
-0.126, -1.181e-6, -6.137e-7, 5.669e-7
-0.127, -1.178e-6, -6.119e-7, 5.660e-7
-0.128, -1.180e-6, -6.128e-7, 5.669e-7
-0.129, -1.179e-6, -6.128e-7, 5.666e-7
-0.130, -1.176e-6, -6.113e-7, 5.645e-7
-0.131, -1.177e-6, -6.113e-7, 5.657e-7
-0.132, -1.175e-6, -6.107e-7, 5.639e-7
-0.133, -1.173e-6, -6.101e-7, 5.630e-7
-0.134, -1.173e-6, -6.092e-7, 5.639e-7
-0.135, -1.172e-6, -6.098e-7, 5.624e-7
-0.136, -1.173e-6, -6.095e-7, 5.633e-7
-0.137, -1.170e-6, -6.076e-7, 5.624e-7
-0.138, -1.170e-6, -6.076e-7, 5.620e-7
-0.139, -1.167e-6, -6.073e-7, 5.599e-7
-0.140, -1.169e-6, -6.088e-7, 5.602e-7
-0.141, -1.165e-6, -6.058e-7, 5.596e-7
-0.142, -1.165e-6, -6.058e-7, 5.596e-7
-0.143, -1.167e-6, -6.073e-7, 5.599e-7
-0.144, -1.166e-6, -6.064e-7, 5.593e-7
-0.145, -1.162e-6, -6.046e-7, 5.575e-7
-0.146, -1.162e-6, -6.037e-7, 5.584e-7
-0.147, -1.163e-6, -6.046e-7, 5.584e-7
-0.148, -1.164e-6, -6.046e-7, 5.590e-7
-0.149, -1.160e-6, -6.027e-7, 5.572e-7
-0.150, -1.158e-6, -6.030e-7, 5.550e-7
-0.151, -1.158e-6, -6.024e-7, 5.556e-7
-0.152, -1.157e-6, -6.021e-7, 5.550e-7
-0.153, -1.153e-6, -6.009e-7, 5.520e-7
-0.154, -1.157e-6, -6.018e-7, 5.553e-7
-0.155, -1.153e-6, -5.997e-7, 5.535e-7
-0.156, -1.156e-6, -6.040e-7, 5.517e-7
-0.157, -1.153e-6, -6.003e-7, 5.529e-7
-0.158, -1.151e-6, -5.991e-7, 5.523e-7
-0.159, -1.151e-6, -6.006e-7, 5.508e-7
-0.160, -1.151e-6, -5.991e-7, 5.523e-7
-0.161, -1.151e-6, -5.994e-7, 5.517e-7
-0.162, -1.150e-6, -6.000e-7, 5.501e-7
-0.163, -1.149e-6, -5.976e-7, 5.514e-7
-0.164, -1.148e-6, -5.991e-7, 5.492e-7
-0.165, -1.148e-6, -5.994e-7, 5.486e-7
-0.166, -1.148e-6, -5.982e-7, 5.501e-7
-0.167, -1.144e-6, -5.969e-7, 5.468e-7
-0.168, -1.146e-6, -5.991e-7, 5.474e-7
-0.169, -1.146e-6, -5.966e-7, 5.492e-7
-0.170, -1.143e-6, -5.966e-7, 5.465e-7
-0.171, -1.143e-6, -5.960e-7, 5.474e-7
-0.172, -1.141e-6, -5.951e-7, 5.462e-7
-0.173, -1.142e-6, -5.963e-7, 5.453e-7
-0.174, -1.140e-6, -5.960e-7, 5.443e-7
-0.175, -1.140e-6, -5.936e-7, 5.465e-7
-0.176, -1.137e-6, -5.927e-7, 5.447e-7
-0.177, -1.140e-6, -5.951e-7, 5.447e-7
-0.178, -1.137e-6, -5.915e-7, 5.456e-7
-0.179, -1.139e-6, -5.954e-7, 5.434e-7
-0.180, -1.138e-6, -5.939e-7, 5.437e-7
-0.181, -1.135e-6, -5.921e-7, 5.434e-7
-0.182, -1.133e-6, -5.921e-7, 5.410e-7
-0.183, -1.135e-6, -5.945e-7, 5.410e-7
-0.184, -1.132e-6, -5.902e-7, 5.422e-7
-0.185, -1.132e-6, -5.918e-7, 5.404e-7
-0.186, -1.132e-6, -5.924e-7, 5.401e-7
-0.187, -1.131e-6, -5.899e-7, 5.407e-7
-0.188, -1.130e-6, -5.899e-7, 5.401e-7
-0.189, -1.136e-6, -5.957e-7, 5.404e-7
-0.190, -1.132e-6, -5.918e-7, 5.398e-7
-0.191, -1.130e-6, -5.893e-7, 5.404e-7
-0.192, -1.130e-6, -5.902e-7, 5.398e-7
-0.193, -1.126e-6, -5.881e-7, 5.376e-7
-0.194, -1.131e-6, -5.918e-7, 5.389e-7
-0.195, -1.127e-6, -5.890e-7, 5.376e-7
-0.196, -1.126e-6, -5.887e-7, 5.373e-7
-0.197, -1.125e-6, -5.884e-7, 5.364e-7
-0.198, -1.124e-6, -5.866e-7, 5.373e-7
-0.199, -1.123e-6, -5.860e-7, 5.367e-7
-0.200, -1.123e-6, -5.869e-7, 5.361e-7
-0.201, -1.123e-6, -5.863e-7, 5.370e-7
-0.202, -1.122e-6, -5.884e-7, 5.340e-7
-0.203, -1.120e-6, -5.860e-7, 5.343e-7
-0.204, -1.121e-6, -5.853e-7, 5.352e-7
-0.205, -1.119e-6, -5.853e-7, 5.337e-7
-0.206, -1.118e-6, -5.841e-7, 5.343e-7
-0.207, -1.119e-6, -5.850e-7, 5.340e-7
-0.208, -1.121e-6, -5.866e-7, 5.343e-7
-0.209, -1.119e-6, -5.847e-7, 5.340e-7
-0.210, -1.114e-6, -5.817e-7, 5.324e-7
-0.211, -1.117e-6, -5.857e-7, 5.318e-7
-0.212, -1.117e-6, -5.838e-7, 5.337e-7
-0.213, -1.117e-6, -5.841e-7, 5.331e-7
-0.214, -1.121e-6, -5.890e-7, 5.321e-7
-0.215, -1.115e-6, -5.823e-7, 5.331e-7
-0.216, -1.114e-6, -5.832e-7, 5.309e-7
-0.217, -1.114e-6, -5.814e-7, 5.321e-7
-0.218, -1.112e-6, -5.808e-7, 5.312e-7
-0.219, -1.112e-6, -5.817e-7, 5.303e-7
-0.220, -1.114e-6, -5.814e-7, 5.321e-7
-0.221, -1.114e-6, -5.814e-7, 5.324e-7
-0.222, -1.110e-6, -5.814e-7, 5.291e-7
-0.223, -1.112e-6, -5.814e-7, 5.306e-7
-0.224, -1.111e-6, -5.796e-7, 5.318e-7
-0.225, -1.110e-6, -5.817e-7, 5.282e-7
-0.226, -1.111e-6, -5.814e-7, 5.300e-7
-0.227, -1.109e-6, -5.789e-7, 5.297e-7
-0.228, -1.108e-6, -5.789e-7, 5.288e-7
-0.229, -1.109e-6, -5.805e-7, 5.288e-7
-0.230, -1.107e-6, -5.777e-7, 5.297e-7
-0.231, -1.107e-6, -5.792e-7, 5.282e-7
-0.232, -1.112e-6, -5.823e-7, 5.300e-7
-0.233, -1.112e-6, -5.829e-7, 5.294e-7
-0.234, -1.108e-6, -5.796e-7, 5.282e-7
-0.235, -1.106e-6, -5.771e-7, 5.288e-7
-0.236, -1.107e-6, -5.765e-7, 5.300e-7
-0.237, -1.104e-6, -5.777e-7, 5.266e-7
-0.238, -1.106e-6, -5.771e-7, 5.288e-7
-0.239, -1.111e-6, -5.805e-7, 5.303e-7
-0.240, -1.106e-6, -5.789e-7, 5.270e-7
-0.241, -1.103e-6, -5.750e-7, 5.282e-7
-0.242, -1.104e-6, -5.771e-7, 5.270e-7
-0.243, -1.105e-6, -5.780e-7, 5.273e-7
-0.244, -1.105e-6, -5.747e-7, 5.300e-7
-0.245, -1.106e-6, -5.777e-7, 5.279e-7
-0.246, -1.102e-6, -5.759e-7, 5.260e-7
-0.247, -1.101e-6, -5.747e-7, 5.266e-7
-0.248, -1.099e-6, -5.731e-7, 5.263e-7
-0.249, -1.100e-6, -5.747e-7, 5.251e-7
-0.250, -1.099e-6, -5.728e-7, 5.263e-7
-0.251, -1.099e-6, -5.731e-7, 5.263e-7
-0.252, -1.100e-6, -5.747e-7, 5.254e-7
-0.253, -1.098e-6, -5.716e-7, 5.266e-7
-0.254, -1.099e-6, -5.731e-7, 5.257e-7
-0.255, -1.097e-6, -5.716e-7, 5.251e-7
-0.256, -1.101e-6, -5.741e-7, 5.270e-7
-0.257, -1.097e-6, -5.728e-7, 5.242e-7
-0.258, -1.097e-6, -5.722e-7, 5.245e-7
-0.259, -1.098e-6, -5.734e-7, 5.248e-7
-0.260, -1.098e-6, -5.728e-7, 5.248e-7
-0.261, -1.097e-6, -5.710e-7, 5.263e-7
-0.262, -1.098e-6, -5.741e-7, 5.239e-7
-0.263, -1.095e-6, -5.710e-7, 5.242e-7
-0.264, -1.099e-6, -5.741e-7, 5.251e-7
-0.265, -1.094e-6, -5.704e-7, 5.239e-7
-0.266, -1.096e-6, -5.704e-7, 5.251e-7
-0.267, -1.095e-6, -5.710e-7, 5.242e-7
-0.268, -1.092e-6, -5.698e-7, 5.224e-7
-0.269, -1.095e-6, -5.698e-7, 5.251e-7
-0.270, -1.092e-6, -5.673e-7, 5.248e-7
-0.271, -1.093e-6, -5.680e-7, 5.248e-7
-0.272, -1.092e-6, -5.695e-7, 5.230e-7
-0.273, -1.093e-6, -5.680e-7, 5.251e-7
-0.274, -1.090e-6, -5.667e-7, 5.230e-7
-0.275, -1.089e-6, -5.667e-7, 5.221e-7
-0.276, -1.089e-6, -5.667e-7, 5.227e-7
-0.277, -1.089e-6, -5.670e-7, 5.221e-7
-0.278, -1.090e-6, -5.689e-7, 5.208e-7
-0.279, -1.091e-6, -5.677e-7, 5.236e-7
-0.280, -1.088e-6, -5.664e-7, 5.212e-7
-0.281, -1.088e-6, -5.661e-7, 5.215e-7
-0.282, -1.087e-6, -5.673e-7, 5.196e-7
-0.283, -1.083e-6, -5.634e-7, 5.199e-7
-0.284, -1.086e-6, -5.637e-7, 5.221e-7
-0.285, -1.086e-6, -5.649e-7, 5.215e-7
-0.286, -1.085e-6, -5.661e-7, 5.190e-7
-0.287, -1.088e-6, -5.664e-7, 5.221e-7
-0.288, -1.081e-6, -5.619e-7, 5.193e-7
-0.289, -1.081e-6, -5.615e-7, 5.196e-7
-0.290, -1.083e-6, -5.628e-7, 5.202e-7
-0.291, -1.081e-6, -5.612e-7, 5.199e-7
-0.292, -1.080e-6, -5.615e-7, 5.184e-7
-0.293, -1.082e-6, -5.612e-7, 5.205e-7
-0.294, -1.080e-6, -5.625e-7, 5.178e-7
-0.295, -1.081e-6, -5.622e-7, 5.193e-7
-0.296, -1.078e-6, -5.591e-7, 5.187e-7
-0.297, -1.075e-6, -5.597e-7, 5.154e-7
-0.298, -1.077e-6, -5.600e-7, 5.169e-7
-0.299, -1.076e-6, -5.579e-7, 5.184e-7
-0.300, -1.074e-6, -5.588e-7, 5.154e-7
-0.301, -1.077e-6, -5.597e-7, 5.172e-7
-0.302, -1.073e-6, -5.564e-7, 5.166e-7
-0.303, -1.072e-6, -5.579e-7, 5.144e-7
-0.304, -1.074e-6, -5.579e-7, 5.160e-7
-0.305, -1.071e-6, -5.554e-7, 5.160e-7
-0.306, -1.073e-6, -5.573e-7, 5.157e-7
-0.307, -1.071e-6, -5.576e-7, 5.138e-7
-0.308, -1.072e-6, -5.561e-7, 5.160e-7
-0.309, -1.071e-6, -5.573e-7, 5.138e-7
-0.310, -1.070e-6, -5.564e-7, 5.141e-7
-0.311, -1.071e-6, -5.564e-7, 5.150e-7
-0.312, -1.067e-6, -5.545e-7, 5.123e-7
-0.313, -1.070e-6, -5.558e-7, 5.141e-7
-0.314, -1.069e-6, -5.567e-7, 5.126e-7
-0.315, -1.068e-6, -5.567e-7, 5.117e-7
-0.316, -1.066e-6, -5.548e-7, 5.111e-7
-0.317, -1.065e-6, -5.530e-7, 5.123e-7
-0.318, -1.064e-6, -5.539e-7, 5.105e-7
-0.319, -1.064e-6, -5.527e-7, 5.114e-7
-0.320, -1.062e-6, -5.527e-7, 5.093e-7
-0.321, -1.061e-6, -5.530e-7, 5.077e-7
-0.322, -1.061e-6, -5.512e-7, 5.102e-7
-0.323, -1.061e-6, -5.527e-7, 5.080e-7
-0.324, -1.062e-6, -5.527e-7, 5.096e-7
-0.325, -1.059e-6, -5.527e-7, 5.062e-7
-0.326, -1.058e-6, -5.518e-7, 5.059e-7
-0.327, -1.057e-6, -5.509e-7, 5.065e-7
-0.328, -1.060e-6, -5.530e-7, 5.065e-7
-0.329, -1.055e-6, -5.496e-7, 5.053e-7
-0.330, -1.059e-6, -5.536e-7, 5.056e-7
-0.331, -1.056e-6, -5.512e-7, 5.044e-7
-0.332, -1.051e-6, -5.487e-7, 5.025e-7
-0.333, -1.053e-6, -5.487e-7, 5.047e-7
-0.334, -1.054e-6, -5.512e-7, 5.028e-7
-0.335, -1.051e-6, -5.496e-7, 5.010e-7
-0.336, -1.056e-6, -5.500e-7, 5.056e-7
-0.337, -1.051e-6, -5.496e-7, 5.016e-7
-0.338, -1.052e-6, -5.509e-7, 5.013e-7
-0.339, -1.050e-6, -5.484e-7, 5.013e-7
-0.340, -1.052e-6, -5.484e-7, 5.031e-7
-0.341, -1.052e-6, -5.512e-7, 5.010e-7
-0.342, -1.052e-6, -5.490e-7, 5.028e-7
-0.343, -1.048e-6, -5.478e-7, 5.004e-7
-0.344, -1.047e-6, -5.478e-7, 4.992e-7
-0.345, -1.049e-6, -5.490e-7, 5.001e-7
-0.346, -1.044e-6, -5.469e-7, 4.973e-7
-0.347, -1.046e-6, -5.484e-7, 4.973e-7
-0.348, -1.045e-6, -5.475e-7, 4.973e-7
-0.349, -1.049e-6, -5.503e-7, 4.983e-7
-0.350, -1.042e-6, -5.487e-7, 4.931e-7
-0.351, -1.042e-6, -5.451e-7, 4.967e-7
-0.352, -1.046e-6, -5.493e-7, 4.967e-7
-0.353, -1.043e-6, -5.478e-7, 4.955e-7
-0.354, -1.041e-6, -5.469e-7, 4.940e-7
-0.355, -1.043e-6, -5.496e-7, 4.934e-7
-0.356, -1.041e-6, -5.463e-7, 4.943e-7
-0.357, -1.043e-6, -5.475e-7, 4.952e-7
-0.358, -1.039e-6, -5.466e-7, 4.922e-7
-0.359, -1.044e-6, -5.512e-7, 4.928e-7
-0.360, -1.038e-6, -5.460e-7, 4.925e-7
-0.361, -1.038e-6, -5.475e-7, 4.903e-7
-0.362, -1.039e-6, -5.475e-7, 4.912e-7
-0.363, -1.040e-6, -5.484e-7, 4.916e-7
-0.364, -1.038e-6, -5.469e-7, 4.912e-7
-0.365, -1.041e-6, -5.484e-7, 4.925e-7
-0.366, -1.037e-6, -5.478e-7, 4.894e-7
-0.367, -1.038e-6, -5.487e-7, 4.888e-7
-0.368, -1.035e-6, -5.463e-7, 4.891e-7
-0.369, -1.034e-6, -5.454e-7, 4.885e-7
-0.370, -1.037e-6, -5.503e-7, 4.867e-7
-0.371, -1.038e-6, -5.484e-7, 4.900e-7
-0.372, -1.034e-6, -5.469e-7, 4.876e-7
-0.373, -1.034e-6, -5.481e-7, 4.858e-7
-0.374, -1.034e-6, -5.475e-7, 4.867e-7
-0.375, -1.033e-6, -5.478e-7, 4.854e-7
-0.376, -1.034e-6, -5.490e-7, 4.854e-7
-0.377, -1.035e-6, -5.496e-7, 4.851e-7
-0.378, -1.036e-6, -5.493e-7, 4.867e-7
-0.379, -1.033e-6, -5.487e-7, 4.842e-7
-0.380, -1.032e-6, -5.469e-7, 4.848e-7
-0.381, -1.033e-6, -5.500e-7, 4.827e-7
-0.382, -1.032e-6, -5.496e-7, 4.824e-7
-0.383, -1.032e-6, -5.487e-7, 4.836e-7
-0.384, -1.032e-6, -5.506e-7, 4.815e-7
-0.385, -1.032e-6, -5.487e-7, 4.833e-7
-0.386, -1.030e-6, -5.490e-7, 4.812e-7
-0.387, -1.031e-6, -5.506e-7, 4.800e-7
-0.388, -1.028e-6, -5.496e-7, 4.787e-7
-0.389, -1.029e-6, -5.493e-7, 4.793e-7
-0.390, -1.032e-6, -5.524e-7, 4.793e-7
-0.391, -1.028e-6, -5.484e-7, 4.796e-7
-0.392, -1.028e-6, -5.500e-7, 4.784e-7
-0.393, -1.029e-6, -5.512e-7, 4.778e-7
-0.394, -1.031e-6, -5.533e-7, 4.778e-7
-0.395, -1.027e-6, -5.509e-7, 4.760e-7
-0.396, -1.027e-6, -5.509e-7, 4.757e-7
-0.397, -1.027e-6, -5.500e-7, 4.766e-7
-0.398, -1.027e-6, -5.527e-7, 4.745e-7
-0.399, -1.030e-6, -5.539e-7, 4.757e-7
-0.400, -1.030e-6, -5.524e-7, 4.772e-7
