Mar. 20, 2018   15:44:40
Square Wave Voltammetry
File: c:\users\electrochemist\desktop\2018\20032018_unbufarray_unpap\56_g1_ph9,02_3.txt
Data Source:  Experiment
Instrument Model:  CHI1040A
Header: 
Note: 

Init E (V) = 0.7
Final E (V) = -0.4
Incr E (V) = 0.001
Amplitude (V) = 0.1
Frequency (Hz) = 152
Quiet Time (sec) = 2
Sensitivity (A/V) = 1e-6

Difference:

Forward:

Reverse:
Ep = -0.094V
ip = 1.292e-7A
Ah = 1.466e-8VA

Potential/V, Diff(i/A), For(i/A), Rev(i/A)

0.699, -9.667e-7, -2.497e-7, 7.171e-7
0.698, -1.137e-6, -5.020e-7, 6.350e-7
0.697, -1.135e-6, -5.185e-7, 6.161e-7
0.696, -1.126e-6, -5.210e-7, 6.048e-7
0.695, -1.124e-6, -5.271e-7, 5.968e-7
0.694, -1.117e-6, -5.234e-7, 5.935e-7
0.693, -1.111e-6, -5.237e-7, 5.874e-7
0.692, -1.113e-6, -5.283e-7, 5.843e-7
0.691, -1.107e-6, -5.243e-7, 5.831e-7
0.690, -1.102e-6, -5.237e-7, 5.782e-7
0.689, -1.105e-6, -5.277e-7, 5.773e-7
0.688, -1.099e-6, -5.255e-7, 5.733e-7
0.687, -1.100e-6, -5.286e-7, 5.718e-7
0.686, -1.095e-6, -5.264e-7, 5.688e-7
0.685, -1.092e-6, -5.240e-7, 5.679e-7
0.684, -1.093e-6, -5.289e-7, 5.639e-7
0.683, -1.088e-6, -5.252e-7, 5.630e-7
0.682, -1.082e-6, -5.222e-7, 5.602e-7
0.681, -1.081e-6, -5.261e-7, 5.547e-7
0.680, -1.084e-6, -5.264e-7, 5.578e-7
0.679, -1.075e-6, -5.222e-7, 5.526e-7
0.678, -1.075e-6, -5.261e-7, 5.489e-7
0.677, -1.076e-6, -5.234e-7, 5.523e-7
0.676, -1.069e-6, -5.225e-7, 5.465e-7
0.675, -1.071e-6, -5.258e-7, 5.453e-7
0.674, -1.072e-6, -5.255e-7, 5.468e-7
0.673, -1.068e-6, -5.243e-7, 5.434e-7
0.672, -1.065e-6, -5.249e-7, 5.401e-7
0.671, -1.068e-6, -5.240e-7, 5.444e-7
0.670, -1.060e-6, -5.243e-7, 5.358e-7
0.669, -1.061e-6, -5.264e-7, 5.349e-7
0.668, -1.061e-6, -5.246e-7, 5.367e-7
0.667, -1.059e-6, -5.243e-7, 5.346e-7
0.666, -1.059e-6, -5.252e-7, 5.337e-7
0.665, -1.059e-6, -5.243e-7, 5.349e-7
0.664, -1.052e-6, -5.234e-7, 5.291e-7
0.663, -1.057e-6, -5.268e-7, 5.303e-7
0.662, -1.053e-6, -5.225e-7, 5.303e-7
0.661, -1.052e-6, -5.231e-7, 5.294e-7
0.660, -1.053e-6, -5.255e-7, 5.279e-7
0.659, -1.050e-6, -5.252e-7, 5.251e-7
0.658, -1.050e-6, -5.246e-7, 5.251e-7
0.657, -1.051e-6, -5.246e-7, 5.260e-7
0.656, -1.049e-6, -5.255e-7, 5.233e-7
0.655, -1.050e-6, -5.261e-7, 5.239e-7
0.654, -1.048e-6, -5.255e-7, 5.224e-7
0.653, -1.045e-6, -5.243e-7, 5.212e-7
0.652, -1.045e-6, -5.249e-7, 5.199e-7
0.651, -1.044e-6, -5.243e-7, 5.199e-7
0.650, -1.044e-6, -5.255e-7, 5.181e-7
0.649, -1.046e-6, -5.264e-7, 5.196e-7
0.648, -1.044e-6, -5.255e-7, 5.181e-7
0.647, -1.042e-6, -5.261e-7, 5.157e-7
0.646, -1.044e-6, -5.274e-7, 5.163e-7
0.645, -1.042e-6, -5.243e-7, 5.175e-7
0.644, -1.042e-6, -5.261e-7, 5.154e-7
0.643, -1.039e-6, -5.268e-7, 5.120e-7
0.642, -1.042e-6, -5.243e-7, 5.172e-7
0.641, -1.034e-6, -5.243e-7, 5.102e-7
0.640, -1.043e-6, -5.274e-7, 5.154e-7
0.639, -1.038e-6, -5.255e-7, 5.123e-7
0.638, -1.039e-6, -5.271e-7, 5.120e-7
0.637, -1.037e-6, -5.264e-7, 5.105e-7
0.636, -1.039e-6, -5.255e-7, 5.132e-7
0.635, -1.038e-6, -5.283e-7, 5.093e-7
0.634, -1.038e-6, -5.292e-7, 5.086e-7
0.633, -1.035e-6, -5.261e-7, 5.093e-7
0.632, -1.036e-6, -5.289e-7, 5.071e-7
0.631, -1.033e-6, -5.264e-7, 5.068e-7
0.630, -1.035e-6, -5.280e-7, 5.074e-7
0.629, -1.033e-6, -5.283e-7, 5.050e-7
0.628, -1.035e-6, -5.280e-7, 5.074e-7
0.627, -1.031e-6, -5.264e-7, 5.044e-7
0.626, -1.035e-6, -5.283e-7, 5.068e-7
0.625, -1.032e-6, -5.261e-7, 5.056e-7
0.624, -1.030e-6, -5.277e-7, 5.022e-7
0.623, -1.032e-6, -5.295e-7, 5.029e-7
0.622, -1.030e-6, -5.268e-7, 5.035e-7
0.621, -1.028e-6, -5.268e-7, 5.010e-7
0.620, -1.033e-6, -5.280e-7, 5.047e-7
0.619, -1.031e-6, -5.280e-7, 5.032e-7
0.618, -1.031e-6, -5.298e-7, 5.013e-7
0.617, -1.031e-6, -5.301e-7, 5.010e-7
0.616, -1.030e-6, -5.280e-7, 5.022e-7
0.615, -1.028e-6, -5.289e-7, 4.995e-7
0.614, -1.031e-6, -5.313e-7, 5.001e-7
0.613, -1.030e-6, -5.286e-7, 5.016e-7
0.612, -1.026e-6, -5.307e-7, 4.952e-7
0.611, -1.031e-6, -5.325e-7, 4.989e-7
0.610, -1.031e-6, -5.298e-7, 5.010e-7
0.609, -1.026e-6, -5.295e-7, 4.961e-7
0.608, -1.032e-6, -5.313e-7, 5.004e-7
0.607, -1.028e-6, -5.292e-7, 4.992e-7
0.606, -1.030e-6, -5.338e-7, 4.958e-7
0.605, -1.028e-6, -5.295e-7, 4.986e-7
0.604, -1.029e-6, -5.301e-7, 4.986e-7
0.603, -1.029e-6, -5.322e-7, 4.964e-7
0.602, -1.031e-6, -5.319e-7, 4.986e-7
0.601, -1.026e-6, -5.304e-7, 4.958e-7
0.600, -1.027e-6, -5.319e-7, 4.946e-7
0.599, -1.030e-6, -5.322e-7, 4.974e-7
0.598, -1.025e-6, -5.304e-7, 4.949e-7
0.597, -1.027e-6, -5.338e-7, 4.928e-7
0.596, -1.030e-6, -5.341e-7, 4.961e-7
0.595, -1.028e-6, -5.335e-7, 4.949e-7
0.594, -1.027e-6, -5.329e-7, 4.946e-7
0.593, -1.029e-6, -5.335e-7, 4.955e-7
0.592, -1.026e-6, -5.325e-7, 4.934e-7
0.591, -1.025e-6, -5.341e-7, 4.910e-7
0.590, -1.027e-6, -5.332e-7, 4.940e-7
0.589, -1.025e-6, -5.332e-7, 4.919e-7
0.588, -1.027e-6, -5.341e-7, 4.934e-7
0.587, -1.025e-6, -5.332e-7, 4.916e-7
0.586, -1.026e-6, -5.350e-7, 4.913e-7
0.585, -1.030e-6, -5.356e-7, 4.946e-7
0.584, -1.027e-6, -5.350e-7, 4.922e-7
0.583, -1.035e-6, -5.362e-7, 4.986e-7
0.582, -1.028e-6, -5.356e-7, 4.928e-7
0.581, -1.027e-6, -5.362e-7, 4.903e-7
0.580, -1.027e-6, -5.374e-7, 4.891e-7
0.579, -1.029e-6, -5.371e-7, 4.919e-7
0.578, -1.026e-6, -5.344e-7, 4.916e-7
0.577, -1.030e-6, -5.402e-7, 4.900e-7
0.576, -1.027e-6, -5.362e-7, 4.910e-7
0.575, -1.024e-6, -5.350e-7, 4.894e-7
0.574, -1.028e-6, -5.374e-7, 4.906e-7
0.573, -1.028e-6, -5.362e-7, 4.922e-7
0.572, -1.027e-6, -5.368e-7, 4.903e-7
0.571, -1.029e-6, -5.396e-7, 4.897e-7
0.570, -1.031e-6, -5.393e-7, 4.919e-7
0.569, -1.028e-6, -5.390e-7, 4.894e-7
0.568, -1.034e-6, -5.426e-7, 4.913e-7
0.567, -1.032e-6, -5.396e-7, 4.925e-7
0.566, -1.028e-6, -5.402e-7, 4.876e-7
0.565, -1.032e-6, -5.414e-7, 4.906e-7
0.564, -1.032e-6, -5.417e-7, 4.903e-7
0.563, -1.031e-6, -5.432e-7, 4.882e-7
0.562, -1.034e-6, -5.423e-7, 4.916e-7
0.561, -1.032e-6, -5.408e-7, 4.910e-7
0.560, -1.033e-6, -5.438e-7, 4.894e-7
0.559, -1.039e-6, -5.451e-7, 4.943e-7
0.558, -1.033e-6, -5.402e-7, 4.928e-7
0.557, -1.034e-6, -5.438e-7, 4.906e-7
0.556, -1.034e-6, -5.420e-7, 4.919e-7
0.555, -1.037e-6, -5.435e-7, 4.931e-7
0.554, -1.038e-6, -5.475e-7, 4.900e-7
0.553, -1.037e-6, -5.435e-7, 4.934e-7
0.552, -1.036e-6, -5.426e-7, 4.931e-7
0.551, -1.039e-6, -5.481e-7, 4.909e-7
0.550, -1.041e-6, -5.460e-7, 4.946e-7
0.549, -1.037e-6, -5.451e-7, 4.922e-7
0.548, -1.040e-6, -5.496e-7, 4.906e-7
0.547, -1.040e-6, -5.484e-7, 4.916e-7
0.546, -1.040e-6, -5.466e-7, 4.937e-7
0.545, -1.043e-6, -5.506e-7, 4.928e-7
0.544, -1.041e-6, -5.481e-7, 4.925e-7
0.543, -1.040e-6, -5.490e-7, 4.906e-7
0.542, -1.046e-6, -5.521e-7, 4.940e-7
0.541, -1.048e-6, -5.518e-7, 4.958e-7
0.540, -1.045e-6, -5.512e-7, 4.937e-7
0.539, -1.045e-6, -5.536e-7, 4.913e-7
0.538, -1.043e-6, -5.509e-7, 4.925e-7
0.537, -1.046e-6, -5.533e-7, 4.931e-7
0.536, -1.050e-6, -5.539e-7, 4.964e-7
0.535, -1.049e-6, -5.539e-7, 4.949e-7
0.534, -1.046e-6, -5.533e-7, 4.931e-7
0.533, -1.052e-6, -5.570e-7, 4.952e-7
0.532, -1.051e-6, -5.557e-7, 4.952e-7
0.531, -1.050e-6, -5.564e-7, 4.937e-7
0.530, -1.052e-6, -5.554e-7, 4.961e-7
0.529, -1.052e-6, -5.560e-7, 4.955e-7
0.528, -1.053e-6, -5.585e-7, 4.949e-7
0.527, -1.058e-6, -5.591e-7, 4.986e-7
0.526, -1.056e-6, -5.591e-7, 4.971e-7
0.525, -1.058e-6, -5.615e-7, 4.964e-7
0.524, -1.059e-6, -5.603e-7, 4.986e-7
0.523, -1.056e-6, -5.591e-7, 4.971e-7
0.522, -1.058e-6, -5.622e-7, 4.955e-7
0.521, -1.061e-6, -5.618e-7, 4.992e-7
0.520, -1.056e-6, -5.615e-7, 4.946e-7
0.519, -1.059e-6, -5.615e-7, 4.974e-7
0.518, -1.063e-6, -5.634e-7, 4.998e-7
0.517, -1.062e-6, -5.628e-7, 4.989e-7
0.516, -1.064e-6, -5.646e-7, 4.995e-7
0.515, -1.063e-6, -5.628e-7, 5.004e-7
0.514, -1.065e-6, -5.649e-7, 4.998e-7
0.513, -1.068e-6, -5.667e-7, 5.010e-7
0.512, -1.067e-6, -5.658e-7, 5.013e-7
0.511, -1.065e-6, -5.667e-7, 4.986e-7
0.510, -1.069e-6, -5.679e-7, 5.013e-7
0.509, -1.067e-6, -5.652e-7, 5.019e-7
0.508, -1.067e-6, -5.692e-7, 4.983e-7
0.507, -1.071e-6, -5.692e-7, 5.019e-7
0.506, -1.072e-6, -5.698e-7, 5.022e-7
0.505, -1.072e-6, -5.713e-7, 5.004e-7
0.504, -1.071e-6, -5.698e-7, 5.010e-7
0.503, -1.069e-6, -5.689e-7, 4.998e-7
0.502, -1.072e-6, -5.716e-7, 5.004e-7
0.501, -1.076e-6, -5.707e-7, 5.050e-7
0.500, -1.073e-6, -5.713e-7, 5.019e-7
0.499, -1.077e-6, -5.734e-7, 5.032e-7
0.498, -1.078e-6, -5.725e-7, 5.050e-7
0.497, -1.078e-6, -5.750e-7, 5.032e-7
0.496, -1.078e-6, -5.762e-7, 5.019e-7
0.495, -1.077e-6, -5.731e-7, 5.041e-7
0.494, -1.078e-6, -5.762e-7, 5.016e-7
0.493, -1.083e-6, -5.774e-7, 5.056e-7
0.492, -1.079e-6, -5.756e-7, 5.035e-7
0.491, -1.081e-6, -5.774e-7, 5.035e-7
0.490, -1.081e-6, -5.789e-7, 5.022e-7
0.489, -1.083e-6, -5.771e-7, 5.059e-7
0.488, -1.082e-6, -5.777e-7, 5.047e-7
0.487, -1.085e-6, -5.814e-7, 5.035e-7
0.486, -1.086e-6, -5.795e-7, 5.062e-7
0.485, -1.085e-6, -5.811e-7, 5.041e-7
0.484, -1.088e-6, -5.820e-7, 5.065e-7
0.483, -1.088e-6, -5.814e-7, 5.062e-7
0.482, -1.089e-6, -5.823e-7, 5.065e-7
0.481, -1.092e-6, -5.853e-7, 5.065e-7
0.480, -1.092e-6, -5.826e-7, 5.099e-7
0.479, -1.090e-6, -5.853e-7, 5.044e-7
0.478, -1.094e-6, -5.847e-7, 5.096e-7
0.477, -1.095e-6, -5.838e-7, 5.114e-7
0.476, -1.095e-6, -5.875e-7, 5.074e-7
0.475, -1.096e-6, -5.863e-7, 5.102e-7
0.474, -1.098e-6, -5.890e-7, 5.093e-7
0.473, -1.098e-6, -5.893e-7, 5.083e-7
0.472, -1.100e-6, -5.893e-7, 5.108e-7
0.471, -1.097e-6, -5.884e-7, 5.083e-7
0.470, -1.098e-6, -5.890e-7, 5.093e-7
0.469, -1.102e-6, -5.908e-7, 5.108e-7
0.468, -1.099e-6, -5.896e-7, 5.099e-7
0.467, -1.103e-6, -5.921e-7, 5.111e-7
0.466, -1.103e-6, -5.927e-7, 5.099e-7
0.465, -1.103e-6, -5.921e-7, 5.105e-7
0.464, -1.105e-6, -5.930e-7, 5.120e-7
0.463, -1.106e-6, -5.924e-7, 5.135e-7
0.462, -1.107e-6, -5.957e-7, 5.111e-7
0.461, -1.107e-6, -5.948e-7, 5.126e-7
0.460, -1.103e-6, -5.921e-7, 5.108e-7
0.459, -1.108e-6, -5.969e-7, 5.108e-7
0.458, -1.109e-6, -5.966e-7, 5.126e-7
0.457, -1.112e-6, -5.966e-7, 5.151e-7
0.456, -1.113e-6, -5.982e-7, 5.148e-7
0.455, -1.115e-6, -5.988e-7, 5.160e-7
0.454, -1.113e-6, -5.982e-7, 5.148e-7
0.453, -1.114e-6, -5.994e-7, 5.144e-7
0.452, -1.116e-6, -5.997e-7, 5.163e-7
0.451, -1.117e-6, -6.003e-7, 5.163e-7
0.450, -1.117e-6, -6.024e-7, 5.141e-7
0.449, -1.119e-6, -6.027e-7, 5.163e-7
0.448, -1.122e-6, -6.052e-7, 5.169e-7
0.447, -1.121e-6, -6.058e-7, 5.151e-7
0.446, -1.123e-6, -6.052e-7, 5.178e-7
0.445, -1.119e-6, -6.040e-7, 5.154e-7
0.444, -1.124e-6, -6.064e-7, 5.172e-7
0.443, -1.125e-6, -6.061e-7, 5.193e-7
0.442, -1.125e-6, -6.073e-7, 5.175e-7
0.441, -1.129e-6, -6.101e-7, 5.193e-7
0.440, -1.128e-6, -6.088e-7, 5.190e-7
0.439, -1.131e-6, -6.116e-7, 5.190e-7
0.438, -1.131e-6, -6.101e-7, 5.209e-7
0.437, -1.132e-6, -6.107e-7, 5.209e-7
0.436, -1.133e-6, -6.134e-7, 5.196e-7
0.435, -1.139e-6, -6.159e-7, 5.236e-7
0.434, -1.135e-6, -6.125e-7, 5.224e-7
0.433, -1.138e-6, -6.168e-7, 5.215e-7
0.432, -1.140e-6, -6.168e-7, 5.236e-7
0.431, -1.140e-6, -6.159e-7, 5.245e-7
0.430, -1.142e-6, -6.195e-7, 5.224e-7
0.429, -1.141e-6, -6.168e-7, 5.242e-7
0.428, -1.144e-6, -6.174e-7, 5.263e-7
0.427, -1.144e-6, -6.214e-7, 5.230e-7
0.426, -1.147e-6, -6.207e-7, 5.260e-7
0.425, -1.147e-6, -6.204e-7, 5.270e-7
0.424, -1.150e-6, -6.250e-7, 5.254e-7
0.423, -1.149e-6, -6.223e-7, 5.267e-7
0.422, -1.151e-6, -6.229e-7, 5.282e-7
0.421, -1.152e-6, -6.262e-7, 5.257e-7
0.420, -1.153e-6, -6.250e-7, 5.276e-7
0.419, -1.155e-6, -6.259e-7, 5.288e-7
0.418, -1.155e-6, -6.275e-7, 5.273e-7
0.417, -1.158e-6, -6.275e-7, 5.306e-7
0.416, -1.162e-6, -6.296e-7, 5.325e-7
0.415, -1.162e-6, -6.320e-7, 5.303e-7
0.414, -1.165e-6, -6.320e-7, 5.328e-7
0.413, -1.164e-6, -6.320e-7, 5.325e-7
0.412, -1.165e-6, -6.326e-7, 5.328e-7
0.411, -1.166e-6, -6.320e-7, 5.340e-7
0.410, -1.170e-6, -6.357e-7, 5.346e-7
0.409, -1.171e-6, -6.360e-7, 5.346e-7
0.408, -1.172e-6, -6.372e-7, 5.349e-7
0.407, -1.173e-6, -6.372e-7, 5.361e-7
0.406, -1.175e-6, -6.384e-7, 5.361e-7
0.405, -1.176e-6, -6.406e-7, 5.352e-7
0.404, -1.179e-6, -6.421e-7, 5.364e-7
0.403, -1.179e-6, -6.412e-7, 5.379e-7
0.402, -1.179e-6, -6.412e-7, 5.382e-7
0.401, -1.184e-6, -6.445e-7, 5.395e-7
0.400, -1.184e-6, -6.427e-7, 5.413e-7
0.399, -1.184e-6, -6.455e-7, 5.389e-7
0.398, -1.185e-6, -6.455e-7, 5.398e-7
0.397, -1.190e-6, -6.470e-7, 5.425e-7
0.396, -1.191e-6, -6.497e-7, 5.413e-7
0.395, -1.195e-6, -6.516e-7, 5.434e-7
0.394, -1.193e-6, -6.503e-7, 5.422e-7
0.393, -1.195e-6, -6.534e-7, 5.419e-7
0.392, -1.196e-6, -6.528e-7, 5.431e-7
0.391, -1.200e-6, -6.525e-7, 5.471e-7
0.390, -1.201e-6, -6.561e-7, 5.453e-7
0.389, -1.200e-6, -6.549e-7, 5.453e-7
0.388, -1.204e-6, -6.558e-7, 5.480e-7
0.387, -1.204e-6, -6.561e-7, 5.474e-7
0.386, -1.206e-6, -6.583e-7, 5.480e-7
0.385, -1.206e-6, -6.577e-7, 5.486e-7
0.384, -1.211e-6, -6.604e-7, 5.501e-7
0.383, -1.208e-6, -6.598e-7, 5.480e-7
0.382, -1.211e-6, -6.607e-7, 5.498e-7
0.381, -1.215e-6, -6.650e-7, 5.495e-7
0.380, -1.215e-6, -6.635e-7, 5.514e-7
0.379, -1.214e-6, -6.619e-7, 5.520e-7
0.378, -1.219e-6, -6.677e-7, 5.511e-7
0.377, -1.222e-6, -6.674e-7, 5.547e-7
0.376, -1.220e-6, -6.680e-7, 5.520e-7
0.375, -1.224e-6, -6.717e-7, 5.520e-7
0.374, -1.225e-6, -6.693e-7, 5.556e-7
0.373, -1.226e-6, -6.705e-7, 5.550e-7
0.372, -1.228e-6, -6.729e-7, 5.547e-7
0.371, -1.228e-6, -6.708e-7, 5.569e-7
0.370, -1.231e-6, -6.754e-7, 5.559e-7
0.369, -1.234e-6, -6.775e-7, 5.566e-7
0.368, -1.235e-6, -6.757e-7, 5.590e-7
0.367, -1.234e-6, -6.766e-7, 5.575e-7
0.366, -1.241e-6, -6.809e-7, 5.599e-7
0.365, -1.239e-6, -6.784e-7, 5.608e-7
0.364, -1.237e-6, -6.778e-7, 5.596e-7
0.363, -1.244e-6, -6.842e-7, 5.596e-7
0.362, -1.244e-6, -6.812e-7, 5.630e-7
0.361, -1.241e-6, -6.818e-7, 5.590e-7
0.360, -1.247e-6, -6.857e-7, 5.614e-7
0.359, -1.248e-6, -6.848e-7, 5.630e-7
0.358, -1.248e-6, -6.864e-7, 5.614e-7
0.357, -1.251e-6, -6.864e-7, 5.645e-7
0.356, -1.254e-6, -6.879e-7, 5.663e-7
0.355, -1.255e-6, -6.906e-7, 5.642e-7
0.354, -1.259e-6, -6.915e-7, 5.678e-7
0.353, -1.255e-6, -6.894e-7, 5.660e-7
0.352, -1.259e-6, -6.937e-7, 5.657e-7
0.351, -1.265e-6, -6.955e-7, 5.694e-7
0.350, -1.262e-6, -6.937e-7, 5.688e-7
0.349, -1.268e-6, -6.983e-7, 5.697e-7
0.348, -1.267e-6, -6.967e-7, 5.706e-7
0.347, -1.269e-6, -6.983e-7, 5.709e-7
0.346, -1.270e-6, -7.001e-7, 5.703e-7
0.345, -1.274e-6, -7.010e-7, 5.733e-7
0.344, -1.272e-6, -6.998e-7, 5.724e-7
0.343, -1.275e-6, -7.004e-7, 5.746e-7
0.342, -1.278e-6, -7.028e-7, 5.752e-7
0.341, -1.277e-6, -7.041e-7, 5.730e-7
0.340, -1.282e-6, -7.053e-7, 5.764e-7
0.339, -1.282e-6, -7.056e-7, 5.767e-7
0.338, -1.282e-6, -7.071e-7, 5.752e-7
0.337, -1.286e-6, -7.083e-7, 5.776e-7
0.336, -1.284e-6, -7.071e-7, 5.767e-7
0.335, -1.288e-6, -7.114e-7, 5.770e-7
0.334, -1.290e-6, -7.111e-7, 5.791e-7
0.333, -1.293e-6, -7.123e-7, 5.807e-7
0.332, -1.294e-6, -7.156e-7, 5.788e-7
0.331, -1.296e-6, -7.153e-7, 5.804e-7
0.330, -1.297e-6, -7.147e-7, 5.819e-7
0.329, -1.302e-6, -7.221e-7, 5.801e-7
0.328, -1.303e-6, -7.181e-7, 5.852e-7
0.327, -1.304e-6, -7.196e-7, 5.846e-7
0.326, -1.307e-6, -7.205e-7, 5.865e-7
0.325, -1.310e-6, -7.224e-7, 5.877e-7
0.324, -1.311e-6, -7.236e-7, 5.874e-7
0.323, -1.313e-6, -7.257e-7, 5.874e-7
0.322, -1.317e-6, -7.254e-7, 5.913e-7
0.321, -1.315e-6, -7.266e-7, 5.886e-7
0.320, -1.319e-6, -7.288e-7, 5.898e-7
0.319, -1.319e-6, -7.275e-7, 5.910e-7
0.318, -1.322e-6, -7.312e-7, 5.904e-7
0.317, -1.326e-6, -7.333e-7, 5.926e-7
0.316, -1.326e-6, -7.324e-7, 5.935e-7
0.315, -1.329e-6, -7.358e-7, 5.935e-7
0.314, -1.332e-6, -7.367e-7, 5.956e-7
0.313, -1.332e-6, -7.364e-7, 5.959e-7
0.312, -1.336e-6, -7.394e-7, 5.962e-7
0.311, -1.341e-6, -7.410e-7, 6.002e-7
0.310, -1.338e-6, -7.394e-7, 5.984e-7
0.309, -1.341e-6, -7.437e-7, 5.968e-7
0.308, -1.345e-6, -7.449e-7, 6.002e-7
0.307, -1.344e-6, -7.434e-7, 6.005e-7
0.306, -1.349e-6, -7.477e-7, 6.017e-7
0.305, -1.354e-6, -7.486e-7, 6.054e-7
0.304, -1.351e-6, -7.477e-7, 6.032e-7
0.303, -1.355e-6, -7.523e-7, 6.023e-7
0.302, -1.356e-6, -7.514e-7, 6.051e-7
0.301, -1.359e-6, -7.520e-7, 6.072e-7
0.300, -1.364e-6, -7.568e-7, 6.069e-7
0.299, -1.364e-6, -7.547e-7, 6.093e-7
0.298, -1.362e-6, -7.547e-7, 6.075e-7
0.297, -1.365e-6, -7.593e-7, 6.060e-7
0.296, -1.371e-6, -7.608e-7, 6.103e-7
0.295, -1.370e-6, -7.593e-7, 6.109e-7
0.294, -1.374e-6, -7.633e-7, 6.106e-7
0.293, -1.377e-6, -7.626e-7, 6.139e-7
0.292, -1.377e-6, -7.639e-7, 6.133e-7
0.291, -1.381e-6, -7.675e-7, 6.136e-7
0.290, -1.386e-6, -7.678e-7, 6.179e-7
0.289, -1.385e-6, -7.684e-7, 6.164e-7
0.288, -1.390e-6, -7.727e-7, 6.176e-7
0.287, -1.388e-6, -7.712e-7, 6.164e-7
0.286, -1.393e-6, -7.736e-7, 6.191e-7
0.285, -1.396e-6, -7.736e-7, 6.225e-7
0.284, -1.397e-6, -7.761e-7, 6.206e-7
0.283, -1.399e-6, -7.791e-7, 6.203e-7
0.282, -1.406e-6, -7.813e-7, 6.243e-7
0.281, -1.406e-6, -7.810e-7, 6.255e-7
0.280, -1.405e-6, -7.816e-7, 6.237e-7
0.279, -1.412e-6, -7.837e-7, 6.280e-7
0.278, -1.411e-6, -7.840e-7, 6.274e-7
0.277, -1.416e-6, -7.877e-7, 6.286e-7
0.276, -1.417e-6, -7.871e-7, 6.301e-7
0.275, -1.420e-6, -7.892e-7, 6.304e-7
0.274, -1.424e-6, -7.916e-7, 6.328e-7
0.273, -1.425e-6, -7.910e-7, 6.341e-7
0.272, -1.428e-6, -7.929e-7, 6.350e-7
0.271, -1.430e-6, -7.965e-7, 6.338e-7
0.270, -1.431e-6, -7.956e-7, 6.359e-7
0.269, -1.434e-6, -7.983e-7, 6.356e-7
0.268, -1.439e-6, -8.005e-7, 6.380e-7
0.267, -1.441e-6, -8.002e-7, 6.408e-7
0.266, -1.444e-6, -8.041e-7, 6.399e-7
0.265, -1.447e-6, -8.057e-7, 6.414e-7
0.264, -1.448e-6, -8.038e-7, 6.438e-7
0.263, -1.449e-6, -8.081e-7, 6.411e-7
0.262, -1.453e-6, -8.087e-7, 6.438e-7
0.261, -1.456e-6, -8.084e-7, 6.478e-7
0.260, -1.462e-6, -8.118e-7, 6.502e-7
0.259, -1.460e-6, -8.130e-7, 6.466e-7
0.258, -1.463e-6, -8.145e-7, 6.487e-7
0.257, -1.463e-6, -8.163e-7, 6.469e-7
0.256, -1.467e-6, -8.163e-7, 6.505e-7
0.255, -1.470e-6, -8.173e-7, 6.527e-7
0.254, -1.470e-6, -8.206e-7, 6.490e-7
0.253, -1.474e-6, -8.209e-7, 6.533e-7
0.252, -1.477e-6, -8.231e-7, 6.536e-7
0.251, -1.481e-6, -8.258e-7, 6.548e-7
0.250, -1.482e-6, -8.252e-7, 6.573e-7
0.249, -1.482e-6, -8.267e-7, 6.554e-7
0.248, -1.490e-6, -8.325e-7, 6.576e-7
0.247, -1.494e-6, -8.310e-7, 6.628e-7
0.246, -1.494e-6, -8.334e-7, 6.603e-7
0.245, -1.497e-6, -8.362e-7, 6.609e-7
0.244, -1.502e-6, -8.340e-7, 6.679e-7
0.243, -1.502e-6, -8.377e-7, 6.643e-7
0.242, -1.504e-6, -8.392e-7, 6.649e-7
0.241, -1.508e-6, -8.405e-7, 6.676e-7
0.240, -1.508e-6, -8.414e-7, 6.667e-7
0.239, -1.514e-6, -8.456e-7, 6.679e-7
0.238, -1.514e-6, -8.435e-7, 6.710e-7
0.237, -1.516e-6, -8.472e-7, 6.689e-7
0.236, -1.524e-6, -8.511e-7, 6.728e-7
0.235, -1.525e-6, -8.499e-7, 6.753e-7
0.234, -1.525e-6, -8.521e-7, 6.731e-7
0.233, -1.528e-6, -8.533e-7, 6.750e-7
0.232, -1.531e-6, -8.536e-7, 6.771e-7
0.231, -1.531e-6, -8.551e-7, 6.759e-7
0.230, -1.537e-6, -8.579e-7, 6.792e-7
0.229, -1.538e-6, -8.594e-7, 6.786e-7
0.228, -1.540e-6, -8.609e-7, 6.789e-7
0.227, -1.548e-6, -8.655e-7, 6.826e-7
0.226, -1.546e-6, -8.643e-7, 6.817e-7
0.225, -1.549e-6, -8.670e-7, 6.817e-7
0.224, -1.555e-6, -8.685e-7, 6.862e-7
0.223, -1.555e-6, -8.694e-7, 6.856e-7
0.222, -1.558e-6, -8.722e-7, 6.856e-7
0.221, -1.564e-6, -8.728e-7, 6.908e-7
0.220, -1.568e-6, -8.768e-7, 6.914e-7
0.219, -1.567e-6, -8.759e-7, 6.908e-7
0.218, -1.571e-6, -8.780e-7, 6.927e-7
0.217, -1.574e-6, -8.801e-7, 6.942e-7
0.216, -1.578e-6, -8.829e-7, 6.948e-7
0.215, -1.577e-6, -8.807e-7, 6.963e-7
0.214, -1.581e-6, -8.862e-7, 6.945e-7
0.213, -1.585e-6, -8.875e-7, 6.978e-7
0.212, -1.589e-6, -8.887e-7, 7.000e-7
0.211, -1.589e-6, -8.893e-7, 6.994e-7
0.210, -1.594e-6, -8.926e-7, 7.015e-7
0.209, -1.595e-6, -8.936e-7, 7.012e-7
0.208, -1.600e-6, -8.984e-7, 7.018e-7
0.207, -1.604e-6, -8.984e-7, 7.055e-7
0.206, -1.606e-6, -9.000e-7, 7.064e-7
0.205, -1.608e-6, -9.018e-7, 7.058e-7
0.204, -1.614e-6, -9.027e-7, 7.113e-7
0.203, -1.613e-6, -9.039e-7, 7.094e-7
0.202, -1.617e-6, -9.064e-7, 7.104e-7
0.201, -1.621e-6, -9.079e-7, 7.128e-7
0.200, -1.623e-6, -9.088e-7, 7.137e-7
0.199, -1.630e-6, -9.143e-7, 7.162e-7
0.198, -1.630e-6, -9.131e-7, 7.174e-7
0.197, -1.633e-6, -9.161e-7, 7.171e-7
0.196, -1.638e-6, -9.198e-7, 7.186e-7
0.195, -1.641e-6, -9.207e-7, 7.207e-7
0.194, -1.641e-6, -9.213e-7, 7.198e-7
0.193, -1.648e-6, -9.256e-7, 7.229e-7
0.192, -1.650e-6, -9.247e-7, 7.253e-7
0.191, -1.653e-6, -9.280e-7, 7.253e-7
0.190, -1.658e-6, -9.302e-7, 7.277e-7
0.189, -1.659e-6, -9.302e-7, 7.290e-7
0.188, -1.666e-6, -9.360e-7, 7.299e-7
0.187, -1.668e-6, -9.372e-7, 7.308e-7
0.186, -1.670e-6, -9.372e-7, 7.329e-7
0.185, -1.676e-6, -9.433e-7, 7.326e-7
0.184, -1.677e-6, -9.412e-7, 7.363e-7
0.183, -1.681e-6, -9.427e-7, 7.381e-7
0.182, -1.686e-6, -9.485e-7, 7.372e-7
0.181, -1.691e-6, -9.491e-7, 7.415e-7
0.180, -1.691e-6, -9.497e-7, 7.412e-7
0.179, -1.696e-6, -9.552e-7, 7.412e-7
0.178, -1.702e-6, -9.561e-7, 7.464e-7
0.177, -1.702e-6, -9.564e-7, 7.458e-7
0.176, -1.708e-6, -9.622e-7, 7.458e-7
0.175, -1.713e-6, -9.622e-7, 7.506e-7
0.174, -1.714e-6, -9.631e-7, 7.512e-7
0.173, -1.718e-6, -9.671e-7, 7.506e-7
0.172, -1.726e-6, -9.705e-7, 7.555e-7
0.171, -1.724e-6, -9.692e-7, 7.549e-7
0.170, -1.732e-6, -9.744e-7, 7.577e-7
0.169, -1.736e-6, -9.756e-7, 7.607e-7
0.168, -1.740e-6, -9.778e-7, 7.619e-7
0.167, -1.745e-6, -9.827e-7, 7.619e-7
0.166, -1.746e-6, -9.817e-7, 7.644e-7
0.165, -1.748e-6, -9.830e-7, 7.647e-7
0.164, -1.754e-6, -9.891e-7, 7.647e-7
0.163, -1.759e-6, -9.900e-7, 7.689e-7
0.162, -1.764e-6, -9.924e-7, 7.714e-7
0.161, -1.770e-6, -9.976e-7, 7.726e-7
0.160, -1.770e-6, -9.958e-7, 7.744e-7
0.159, -1.776e-6, -1.000e-6, 7.763e-7
0.158, -1.779e-6, -1.002e-6, 7.763e-7
0.157, -1.783e-6, -1.004e-6, 7.790e-7
0.156, -1.789e-6, -1.008e-6, 7.805e-7
0.155, -1.793e-6, -1.010e-6, 7.833e-7
0.154, -1.798e-6, -1.014e-6, 7.842e-7
0.153, -1.804e-6, -1.017e-6, 7.869e-7
0.152, -1.807e-6, -1.020e-6, 7.873e-7
0.151, -1.812e-6, -1.022e-6, 7.897e-7
0.150, -1.816e-6, -1.025e-6, 7.909e-7
0.149, -1.822e-6, -1.027e-6, 7.955e-7
0.148, -1.822e-6, -1.028e-6, 7.943e-7
0.147, -1.831e-6, -1.032e-6, 7.985e-7
0.146, -1.835e-6, -1.035e-6, 7.995e-7
0.145, -1.837e-6, -1.037e-6, 7.998e-7
0.144, -1.842e-6, -1.039e-6, 8.025e-7
0.143, -1.848e-6, -1.042e-6, 8.056e-7
0.142, -1.849e-6, -1.045e-6, 8.034e-7
0.141, -1.857e-6, -1.049e-6, 8.083e-7
0.140, -1.859e-6, -1.049e-6, 8.095e-7
0.139, -1.864e-6, -1.053e-6, 8.104e-7
0.138, -1.870e-6, -1.055e-6, 8.147e-7
0.137, -1.875e-6, -1.057e-6, 8.172e-7
0.136, -1.878e-6, -1.062e-6, 8.153e-7
0.135, -1.884e-6, -1.064e-6, 8.199e-7
0.134, -1.888e-6, -1.065e-6, 8.230e-7
0.133, -1.890e-6, -1.070e-6, 8.205e-7
0.132, -1.899e-6, -1.072e-6, 8.266e-7
0.131, -1.901e-6, -1.074e-6, 8.272e-7
0.130, -1.909e-6, -1.080e-6, 8.297e-7
0.129, -1.911e-6, -1.079e-6, 8.321e-7
0.128, -1.915e-6, -1.082e-6, 8.327e-7
0.127, -1.922e-6, -1.089e-6, 8.336e-7
0.126, -1.927e-6, -1.087e-6, 8.397e-7
0.125, -1.928e-6, -1.091e-6, 8.370e-7
0.124, -1.938e-6, -1.097e-6, 8.413e-7
0.123, -1.942e-6, -1.098e-6, 8.440e-7
0.122, -1.944e-6, -1.100e-6, 8.434e-7
0.121, -1.953e-6, -1.104e-6, 8.483e-7
0.120, -1.955e-6, -1.105e-6, 8.504e-7
0.119, -1.959e-6, -1.109e-6, 8.504e-7
0.118, -1.968e-6, -1.114e-6, 8.541e-7
0.117, -1.970e-6, -1.113e-6, 8.571e-7
0.116, -1.974e-6, -1.117e-6, 8.568e-7
0.115, -1.981e-6, -1.122e-6, 8.593e-7
0.114, -1.983e-6, -1.121e-6, 8.623e-7
0.113, -1.988e-6, -1.127e-6, 8.614e-7
0.112, -1.995e-6, -1.131e-6, 8.642e-7
0.111, -2.000e-6, -1.131e-6, 8.687e-7
0.110, -2.004e-6, -1.136e-6, 8.684e-7
0.109, -2.009e-6, -1.138e-6, 8.712e-7
0.108, -2.015e-6, -1.141e-6, 8.742e-7
0.107, -2.017e-6, -1.143e-6, 8.745e-7
0.106, -2.027e-6, -1.149e-6, 8.785e-7
0.105, -2.029e-6, -1.149e-6, 8.803e-7
0.104, -2.036e-6, -1.155e-6, 8.812e-7
0.103, -2.044e-6, -1.158e-6, 8.864e-7
0.102, -2.046e-6, -1.158e-6, 8.880e-7
0.101, -2.052e-6, -1.164e-6, 8.886e-7
0.100, -2.060e-6, -1.167e-6, 8.922e-7
0.099, -2.062e-6, -1.167e-6, 8.944e-7
0.098, -2.068e-6, -1.171e-6, 8.971e-7
0.097, -2.075e-6, -1.175e-6, 9.002e-7
0.096, -2.079e-6, -1.179e-6, 9.005e-7
0.095, -2.084e-6, -1.181e-6, 9.032e-7
0.094, -2.088e-6, -1.183e-6, 9.050e-7
0.093, -2.092e-6, -1.186e-6, 9.063e-7
0.092, -2.100e-6, -1.190e-6, 9.102e-7
0.091, -2.105e-6, -1.193e-6, 9.118e-7
0.090, -2.109e-6, -1.196e-6, 9.127e-7
0.089, -2.116e-6, -1.200e-6, 9.157e-7
0.088, -2.120e-6, -1.201e-6, 9.191e-7
0.087, -2.125e-6, -1.205e-6, 9.206e-7
0.086, -2.130e-6, -1.208e-6, 9.218e-7
0.085, -2.135e-6, -1.210e-6, 9.255e-7
0.084, -2.141e-6, -1.213e-6, 9.279e-7
0.083, -2.149e-6, -1.218e-6, 9.313e-7
0.082, -2.151e-6, -1.219e-6, 9.328e-7
0.081, -2.159e-6, -1.225e-6, 9.334e-7
0.080, -2.165e-6, -1.227e-6, 9.377e-7
0.079, -2.168e-6, -1.228e-6, 9.401e-7
0.078, -2.175e-6, -1.234e-6, 9.417e-7
0.077, -2.183e-6, -1.237e-6, 9.462e-7
0.076, -2.187e-6, -1.238e-6, 9.484e-7
0.075, -2.195e-6, -1.244e-6, 9.511e-7
0.074, -2.200e-6, -1.245e-6, 9.545e-7
0.073, -2.203e-6, -1.249e-6, 9.542e-7
0.072, -2.211e-6, -1.251e-6, 9.603e-7
0.071, -2.217e-6, -1.255e-6, 9.624e-7
0.070, -2.223e-6, -1.260e-6, 9.627e-7
0.069, -2.227e-6, -1.262e-6, 9.655e-7
0.068, -2.236e-6, -1.265e-6, 9.710e-7
0.067, -2.237e-6, -1.268e-6, 9.685e-7
0.066, -2.245e-6, -1.271e-6, 9.737e-7
0.065, -2.250e-6, -1.273e-6, 9.771e-7
0.064, -2.256e-6, -1.278e-6, 9.774e-7
0.063, -2.263e-6, -1.280e-6, 9.835e-7
0.062, -2.265e-6, -1.280e-6, 9.850e-7
0.061, -2.273e-6, -1.286e-6, 9.865e-7
0.060, -2.281e-6, -1.289e-6, 9.920e-7
0.059, -2.283e-6, -1.290e-6, 9.932e-7
0.058, -2.288e-6, -1.297e-6, 9.917e-7
0.057, -2.297e-6, -1.299e-6, 9.984e-7
0.056, -2.301e-6, -1.300e-6, 1.001e-6
0.055, -2.306e-6, -1.304e-6, 1.002e-6
0.054, -2.316e-6, -1.308e-6, 1.008e-6
0.053, -2.318e-6, -1.309e-6, 1.009e-6
0.052, -2.323e-6, -1.314e-6, 1.010e-6
0.051, -2.331e-6, -1.317e-6, 1.014e-6
0.050, -2.334e-6, -1.318e-6, 1.017e-6
0.049, -2.340e-6, -1.323e-6, 1.017e-6
0.048, -2.350e-6, -1.326e-6, 1.024e-6
0.047, -2.353e-6, -1.327e-6, 1.026e-6
0.046, -2.361e-6, -1.332e-6, 1.029e-6
0.045, -2.368e-6, -1.336e-6, 1.031e-6
0.044, -2.370e-6, -1.337e-6, 1.034e-6
0.043, -2.379e-6, -1.342e-6, 1.037e-6
0.042, -2.384e-6, -1.343e-6, 1.040e-6
0.041, -2.385e-6, -1.344e-6, 1.040e-6
0.040, -2.395e-6, -1.351e-6, 1.044e-6
0.039, -2.400e-6, -1.351e-6, 1.048e-6
0.038, -2.404e-6, -1.354e-6, 1.050e-6
0.037, -2.409e-6, -1.358e-6, 1.051e-6
0.036, -2.416e-6, -1.360e-6, 1.056e-6
0.035, -2.423e-6, -1.362e-6, 1.060e-6
0.034, -2.427e-6, -1.365e-6, 1.062e-6
0.033, -2.433e-6, -1.369e-6, 1.064e-6
0.032, -2.437e-6, -1.369e-6, 1.068e-6
0.031, -2.443e-6, -1.373e-6, 1.071e-6
0.030, -2.448e-6, -1.377e-6, 1.071e-6
0.029, -2.456e-6, -1.380e-6, 1.076e-6
0.028, -2.461e-6, -1.381e-6, 1.080e-6
0.027, -2.464e-6, -1.383e-6, 1.081e-6
0.026, -2.469e-6, -1.388e-6, 1.081e-6
0.025, -2.477e-6, -1.388e-6, 1.089e-6
0.024, -2.481e-6, -1.392e-6, 1.089e-6
0.023, -2.487e-6, -1.395e-6, 1.091e-6
0.022, -2.491e-6, -1.395e-6, 1.096e-6
0.021, -2.497e-6, -1.400e-6, 1.097e-6
0.020, -2.503e-6, -1.403e-6, 1.101e-6
0.019, -2.507e-6, -1.403e-6, 1.104e-6
0.018, -2.512e-6, -1.406e-6, 1.106e-6
0.017, -2.518e-6, -1.409e-6, 1.109e-6
0.016, -2.520e-6, -1.409e-6, 1.111e-6
0.015, -2.525e-6, -1.414e-6, 1.110e-6
0.014, -2.533e-6, -1.416e-6, 1.117e-6
0.013, -2.535e-6, -1.416e-6, 1.118e-6
0.012, -2.541e-6, -1.421e-6, 1.120e-6
0.011, -2.547e-6, -1.423e-6, 1.124e-6
0.010, -2.548e-6, -1.421e-6, 1.127e-6
0.009, -2.550e-6, -1.423e-6, 1.126e-6
0.008, -2.558e-6, -1.426e-6, 1.132e-6
0.007, -2.561e-6, -1.429e-6, 1.133e-6
0.006, -2.566e-6, -1.432e-6, 1.135e-6
0.005, -2.572e-6, -1.432e-6, 1.140e-6
0.004, -2.576e-6, -1.434e-6, 1.142e-6
0.003, -2.580e-6, -1.438e-6, 1.142e-6
0.002, -2.587e-6, -1.439e-6, 1.148e-6
0.001, -2.588e-6, -1.439e-6, 1.148e-6
0.000, -2.594e-6, -1.442e-6, 1.151e-6
-0.001, -2.597e-6, -1.443e-6, 1.154e-6
-0.002, -2.599e-6, -1.445e-6, 1.154e-6
-0.003, -2.606e-6, -1.448e-6, 1.159e-6
-0.004, -2.611e-6, -1.448e-6, 1.163e-6
-0.005, -2.610e-6, -1.448e-6, 1.162e-6
-0.006, -2.617e-6, -1.453e-6, 1.164e-6
-0.007, -2.620e-6, -1.450e-6, 1.170e-6
-0.008, -2.623e-6, -1.454e-6, 1.169e-6
-0.009, -2.627e-6, -1.458e-6, 1.170e-6
-0.010, -2.630e-6, -1.455e-6, 1.175e-6
-0.011, -2.631e-6, -1.458e-6, 1.173e-6
-0.012, -2.637e-6, -1.460e-6, 1.178e-6
-0.013, -2.637e-6, -1.457e-6, 1.180e-6
-0.014, -2.642e-6, -1.459e-6, 1.183e-6
-0.015, -2.650e-6, -1.464e-6, 1.186e-6
-0.016, -2.651e-6, -1.462e-6, 1.188e-6
-0.017, -2.654e-6, -1.465e-6, 1.190e-6
-0.018, -2.660e-6, -1.468e-6, 1.192e-6
-0.019, -2.659e-6, -1.465e-6, 1.194e-6
-0.020, -2.662e-6, -1.468e-6, 1.194e-6
-0.021, -2.666e-6, -1.469e-6, 1.197e-6
-0.022, -2.668e-6, -1.468e-6, 1.200e-6
-0.023, -2.672e-6, -1.471e-6, 1.202e-6
-0.024, -2.674e-6, -1.471e-6, 1.203e-6
-0.025, -2.672e-6, -1.469e-6, 1.203e-6
-0.026, -2.677e-6, -1.471e-6, 1.206e-6
-0.027, -2.683e-6, -1.474e-6, 1.209e-6
-0.028, -2.684e-6, -1.473e-6, 1.211e-6
-0.029, -2.685e-6, -1.472e-6, 1.212e-6
-0.030, -2.688e-6, -1.474e-6, 1.214e-6
-0.031, -2.691e-6, -1.475e-6, 1.215e-6
-0.032, -2.692e-6, -1.475e-6, 1.217e-6
-0.033, -2.694e-6, -1.475e-6, 1.219e-6
-0.034, -2.696e-6, -1.478e-6, 1.219e-6
-0.035, -2.696e-6, -1.473e-6, 1.223e-6
-0.036, -2.697e-6, -1.475e-6, 1.222e-6
-0.037, -2.699e-6, -1.475e-6, 1.223e-6
-0.038, -2.702e-6, -1.475e-6, 1.227e-6
-0.039, -2.705e-6, -1.475e-6, 1.229e-6
-0.040, -2.708e-6, -1.477e-6, 1.231e-6
-0.041, -2.709e-6, -1.476e-6, 1.233e-6
-0.042, -2.708e-6, -1.476e-6, 1.232e-6
-0.043, -2.715e-6, -1.481e-6, 1.235e-6
-0.044, -2.713e-6, -1.477e-6, 1.235e-6
-0.045, -2.716e-6, -1.477e-6, 1.239e-6
-0.046, -2.715e-6, -1.478e-6, 1.237e-6
-0.047, -2.713e-6, -1.475e-6, 1.239e-6
-0.048, -2.716e-6, -1.475e-6, 1.240e-6
-0.049, -2.717e-6, -1.477e-6, 1.240e-6
-0.050, -2.718e-6, -1.475e-6, 1.243e-6
-0.051, -2.717e-6, -1.473e-6, 1.244e-6
-0.052, -2.723e-6, -1.477e-6, 1.245e-6
-0.053, -2.723e-6, -1.476e-6, 1.247e-6
-0.054, -2.725e-6, -1.476e-6, 1.248e-6
-0.055, -2.724e-6, -1.474e-6, 1.250e-6
-0.056, -2.728e-6, -1.475e-6, 1.252e-6
-0.057, -2.724e-6, -1.474e-6, 1.250e-6
-0.058, -2.725e-6, -1.474e-6, 1.251e-6
-0.059, -2.725e-6, -1.472e-6, 1.253e-6
-0.060, -2.725e-6, -1.472e-6, 1.253e-6
-0.061, -2.728e-6, -1.473e-6, 1.255e-6
-0.062, -2.729e-6, -1.472e-6, 1.256e-6
-0.063, -2.731e-6, -1.473e-6, 1.258e-6
-0.064, -2.731e-6, -1.471e-6, 1.260e-6
-0.065, -2.728e-6, -1.469e-6, 1.260e-6
-0.066, -2.730e-6, -1.470e-6, 1.260e-6
-0.067, -2.731e-6, -1.467e-6, 1.264e-6
-0.068, -2.729e-6, -1.466e-6, 1.263e-6
-0.069, -2.730e-6, -1.469e-6, 1.261e-6
-0.070, -2.730e-6, -1.465e-6, 1.264e-6
-0.071, -2.727e-6, -1.463e-6, 1.265e-6
-0.072, -2.729e-6, -1.466e-6, 1.263e-6
-0.073, -2.730e-6, -1.463e-6, 1.267e-6
-0.074, -2.726e-6, -1.460e-6, 1.266e-6
-0.075, -2.730e-6, -1.464e-6, 1.266e-6
-0.076, -2.728e-6, -1.460e-6, 1.269e-6
-0.077, -2.722e-6, -1.457e-6, 1.265e-6
-0.078, -2.725e-6, -1.459e-6, 1.266e-6
-0.079, -2.727e-6, -1.456e-6, 1.271e-6
-0.080, -2.724e-6, -1.454e-6, 1.269e-6
-0.081, -2.725e-6, -1.455e-6, 1.270e-6
-0.082, -2.724e-6, -1.453e-6, 1.271e-6
-0.083, -2.726e-6, -1.454e-6, 1.272e-6
-0.084, -2.725e-6, -1.454e-6, 1.271e-6
-0.085, -2.723e-6, -1.449e-6, 1.273e-6
-0.086, -2.718e-6, -1.447e-6, 1.272e-6
-0.087, -2.720e-6, -1.449e-6, 1.272e-6
-0.088, -2.722e-6, -1.447e-6, 1.276e-6
-0.089, -2.718e-6, -1.447e-6, 1.271e-6
-0.090, -2.719e-6, -1.446e-6, 1.273e-6
-0.091, -2.715e-6, -1.443e-6, 1.272e-6
-0.092, -2.713e-6, -1.441e-6, 1.272e-6
-0.093, -2.713e-6, -1.439e-6, 1.274e-6
-0.094, -2.713e-6, -1.437e-6, 1.276e-6
-0.095, -2.709e-6, -1.438e-6, 1.271e-6
-0.096, -2.709e-6, -1.436e-6, 1.274e-6
-0.097, -2.706e-6, -1.435e-6, 1.272e-6
-0.098, -2.705e-6, -1.433e-6, 1.272e-6
-0.099, -2.706e-6, -1.432e-6, 1.274e-6
-0.100, -2.702e-6, -1.431e-6, 1.272e-6
-0.101, -2.705e-6, -1.431e-6, 1.274e-6
-0.102, -2.703e-6, -1.428e-6, 1.275e-6
-0.103, -2.696e-6, -1.424e-6, 1.272e-6
-0.104, -2.698e-6, -1.424e-6, 1.273e-6
-0.105, -2.694e-6, -1.422e-6, 1.272e-6
-0.106, -2.690e-6, -1.420e-6, 1.270e-6
-0.107, -2.693e-6, -1.421e-6, 1.272e-6
-0.108, -2.687e-6, -1.415e-6, 1.272e-6
-0.109, -2.686e-6, -1.418e-6, 1.268e-6
-0.110, -2.687e-6, -1.413e-6, 1.273e-6
-0.111, -2.683e-6, -1.411e-6, 1.272e-6
-0.112, -2.683e-6, -1.413e-6, 1.270e-6
-0.113, -2.683e-6, -1.410e-6, 1.272e-6
-0.114, -2.675e-6, -1.405e-6, 1.270e-6
-0.115, -2.674e-6, -1.407e-6, 1.268e-6
-0.116, -2.674e-6, -1.405e-6, 1.269e-6
-0.117, -2.668e-6, -1.401e-6, 1.267e-6
-0.118, -2.667e-6, -1.402e-6, 1.265e-6
-0.119, -2.668e-6, -1.399e-6, 1.269e-6
-0.120, -2.663e-6, -1.397e-6, 1.266e-6
-0.121, -2.663e-6, -1.397e-6, 1.266e-6
-0.122, -2.661e-6, -1.394e-6, 1.267e-6
-0.123, -2.655e-6, -1.391e-6, 1.264e-6
-0.124, -2.653e-6, -1.390e-6, 1.262e-6
-0.125, -2.650e-6, -1.386e-6, 1.264e-6
-0.126, -2.649e-6, -1.388e-6, 1.261e-6
-0.127, -2.651e-6, -1.388e-6, 1.262e-6
-0.128, -2.644e-6, -1.382e-6, 1.262e-6
-0.129, -2.638e-6, -1.379e-6, 1.259e-6
-0.130, -2.639e-6, -1.380e-6, 1.259e-6
-0.131, -2.637e-6, -1.376e-6, 1.261e-6
-0.132, -2.633e-6, -1.376e-6, 1.257e-6
-0.133, -2.630e-6, -1.374e-6, 1.257e-6
-0.134, -2.626e-6, -1.369e-6, 1.257e-6
-0.135, -2.626e-6, -1.371e-6, 1.254e-6
-0.136, -2.624e-6, -1.370e-6, 1.254e-6
-0.137, -2.620e-6, -1.365e-6, 1.255e-6
-0.138, -2.612e-6, -1.363e-6, 1.249e-6
-0.139, -2.615e-6, -1.363e-6, 1.252e-6
-0.140, -2.608e-6, -1.358e-6, 1.250e-6
-0.141, -2.608e-6, -1.360e-6, 1.248e-6
-0.142, -2.605e-6, -1.357e-6, 1.247e-6
-0.143, -2.602e-6, -1.354e-6, 1.247e-6
-0.144, -2.599e-6, -1.353e-6, 1.246e-6
-0.145, -2.599e-6, -1.353e-6, 1.246e-6
-0.146, -2.590e-6, -1.347e-6, 1.243e-6
-0.147, -2.590e-6, -1.348e-6, 1.242e-6
-0.148, -2.589e-6, -1.346e-6, 1.243e-6
-0.149, -2.584e-6, -1.344e-6, 1.240e-6
-0.150, -2.579e-6, -1.341e-6, 1.239e-6
-0.151, -2.579e-6, -1.340e-6, 1.239e-6
-0.152, -2.576e-6, -1.339e-6, 1.236e-6
-0.153, -2.575e-6, -1.339e-6, 1.236e-6
-0.154, -2.573e-6, -1.337e-6, 1.236e-6
-0.155, -2.565e-6, -1.333e-6, 1.232e-6
-0.156, -2.564e-6, -1.331e-6, 1.233e-6
-0.157, -2.562e-6, -1.329e-6, 1.232e-6
-0.158, -2.558e-6, -1.326e-6, 1.232e-6
-0.159, -2.552e-6, -1.325e-6, 1.228e-6
-0.160, -2.552e-6, -1.322e-6, 1.230e-6
-0.161, -2.549e-6, -1.325e-6, 1.224e-6
-0.162, -2.547e-6, -1.322e-6, 1.225e-6
-0.163, -2.543e-6, -1.320e-6, 1.223e-6
-0.164, -2.544e-6, -1.322e-6, 1.221e-6
-0.165, -2.540e-6, -1.316e-6, 1.224e-6
-0.166, -2.537e-6, -1.315e-6, 1.222e-6
-0.167, -2.528e-6, -1.309e-6, 1.218e-6
-0.168, -2.531e-6, -1.313e-6, 1.218e-6
-0.169, -2.523e-6, -1.306e-6, 1.217e-6
-0.170, -2.522e-6, -1.309e-6, 1.214e-6
-0.171, -2.518e-6, -1.305e-6, 1.213e-6
-0.172, -2.514e-6, -1.303e-6, 1.211e-6
-0.173, -2.514e-6, -1.303e-6, 1.211e-6
-0.174, -2.514e-6, -1.301e-6, 1.213e-6
-0.175, -2.508e-6, -1.301e-6, 1.207e-6
-0.176, -2.505e-6, -1.299e-6, 1.206e-6
-0.177, -2.503e-6, -1.296e-6, 1.207e-6
-0.178, -2.501e-6, -1.296e-6, 1.206e-6
-0.179, -2.504e-6, -1.299e-6, 1.205e-6
-0.180, -2.493e-6, -1.290e-6, 1.203e-6
-0.181, -2.489e-6, -1.290e-6, 1.199e-6
-0.182, -2.489e-6, -1.289e-6, 1.200e-6
-0.183, -2.488e-6, -1.287e-6, 1.201e-6
-0.184, -2.489e-6, -1.291e-6, 1.198e-6
-0.185, -2.484e-6, -1.286e-6, 1.198e-6
-0.186, -2.478e-6, -1.284e-6, 1.194e-6
-0.187, -2.482e-6, -1.291e-6, 1.192e-6
-0.188, -2.476e-6, -1.282e-6, 1.194e-6
-0.189, -2.468e-6, -1.277e-6, 1.191e-6
-0.190, -2.468e-6, -1.280e-6, 1.189e-6
-0.191, -2.475e-6, -1.283e-6, 1.193e-6
-0.192, -2.467e-6, -1.279e-6, 1.188e-6
-0.193, -2.461e-6, -1.275e-6, 1.186e-6
-0.194, -2.459e-6, -1.273e-6, 1.186e-6
-0.195, -2.452e-6, -1.270e-6, 1.182e-6
-0.196, -2.458e-6, -1.276e-6, 1.182e-6
-0.197, -2.458e-6, -1.275e-6, 1.183e-6
-0.198, -2.451e-6, -1.270e-6, 1.181e-6
-0.199, -2.446e-6, -1.270e-6, 1.176e-6
-0.200, -2.449e-6, -1.269e-6, 1.180e-6
-0.201, -2.445e-6, -1.270e-6, 1.175e-6
-0.202, -2.442e-6, -1.269e-6, 1.173e-6
-0.203, -2.440e-6, -1.266e-6, 1.174e-6
-0.204, -2.433e-6, -1.260e-6, 1.173e-6
-0.205, -2.438e-6, -1.266e-6, 1.171e-6
-0.206, -2.433e-6, -1.263e-6, 1.170e-6
-0.207, -2.432e-6, -1.262e-6, 1.170e-6
-0.208, -2.427e-6, -1.259e-6, 1.168e-6
-0.209, -2.427e-6, -1.260e-6, 1.167e-6
-0.210, -2.424e-6, -1.260e-6, 1.164e-6
-0.211, -2.423e-6, -1.258e-6, 1.165e-6
-0.212, -2.421e-6, -1.257e-6, 1.164e-6
-0.213, -2.420e-6, -1.257e-6, 1.163e-6
-0.214, -2.413e-6, -1.253e-6, 1.160e-6
-0.215, -2.417e-6, -1.255e-6, 1.162e-6
-0.216, -2.413e-6, -1.254e-6, 1.160e-6
-0.217, -2.410e-6, -1.251e-6, 1.158e-6
-0.218, -2.406e-6, -1.251e-6, 1.155e-6
-0.219, -2.408e-6, -1.252e-6, 1.156e-6
-0.220, -2.408e-6, -1.253e-6, 1.155e-6
-0.221, -2.403e-6, -1.251e-6, 1.152e-6
-0.222, -2.399e-6, -1.247e-6, 1.153e-6
-0.223, -2.399e-6, -1.249e-6, 1.150e-6
-0.224, -2.398e-6, -1.249e-6, 1.149e-6
-0.225, -2.396e-6, -1.247e-6, 1.149e-6
-0.226, -2.392e-6, -1.244e-6, 1.148e-6
-0.227, -2.390e-6, -1.244e-6, 1.146e-6
-0.228, -2.392e-6, -1.248e-6, 1.145e-6
-0.229, -2.388e-6, -1.243e-6, 1.145e-6
-0.230, -2.386e-6, -1.243e-6, 1.143e-6
-0.231, -2.384e-6, -1.243e-6, 1.141e-6
-0.232, -2.384e-6, -1.241e-6, 1.143e-6
-0.233, -2.376e-6, -1.238e-6, 1.138e-6
-0.234, -2.380e-6, -1.241e-6, 1.139e-6
-0.235, -2.385e-6, -1.246e-6, 1.138e-6
-0.236, -2.375e-6, -1.240e-6, 1.135e-6
-0.237, -2.377e-6, -1.240e-6, 1.137e-6
-0.238, -2.373e-6, -1.237e-6, 1.136e-6
-0.239, -2.371e-6, -1.240e-6, 1.131e-6
-0.240, -2.374e-6, -1.241e-6, 1.133e-6
-0.241, -2.371e-6, -1.237e-6, 1.134e-6
-0.242, -2.368e-6, -1.239e-6, 1.129e-6
-0.243, -2.368e-6, -1.237e-6, 1.131e-6
-0.244, -2.364e-6, -1.235e-6, 1.129e-6
-0.245, -2.366e-6, -1.240e-6, 1.126e-6
-0.246, -2.358e-6, -1.231e-6, 1.127e-6
-0.247, -2.356e-6, -1.232e-6, 1.124e-6
-0.248, -2.356e-6, -1.233e-6, 1.123e-6
-0.249, -2.352e-6, -1.230e-6, 1.123e-6
-0.250, -2.349e-6, -1.230e-6, 1.119e-6
-0.251, -2.359e-6, -1.237e-6, 1.122e-6
-0.252, -2.352e-6, -1.229e-6, 1.123e-6
-0.253, -2.346e-6, -1.228e-6, 1.118e-6
-0.254, -2.348e-6, -1.232e-6, 1.117e-6
-0.255, -2.345e-6, -1.227e-6, 1.118e-6
-0.256, -2.348e-6, -1.232e-6, 1.116e-6
-0.257, -2.345e-6, -1.227e-6, 1.117e-6
-0.258, -2.342e-6, -1.226e-6, 1.115e-6
-0.259, -2.338e-6, -1.225e-6, 1.113e-6
-0.260, -2.339e-6, -1.226e-6, 1.113e-6
-0.261, -2.341e-6, -1.227e-6, 1.115e-6
-0.262, -2.334e-6, -1.225e-6, 1.109e-6
-0.263, -2.336e-6, -1.226e-6, 1.110e-6
-0.264, -2.334e-6, -1.223e-6, 1.110e-6
-0.265, -2.335e-6, -1.228e-6, 1.107e-6
-0.266, -2.335e-6, -1.226e-6, 1.109e-6
-0.267, -2.327e-6, -1.220e-6, 1.107e-6
-0.268, -2.329e-6, -1.225e-6, 1.105e-6
-0.269, -2.327e-6, -1.223e-6, 1.105e-6
-0.270, -2.329e-6, -1.225e-6, 1.104e-6
-0.271, -2.323e-6, -1.219e-6, 1.104e-6
-0.272, -2.323e-6, -1.220e-6, 1.103e-6
-0.273, -2.323e-6, -1.222e-6, 1.100e-6
-0.274, -2.318e-6, -1.217e-6, 1.101e-6
-0.275, -2.320e-6, -1.219e-6, 1.101e-6
-0.276, -2.320e-6, -1.220e-6, 1.100e-6
-0.277, -2.316e-6, -1.219e-6, 1.097e-6
-0.278, -2.315e-6, -1.217e-6, 1.098e-6
-0.279, -2.320e-6, -1.222e-6, 1.097e-6
-0.280, -2.316e-6, -1.220e-6, 1.097e-6
-0.281, -2.312e-6, -1.217e-6, 1.095e-6
-0.282, -2.310e-6, -1.217e-6, 1.093e-6
-0.283, -2.311e-6, -1.218e-6, 1.093e-6
-0.284, -2.306e-6, -1.215e-6, 1.091e-6
-0.285, -2.306e-6, -1.216e-6, 1.090e-6
-0.286, -2.306e-6, -1.215e-6, 1.091e-6
-0.287, -2.302e-6, -1.211e-6, 1.091e-6
-0.288, -2.303e-6, -1.213e-6, 1.090e-6
-0.289, -2.304e-6, -1.215e-6, 1.090e-6
-0.290, -2.301e-6, -1.214e-6, 1.088e-6
-0.291, -2.301e-6, -1.213e-6, 1.088e-6
-0.292, -2.299e-6, -1.212e-6, 1.087e-6
-0.293, -2.298e-6, -1.212e-6, 1.086e-6
-0.294, -2.298e-6, -1.212e-6, 1.085e-6
-0.295, -2.298e-6, -1.212e-6, 1.086e-6
-0.296, -2.296e-6, -1.213e-6, 1.083e-6
-0.297, -2.295e-6, -1.213e-6, 1.082e-6
-0.298, -2.300e-6, -1.215e-6, 1.086e-6
-0.299, -2.297e-6, -1.213e-6, 1.084e-6
-0.300, -2.290e-6, -1.210e-6, 1.080e-6
-0.301, -2.293e-6, -1.210e-6, 1.083e-6
-0.302, -2.296e-6, -1.215e-6, 1.081e-6
-0.303, -2.295e-6, -1.214e-6, 1.081e-6
-0.304, -2.290e-6, -1.210e-6, 1.080e-6
-0.305, -2.290e-6, -1.210e-6, 1.080e-6
-0.306, -2.292e-6, -1.212e-6, 1.080e-6
-0.307, -2.291e-6, -1.210e-6, 1.081e-6
-0.308, -2.289e-6, -1.211e-6, 1.078e-6
-0.309, -2.287e-6, -1.209e-6, 1.077e-6
-0.310, -2.286e-6, -1.207e-6, 1.079e-6
-0.311, -2.286e-6, -1.211e-6, 1.075e-6
-0.312, -2.290e-6, -1.213e-6, 1.077e-6
-0.313, -2.287e-6, -1.211e-6, 1.076e-6
-0.314, -2.282e-6, -1.209e-6, 1.073e-6
-0.315, -2.285e-6, -1.209e-6, 1.075e-6
-0.316, -2.282e-6, -1.208e-6, 1.074e-6
-0.317, -2.282e-6, -1.211e-6, 1.071e-6
-0.318, -2.285e-6, -1.211e-6, 1.074e-6
-0.319, -2.283e-6, -1.209e-6, 1.074e-6
-0.320, -2.280e-6, -1.210e-6, 1.070e-6
-0.321, -2.287e-6, -1.214e-6, 1.073e-6
-0.322, -2.281e-6, -1.209e-6, 1.072e-6
-0.323, -2.280e-6, -1.211e-6, 1.068e-6
-0.324, -2.283e-6, -1.212e-6, 1.071e-6
-0.325, -2.278e-6, -1.209e-6, 1.069e-6
-0.326, -2.283e-6, -1.215e-6, 1.068e-6
-0.327, -2.286e-6, -1.217e-6, 1.070e-6
-0.328, -2.274e-6, -1.207e-6, 1.067e-6
-0.329, -2.277e-6, -1.211e-6, 1.066e-6
-0.330, -2.280e-6, -1.213e-6, 1.067e-6
-0.331, -2.279e-6, -1.211e-6, 1.068e-6
-0.332, -2.277e-6, -1.212e-6, 1.065e-6
-0.333, -2.277e-6, -1.209e-6, 1.068e-6
-0.334, -2.273e-6, -1.211e-6, 1.063e-6
-0.335, -2.275e-6, -1.209e-6, 1.066e-6
-0.336, -2.277e-6, -1.212e-6, 1.065e-6
-0.337, -2.273e-6, -1.210e-6, 1.063e-6
-0.338, -2.281e-6, -1.216e-6, 1.065e-6
-0.339, -2.277e-6, -1.212e-6, 1.065e-6
-0.340, -2.274e-6, -1.213e-6, 1.062e-6
-0.341, -2.275e-6, -1.212e-6, 1.063e-6
-0.342, -2.282e-6, -1.220e-6, 1.062e-6
-0.343, -2.277e-6, -1.217e-6, 1.060e-6
-0.344, -2.272e-6, -1.211e-6, 1.061e-6
-0.345, -2.273e-6, -1.213e-6, 1.059e-6
-0.346, -2.274e-6, -1.213e-6, 1.061e-6
-0.347, -2.271e-6, -1.213e-6, 1.058e-6
-0.348, -2.274e-6, -1.213e-6, 1.060e-6
-0.349, -2.272e-6, -1.211e-6, 1.061e-6
-0.350, -2.274e-6, -1.213e-6, 1.061e-6
-0.351, -2.271e-6, -1.215e-6, 1.056e-6
-0.352, -2.272e-6, -1.214e-6, 1.058e-6
-0.353, -2.269e-6, -1.211e-6, 1.058e-6
-0.354, -2.270e-6, -1.215e-6, 1.055e-6
-0.355, -2.275e-6, -1.219e-6, 1.056e-6
-0.356, -2.271e-6, -1.218e-6, 1.053e-6
-0.357, -2.273e-6, -1.219e-6, 1.054e-6
-0.358, -2.273e-6, -1.219e-6, 1.054e-6
-0.359, -2.270e-6, -1.216e-6, 1.054e-6
-0.360, -2.273e-6, -1.219e-6, 1.054e-6
-0.361, -2.269e-6, -1.217e-6, 1.052e-6
-0.362, -2.266e-6, -1.214e-6, 1.052e-6
-0.363, -2.270e-6, -1.217e-6, 1.053e-6
-0.364, -2.273e-6, -1.221e-6, 1.052e-6
-0.365, -2.267e-6, -1.217e-6, 1.050e-6
-0.366, -2.269e-6, -1.220e-6, 1.048e-6
-0.367, -2.268e-6, -1.219e-6, 1.050e-6
-0.368, -2.267e-6, -1.219e-6, 1.048e-6
-0.369, -2.265e-6, -1.218e-6, 1.048e-6
-0.370, -2.266e-6, -1.218e-6, 1.048e-6
-0.371, -2.269e-6, -1.223e-6, 1.046e-6
-0.372, -2.269e-6, -1.223e-6, 1.047e-6
-0.373, -2.266e-6, -1.218e-6, 1.048e-6
-0.374, -2.267e-6, -1.223e-6, 1.044e-6
-0.375, -2.270e-6, -1.225e-6, 1.044e-6
-0.376, -2.268e-6, -1.221e-6, 1.047e-6
-0.377, -2.259e-6, -1.218e-6, 1.041e-6
-0.378, -2.271e-6, -1.228e-6, 1.043e-6
-0.379, -2.267e-6, -1.224e-6, 1.044e-6
-0.380, -2.268e-6, -1.227e-6, 1.041e-6
-0.381, -2.264e-6, -1.223e-6, 1.041e-6
-0.382, -2.266e-6, -1.225e-6, 1.041e-6
-0.383, -2.264e-6, -1.226e-6, 1.038e-6
-0.384, -2.264e-6, -1.226e-6, 1.038e-6
-0.385, -2.262e-6, -1.223e-6, 1.039e-6
-0.386, -2.265e-6, -1.229e-6, 1.037e-6
-0.387, -2.267e-6, -1.231e-6, 1.037e-6
-0.388, -2.265e-6, -1.230e-6, 1.036e-6
-0.389, -2.262e-6, -1.227e-6, 1.035e-6
-0.390, -2.270e-6, -1.235e-6, 1.036e-6
-0.391, -2.264e-6, -1.230e-6, 1.034e-6
-0.392, -2.265e-6, -1.233e-6, 1.032e-6
-0.393, -2.263e-6, -1.230e-6, 1.032e-6
-0.394, -2.261e-6, -1.230e-6, 1.030e-6
-0.395, -2.260e-6, -1.229e-6, 1.030e-6
-0.396, -2.265e-6, -1.233e-6, 1.032e-6
-0.397, -2.263e-6, -1.235e-6, 1.028e-6
-0.398, -2.265e-6, -1.236e-6, 1.029e-6
-0.399, -2.267e-6, -1.237e-6, 1.030e-6
-0.400, -2.266e-6, -1.238e-6, 1.027e-6
