Mar. 20, 2018   15:45:01
Square Wave Voltammetry
File: c:\users\electrochemist\desktop\2018\20032018_unbufarray_unpap\56_g1_ph9,02_5.txt
Data Source:  Experiment
Instrument Model:  CHI1040A
Header: 
Note: 

Init E (V) = 0.7
Final E (V) = -0.4
Incr E (V) = 0.001
Amplitude (V) = 0.1
Frequency (Hz) = 152
Quiet Time (sec) = 2
Sensitivity (A/V) = 1e-6

Difference:

Forward:

Reverse:

Potential/V, Diff(i/A), For(i/A), Rev(i/A)

0.699, -9.622e-7, -2.518e-7, 7.104e-7
0.698, -1.123e-6, -4.956e-7, 6.277e-7
0.697, -1.122e-6, -5.173e-7, 6.045e-7
0.696, -1.120e-6, -5.213e-7, 5.984e-7
0.695, -1.111e-6, -5.216e-7, 5.892e-7
0.694, -1.109e-6, -5.249e-7, 5.843e-7
0.693, -1.107e-6, -5.231e-7, 5.843e-7
0.692, -1.099e-6, -5.231e-7, 5.761e-7
0.691, -1.099e-6, -5.258e-7, 5.733e-7
0.690, -1.096e-6, -5.237e-7, 5.721e-7
0.689, -1.092e-6, -5.243e-7, 5.682e-7
0.688, -1.092e-6, -5.268e-7, 5.648e-7
0.687, -1.087e-6, -5.222e-7, 5.645e-7
0.686, -1.085e-6, -5.246e-7, 5.608e-7
0.685, -1.087e-6, -5.261e-7, 5.605e-7
0.684, -1.085e-6, -5.255e-7, 5.590e-7
0.683, -1.079e-6, -5.225e-7, 5.566e-7
0.682, -1.078e-6, -5.246e-7, 5.538e-7
0.681, -1.079e-6, -5.258e-7, 5.535e-7
0.680, -1.074e-6, -5.252e-7, 5.486e-7
0.679, -1.070e-6, -5.216e-7, 5.489e-7
0.678, -1.070e-6, -5.237e-7, 5.462e-7
0.677, -1.071e-6, -5.255e-7, 5.453e-7
0.676, -1.070e-6, -5.268e-7, 5.431e-7
0.675, -1.065e-6, -5.234e-7, 5.419e-7
0.674, -1.067e-6, -5.261e-7, 5.410e-7
0.673, -1.066e-6, -5.249e-7, 5.407e-7
0.672, -1.060e-6, -5.237e-7, 5.367e-7
0.671, -1.062e-6, -5.246e-7, 5.376e-7
0.670, -1.060e-6, -5.240e-7, 5.355e-7
0.669, -1.060e-6, -5.240e-7, 5.355e-7
0.668, -1.059e-6, -5.261e-7, 5.325e-7
0.667, -1.055e-6, -5.225e-7, 5.325e-7
0.666, -1.054e-6, -5.249e-7, 5.294e-7
0.665, -1.054e-6, -5.271e-7, 5.270e-7
0.664, -1.055e-6, -5.258e-7, 5.288e-7
0.663, -1.051e-6, -5.255e-7, 5.254e-7
0.662, -1.050e-6, -5.237e-7, 5.263e-7
0.661, -1.047e-6, -5.219e-7, 5.248e-7
0.660, -1.046e-6, -5.228e-7, 5.230e-7
0.659, -1.051e-6, -5.252e-7, 5.257e-7
0.658, -1.044e-6, -5.225e-7, 5.218e-7
0.657, -1.042e-6, -5.228e-7, 5.193e-7
0.656, -1.046e-6, -5.255e-7, 5.206e-7
0.655, -1.043e-6, -5.222e-7, 5.209e-7
0.654, -1.043e-6, -5.243e-7, 5.187e-7
0.653, -1.042e-6, -5.240e-7, 5.178e-7
0.652, -1.037e-6, -5.206e-7, 5.163e-7
0.651, -1.041e-6, -5.252e-7, 5.154e-7
0.650, -1.040e-6, -5.225e-7, 5.178e-7
0.649, -1.037e-6, -5.231e-7, 5.135e-7
0.648, -1.037e-6, -5.246e-7, 5.120e-7
0.647, -1.038e-6, -5.219e-7, 5.160e-7
0.646, -1.036e-6, -5.246e-7, 5.114e-7
0.645, -1.038e-6, -5.271e-7, 5.108e-7
0.644, -1.034e-6, -5.210e-7, 5.126e-7
0.643, -1.034e-6, -5.237e-7, 5.102e-7
0.642, -1.035e-6, -5.249e-7, 5.099e-7
0.641, -1.036e-6, -5.255e-7, 5.105e-7
0.640, -1.029e-6, -5.240e-7, 5.053e-7
0.639, -1.036e-6, -5.283e-7, 5.080e-7
0.638, -1.031e-6, -5.219e-7, 5.093e-7
0.637, -1.026e-6, -5.234e-7, 5.029e-7
0.636, -1.033e-6, -5.258e-7, 5.071e-7
0.635, -1.032e-6, -5.237e-7, 5.080e-7
0.634, -1.029e-6, -5.252e-7, 5.035e-7
0.633, -1.030e-6, -5.246e-7, 5.050e-7
0.632, -1.029e-6, -5.240e-7, 5.047e-7
0.631, -1.025e-6, -5.261e-7, 4.986e-7
0.630, -1.030e-6, -5.255e-7, 5.047e-7
0.629, -1.025e-6, -5.240e-7, 5.013e-7
0.628, -1.024e-6, -5.243e-7, 4.998e-7
0.627, -1.025e-6, -5.249e-7, 5.001e-7
0.626, -1.026e-6, -5.243e-7, 5.013e-7
0.625, -1.023e-6, -5.243e-7, 4.983e-7
0.624, -1.025e-6, -5.274e-7, 4.980e-7
0.623, -1.026e-6, -5.255e-7, 5.004e-7
0.622, -1.025e-6, -5.268e-7, 4.983e-7
0.621, -1.024e-6, -5.246e-7, 4.992e-7
0.620, -1.021e-6, -5.240e-7, 4.967e-7
0.619, -1.025e-6, -5.280e-7, 4.967e-7
0.618, -1.022e-6, -5.234e-7, 4.989e-7
0.617, -1.019e-6, -5.249e-7, 4.940e-7
0.616, -1.024e-6, -5.286e-7, 4.949e-7
0.615, -1.021e-6, -5.261e-7, 4.949e-7
0.614, -1.021e-6, -5.243e-7, 4.964e-7
0.613, -1.020e-6, -5.258e-7, 4.943e-7
0.612, -1.020e-6, -5.252e-7, 4.952e-7
0.611, -1.019e-6, -5.258e-7, 4.934e-7
0.610, -1.021e-6, -5.268e-7, 4.940e-7
0.609, -1.021e-6, -5.264e-7, 4.949e-7
0.608, -1.018e-6, -5.268e-7, 4.916e-7
0.607, -1.024e-6, -5.274e-7, 4.961e-7
0.606, -1.019e-6, -5.274e-7, 4.919e-7
0.605, -1.020e-6, -5.277e-7, 4.919e-7
0.604, -1.023e-6, -5.280e-7, 4.952e-7
0.603, -1.017e-6, -5.268e-7, 4.900e-7
0.602, -1.023e-6, -5.304e-7, 4.925e-7
0.601, -1.020e-6, -5.274e-7, 4.931e-7
0.600, -1.018e-6, -5.280e-7, 4.897e-7
0.599, -1.022e-6, -5.304e-7, 4.913e-7
0.598, -1.023e-6, -5.295e-7, 4.934e-7
0.597, -1.019e-6, -5.289e-7, 4.900e-7
0.596, -1.019e-6, -5.307e-7, 4.885e-7
0.595, -1.023e-6, -5.313e-7, 4.916e-7
0.594, -1.020e-6, -5.310e-7, 4.885e-7
0.593, -1.020e-6, -5.313e-7, 4.891e-7
0.592, -1.018e-6, -5.289e-7, 4.894e-7
0.591, -1.019e-6, -5.304e-7, 4.885e-7
0.590, -1.023e-6, -5.310e-7, 4.916e-7
0.589, -1.021e-6, -5.304e-7, 4.903e-7
0.588, -1.020e-6, -5.332e-7, 4.870e-7
0.587, -1.022e-6, -5.313e-7, 4.903e-7
0.586, -1.024e-6, -5.319e-7, 4.919e-7
0.585, -1.022e-6, -5.347e-7, 4.870e-7
0.584, -1.027e-6, -5.350e-7, 4.919e-7
0.583, -1.023e-6, -5.325e-7, 4.903e-7
0.582, -1.023e-6, -5.344e-7, 4.882e-7
0.581, -1.027e-6, -5.344e-7, 4.928e-7
0.580, -1.023e-6, -5.329e-7, 4.900e-7
0.579, -1.022e-6, -5.365e-7, 4.855e-7
0.578, -1.025e-6, -5.347e-7, 4.906e-7
0.577, -1.021e-6, -5.338e-7, 4.873e-7
0.576, -1.026e-6, -5.368e-7, 4.888e-7
0.575, -1.027e-6, -5.353e-7, 4.916e-7
0.574, -1.027e-6, -5.365e-7, 4.900e-7
0.573, -1.027e-6, -5.383e-7, 4.885e-7
0.572, -1.027e-6, -5.371e-7, 4.903e-7
0.571, -1.027e-6, -5.380e-7, 4.894e-7
0.570, -1.027e-6, -5.387e-7, 4.879e-7
0.569, -1.032e-6, -5.396e-7, 4.922e-7
0.568, -1.029e-6, -5.399e-7, 4.891e-7
0.567, -1.028e-6, -5.396e-7, 4.888e-7
0.566, -1.030e-6, -5.399e-7, 4.903e-7
0.565, -1.031e-6, -5.405e-7, 4.906e-7
0.564, -1.032e-6, -5.405e-7, 4.916e-7
0.563, -1.030e-6, -5.396e-7, 4.906e-7
0.562, -1.031e-6, -5.420e-7, 4.891e-7
0.561, -1.032e-6, -5.417e-7, 4.900e-7
0.560, -1.034e-6, -5.408e-7, 4.928e-7
0.559, -1.036e-6, -5.454e-7, 4.903e-7
0.558, -1.034e-6, -5.435e-7, 4.910e-7
0.557, -1.034e-6, -5.426e-7, 4.913e-7
0.556, -1.036e-6, -5.457e-7, 4.900e-7
0.555, -1.036e-6, -5.445e-7, 4.913e-7
0.554, -1.036e-6, -5.445e-7, 4.913e-7
0.553, -1.039e-6, -5.460e-7, 4.928e-7
0.552, -1.040e-6, -5.460e-7, 4.937e-7
0.551, -1.038e-6, -5.463e-7, 4.913e-7
0.550, -1.041e-6, -5.481e-7, 4.925e-7
0.549, -1.039e-6, -5.466e-7, 4.925e-7
0.548, -1.037e-6, -5.475e-7, 4.897e-7
0.547, -1.043e-6, -5.490e-7, 4.940e-7
0.546, -1.040e-6, -5.484e-7, 4.919e-7
0.545, -1.043e-6, -5.493e-7, 4.937e-7
0.544, -1.044e-6, -5.518e-7, 4.925e-7
0.543, -1.044e-6, -5.512e-7, 4.928e-7
0.542, -1.043e-6, -5.502e-7, 4.925e-7
0.541, -1.044e-6, -5.518e-7, 4.925e-7
0.540, -1.046e-6, -5.502e-7, 4.958e-7
0.539, -1.043e-6, -5.521e-7, 4.913e-7
0.538, -1.046e-6, -5.527e-7, 4.931e-7
0.537, -1.046e-6, -5.524e-7, 4.937e-7
0.536, -1.048e-6, -5.551e-7, 4.925e-7
0.535, -1.048e-6, -5.524e-7, 4.952e-7
0.534, -1.049e-6, -5.542e-7, 4.943e-7
0.533, -1.049e-6, -5.554e-7, 4.931e-7
0.532, -1.050e-6, -5.539e-7, 4.961e-7
0.531, -1.049e-6, -5.533e-7, 4.955e-7
0.530, -1.052e-6, -5.582e-7, 4.934e-7
0.529, -1.054e-6, -5.560e-7, 4.980e-7
0.528, -1.052e-6, -5.560e-7, 4.958e-7
0.527, -1.054e-6, -5.600e-7, 4.943e-7
0.526, -1.053e-6, -5.554e-7, 4.974e-7
0.525, -1.050e-6, -5.564e-7, 4.937e-7
0.524, -1.056e-6, -5.606e-7, 4.949e-7
0.523, -1.054e-6, -5.576e-7, 4.964e-7
0.522, -1.053e-6, -5.585e-7, 4.943e-7
0.521, -1.060e-6, -5.618e-7, 4.977e-7
0.520, -1.058e-6, -5.582e-7, 4.995e-7
0.519, -1.055e-6, -5.603e-7, 4.949e-7
0.518, -1.058e-6, -5.612e-7, 4.964e-7
0.517, -1.056e-6, -5.591e-7, 4.974e-7
0.516, -1.058e-6, -5.634e-7, 4.946e-7
0.515, -1.061e-6, -5.640e-7, 4.967e-7
0.514, -1.062e-6, -5.622e-7, 4.998e-7
0.513, -1.061e-6, -5.652e-7, 4.955e-7
0.512, -1.063e-6, -5.649e-7, 4.977e-7
0.511, -1.065e-6, -5.646e-7, 5.007e-7
0.510, -1.063e-6, -5.661e-7, 4.974e-7
0.509, -1.067e-6, -5.670e-7, 5.001e-7
0.508, -1.063e-6, -5.634e-7, 4.992e-7
0.507, -1.066e-6, -5.673e-7, 4.989e-7
0.506, -1.068e-6, -5.679e-7, 5.001e-7
0.505, -1.065e-6, -5.667e-7, 4.983e-7
0.504, -1.066e-6, -5.689e-7, 4.974e-7
0.503, -1.067e-6, -5.683e-7, 4.989e-7
0.502, -1.068e-6, -5.698e-7, 4.983e-7
0.501, -1.069e-6, -5.710e-7, 4.983e-7
0.500, -1.070e-6, -5.695e-7, 5.001e-7
0.499, -1.068e-6, -5.689e-7, 4.989e-7
0.498, -1.074e-6, -5.728e-7, 5.010e-7
0.497, -1.069e-6, -5.698e-7, 4.992e-7
0.496, -1.071e-6, -5.713e-7, 4.998e-7
0.495, -1.074e-6, -5.731e-7, 5.007e-7
0.494, -1.073e-6, -5.719e-7, 5.010e-7
0.493, -1.074e-6, -5.722e-7, 5.016e-7
0.492, -1.075e-6, -5.747e-7, 5.007e-7
0.491, -1.078e-6, -5.744e-7, 5.041e-7
0.490, -1.077e-6, -5.759e-7, 5.007e-7
0.489, -1.081e-6, -5.771e-7, 5.038e-7
0.488, -1.077e-6, -5.744e-7, 5.029e-7
0.487, -1.078e-6, -5.771e-7, 5.007e-7
0.486, -1.081e-6, -5.774e-7, 5.038e-7
0.485, -1.082e-6, -5.783e-7, 5.041e-7
0.484, -1.082e-6, -5.789e-7, 5.029e-7
0.483, -1.084e-6, -5.789e-7, 5.053e-7
0.482, -1.081e-6, -5.786e-7, 5.025e-7
0.481, -1.085e-6, -5.817e-7, 5.038e-7
0.480, -1.087e-6, -5.817e-7, 5.053e-7
0.479, -1.086e-6, -5.829e-7, 5.032e-7
0.478, -1.089e-6, -5.829e-7, 5.059e-7
0.477, -1.091e-6, -5.832e-7, 5.080e-7
0.476, -1.087e-6, -5.832e-7, 5.035e-7
0.475, -1.095e-6, -5.863e-7, 5.083e-7
0.474, -1.092e-6, -5.829e-7, 5.086e-7
0.473, -1.091e-6, -5.850e-7, 5.059e-7
0.472, -1.095e-6, -5.856e-7, 5.090e-7
0.471, -1.095e-6, -5.860e-7, 5.090e-7
0.470, -1.094e-6, -5.890e-7, 5.050e-7
0.469, -1.100e-6, -5.878e-7, 5.120e-7
0.468, -1.096e-6, -5.872e-7, 5.090e-7
0.467, -1.097e-6, -5.911e-7, 5.056e-7
0.466, -1.100e-6, -5.887e-7, 5.114e-7
0.465, -1.099e-6, -5.890e-7, 5.096e-7
0.464, -1.099e-6, -5.924e-7, 5.071e-7
0.463, -1.107e-6, -5.936e-7, 5.129e-7
0.462, -1.102e-6, -5.905e-7, 5.111e-7
0.461, -1.104e-6, -5.942e-7, 5.099e-7
0.460, -1.107e-6, -5.963e-7, 5.111e-7
0.459, -1.104e-6, -5.927e-7, 5.114e-7
0.458, -1.109e-6, -5.991e-7, 5.099e-7
0.457, -1.111e-6, -5.963e-7, 5.148e-7
0.456, -1.110e-6, -5.957e-7, 5.138e-7
0.455, -1.110e-6, -5.991e-7, 5.111e-7
0.454, -1.116e-6, -5.988e-7, 5.172e-7
0.453, -1.112e-6, -5.982e-7, 5.141e-7
0.452, -1.115e-6, -6.027e-7, 5.126e-7
0.451, -1.119e-6, -6.021e-7, 5.172e-7
0.450, -1.117e-6, -6.018e-7, 5.157e-7
0.449, -1.118e-6, -6.037e-7, 5.148e-7
0.448, -1.121e-6, -6.033e-7, 5.181e-7
0.447, -1.122e-6, -6.037e-7, 5.181e-7
0.446, -1.123e-6, -6.061e-7, 5.172e-7
0.445, -1.125e-6, -6.061e-7, 5.184e-7
0.444, -1.124e-6, -6.070e-7, 5.172e-7
0.443, -1.128e-6, -6.082e-7, 5.196e-7
0.442, -1.127e-6, -6.073e-7, 5.193e-7
0.441, -1.130e-6, -6.110e-7, 5.187e-7
0.440, -1.132e-6, -6.116e-7, 5.205e-7
0.439, -1.132e-6, -6.125e-7, 5.199e-7
0.438, -1.134e-6, -6.137e-7, 5.205e-7
0.437, -1.136e-6, -6.125e-7, 5.233e-7
0.436, -1.135e-6, -6.149e-7, 5.202e-7
0.435, -1.137e-6, -6.149e-7, 5.221e-7
0.434, -1.139e-6, -6.149e-7, 5.239e-7
0.433, -1.139e-6, -6.159e-7, 5.230e-7
0.432, -1.142e-6, -6.186e-7, 5.233e-7
0.431, -1.144e-6, -6.183e-7, 5.257e-7
0.430, -1.142e-6, -6.174e-7, 5.248e-7
0.429, -1.146e-6, -6.204e-7, 5.251e-7
0.428, -1.146e-6, -6.183e-7, 5.273e-7
0.427, -1.146e-6, -6.195e-7, 5.260e-7
0.426, -1.149e-6, -6.226e-7, 5.263e-7
0.425, -1.149e-6, -6.207e-7, 5.282e-7
0.424, -1.151e-6, -6.235e-7, 5.279e-7
0.423, -1.156e-6, -6.265e-7, 5.291e-7
0.422, -1.153e-6, -6.235e-7, 5.297e-7
0.421, -1.154e-6, -6.272e-7, 5.273e-7
0.420, -1.157e-6, -6.278e-7, 5.297e-7
0.419, -1.161e-6, -6.281e-7, 5.328e-7
0.418, -1.161e-6, -6.293e-7, 5.312e-7
0.417, -1.162e-6, -6.302e-7, 5.321e-7
0.416, -1.161e-6, -6.290e-7, 5.318e-7
0.415, -1.164e-6, -6.329e-7, 5.306e-7
0.414, -1.167e-6, -6.326e-7, 5.340e-7
0.413, -1.166e-6, -6.348e-7, 5.315e-7
0.412, -1.169e-6, -6.372e-7, 5.318e-7
0.411, -1.168e-6, -6.333e-7, 5.352e-7
0.410, -1.169e-6, -6.348e-7, 5.346e-7
0.409, -1.172e-6, -6.378e-7, 5.340e-7
0.408, -1.174e-6, -6.384e-7, 5.358e-7
0.407, -1.170e-6, -6.366e-7, 5.331e-7
0.406, -1.179e-6, -6.409e-7, 5.379e-7
0.405, -1.175e-6, -6.381e-7, 5.373e-7
0.404, -1.178e-6, -6.415e-7, 5.364e-7
0.403, -1.182e-6, -6.439e-7, 5.379e-7
0.402, -1.183e-6, -6.421e-7, 5.410e-7
0.401, -1.180e-6, -6.436e-7, 5.361e-7
0.400, -1.185e-6, -6.452e-7, 5.401e-7
0.399, -1.185e-6, -6.442e-7, 5.407e-7
0.398, -1.185e-6, -6.458e-7, 5.392e-7
0.397, -1.189e-6, -6.476e-7, 5.410e-7
0.396, -1.190e-6, -6.485e-7, 5.419e-7
0.395, -1.190e-6, -6.494e-7, 5.404e-7
0.394, -1.191e-6, -6.497e-7, 5.413e-7
0.393, -1.192e-6, -6.488e-7, 5.434e-7
0.392, -1.192e-6, -6.510e-7, 5.410e-7
0.391, -1.198e-6, -6.549e-7, 5.431e-7
0.390, -1.198e-6, -6.510e-7, 5.474e-7
0.389, -1.197e-6, -6.540e-7, 5.434e-7
0.388, -1.201e-6, -6.549e-7, 5.462e-7
0.387, -1.204e-6, -6.571e-7, 5.468e-7
0.386, -1.204e-6, -6.586e-7, 5.450e-7
0.385, -1.206e-6, -6.595e-7, 5.462e-7
0.384, -1.206e-6, -6.589e-7, 5.471e-7
0.383, -1.208e-6, -6.589e-7, 5.495e-7
0.382, -1.211e-6, -6.607e-7, 5.505e-7
0.381, -1.210e-6, -6.604e-7, 5.495e-7
0.380, -1.213e-6, -6.625e-7, 5.501e-7
0.379, -1.211e-6, -6.632e-7, 5.480e-7
0.378, -1.211e-6, -6.625e-7, 5.483e-7
0.377, -1.216e-6, -6.650e-7, 5.508e-7
0.376, -1.217e-6, -6.641e-7, 5.526e-7
0.375, -1.220e-6, -6.680e-7, 5.517e-7
0.374, -1.222e-6, -6.693e-7, 5.529e-7
0.373, -1.222e-6, -6.687e-7, 5.529e-7
0.372, -1.223e-6, -6.696e-7, 5.535e-7
0.371, -1.226e-6, -6.717e-7, 5.544e-7
0.370, -1.229e-6, -6.714e-7, 5.572e-7
0.369, -1.231e-6, -6.757e-7, 5.556e-7
0.368, -1.231e-6, -6.735e-7, 5.572e-7
0.367, -1.228e-6, -6.735e-7, 5.547e-7
0.366, -1.234e-6, -6.775e-7, 5.569e-7
0.365, -1.237e-6, -6.766e-7, 5.599e-7
0.364, -1.238e-6, -6.787e-7, 5.593e-7
0.363, -1.237e-6, -6.781e-7, 5.587e-7
0.362, -1.241e-6, -6.796e-7, 5.614e-7
0.361, -1.239e-6, -6.799e-7, 5.593e-7
0.360, -1.242e-6, -6.836e-7, 5.584e-7
0.359, -1.243e-6, -6.830e-7, 5.599e-7
0.358, -1.246e-6, -6.845e-7, 5.611e-7
0.357, -1.249e-6, -6.860e-7, 5.633e-7
0.356, -1.250e-6, -6.851e-7, 5.651e-7
0.355, -1.249e-6, -6.864e-7, 5.630e-7
0.354, -1.258e-6, -6.918e-7, 5.663e-7
0.353, -1.255e-6, -6.894e-7, 5.657e-7
0.352, -1.258e-6, -6.921e-7, 5.654e-7
0.351, -1.261e-6, -6.937e-7, 5.669e-7
0.350, -1.260e-6, -6.918e-7, 5.685e-7
0.349, -1.264e-6, -6.955e-7, 5.688e-7
0.348, -1.270e-6, -6.992e-7, 5.712e-7
0.347, -1.266e-6, -6.955e-7, 5.703e-7
0.346, -1.267e-6, -6.986e-7, 5.685e-7
0.345, -1.272e-6, -7.007e-7, 5.715e-7
0.344, -1.272e-6, -6.989e-7, 5.730e-7
0.343, -1.274e-6, -7.028e-7, 5.715e-7
0.342, -1.278e-6, -7.034e-7, 5.743e-7
0.341, -1.276e-6, -7.013e-7, 5.746e-7
0.340, -1.280e-6, -7.065e-7, 5.736e-7
0.339, -1.285e-6, -7.080e-7, 5.767e-7
0.338, -1.281e-6, -7.050e-7, 5.761e-7
0.337, -1.285e-6, -7.095e-7, 5.755e-7
0.336, -1.288e-6, -7.089e-7, 5.794e-7
0.335, -1.287e-6, -7.102e-7, 5.770e-7
0.334, -1.292e-6, -7.135e-7, 5.782e-7
0.333, -1.294e-6, -7.135e-7, 5.807e-7
0.332, -1.295e-6, -7.141e-7, 5.807e-7
0.331, -1.298e-6, -7.175e-7, 5.810e-7
0.330, -1.298e-6, -7.163e-7, 5.816e-7
0.329, -1.299e-6, -7.166e-7, 5.828e-7
0.328, -1.305e-6, -7.205e-7, 5.849e-7
0.327, -1.307e-6, -7.205e-7, 5.862e-7
0.326, -1.307e-6, -7.221e-7, 5.846e-7
0.325, -1.313e-6, -7.248e-7, 5.880e-7
0.324, -1.316e-6, -7.266e-7, 5.889e-7
0.323, -1.313e-6, -7.257e-7, 5.874e-7
0.322, -1.319e-6, -7.285e-7, 5.901e-7
0.321, -1.319e-6, -7.282e-7, 5.904e-7
0.320, -1.323e-6, -7.315e-7, 5.913e-7
0.319, -1.326e-6, -7.324e-7, 5.932e-7
0.318, -1.326e-6, -7.324e-7, 5.935e-7
0.317, -1.329e-6, -7.340e-7, 5.947e-7
0.316, -1.332e-6, -7.355e-7, 5.962e-7
0.315, -1.331e-6, -7.358e-7, 5.953e-7
0.314, -1.334e-6, -7.382e-7, 5.959e-7
0.313, -1.336e-6, -7.385e-7, 5.971e-7
0.312, -1.339e-6, -7.407e-7, 5.987e-7
0.311, -1.343e-6, -7.419e-7, 6.011e-7
0.310, -1.343e-6, -7.431e-7, 6.002e-7
0.309, -1.344e-6, -7.446e-7, 5.996e-7
0.308, -1.353e-6, -7.468e-7, 6.060e-7
0.307, -1.350e-6, -7.462e-7, 6.039e-7
0.306, -1.352e-6, -7.501e-7, 6.017e-7
0.305, -1.358e-6, -7.520e-7, 6.060e-7
0.304, -1.356e-6, -7.495e-7, 6.063e-7
0.303, -1.359e-6, -7.532e-7, 6.057e-7
0.302, -1.361e-6, -7.538e-7, 6.072e-7
0.301, -1.363e-6, -7.529e-7, 6.097e-7
0.300, -1.364e-6, -7.578e-7, 6.066e-7
0.299, -1.367e-6, -7.571e-7, 6.100e-7
0.298, -1.369e-6, -7.578e-7, 6.115e-7
0.297, -1.371e-6, -7.605e-7, 6.103e-7
0.296, -1.376e-6, -7.617e-7, 6.142e-7
0.295, -1.376e-6, -7.617e-7, 6.139e-7
0.294, -1.380e-6, -7.654e-7, 6.142e-7
0.293, -1.383e-6, -7.660e-7, 6.173e-7
0.292, -1.383e-6, -7.672e-7, 6.161e-7
0.291, -1.387e-6, -7.709e-7, 6.161e-7
0.290, -1.388e-6, -7.684e-7, 6.191e-7
0.289, -1.390e-6, -7.733e-7, 6.170e-7
0.288, -1.394e-6, -7.745e-7, 6.194e-7
0.287, -1.396e-6, -7.730e-7, 6.231e-7
0.286, -1.395e-6, -7.752e-7, 6.200e-7
0.285, -1.400e-6, -7.779e-7, 6.222e-7
0.284, -1.403e-6, -7.770e-7, 6.255e-7
0.283, -1.405e-6, -7.803e-7, 6.246e-7
0.282, -1.406e-6, -7.806e-7, 6.258e-7
0.281, -1.407e-6, -7.810e-7, 6.264e-7
0.280, -1.407e-6, -7.822e-7, 6.252e-7
0.279, -1.415e-6, -7.867e-7, 6.286e-7
0.278, -1.416e-6, -7.834e-7, 6.322e-7
0.277, -1.416e-6, -7.883e-7, 6.277e-7
0.276, -1.418e-6, -7.892e-7, 6.286e-7
0.275, -1.422e-6, -7.883e-7, 6.338e-7
0.274, -1.423e-6, -7.916e-7, 6.310e-7
0.273, -1.428e-6, -7.956e-7, 6.325e-7
0.272, -1.431e-6, -7.953e-7, 6.356e-7
0.271, -1.431e-6, -7.959e-7, 6.353e-7
0.270, -1.435e-6, -7.990e-7, 6.365e-7
0.269, -1.439e-6, -7.987e-7, 6.399e-7
0.268, -1.438e-6, -7.999e-7, 6.377e-7
0.267, -1.441e-6, -8.020e-7, 6.393e-7
0.266, -1.445e-6, -8.038e-7, 6.411e-7
0.265, -1.444e-6, -8.054e-7, 6.383e-7
0.264, -1.447e-6, -8.057e-7, 6.417e-7
0.263, -1.451e-6, -8.066e-7, 6.441e-7
0.262, -1.454e-6, -8.090e-7, 6.451e-7
0.261, -1.457e-6, -8.109e-7, 6.466e-7
0.260, -1.455e-6, -8.112e-7, 6.441e-7
0.259, -1.462e-6, -8.142e-7, 6.478e-7
0.258, -1.463e-6, -8.145e-7, 6.481e-7
0.257, -1.465e-6, -8.163e-7, 6.490e-7
0.256, -1.467e-6, -8.167e-7, 6.505e-7
0.255, -1.469e-6, -8.176e-7, 6.518e-7
0.254, -1.472e-6, -8.212e-7, 6.505e-7
0.253, -1.473e-6, -8.209e-7, 6.524e-7
0.252, -1.478e-6, -8.237e-7, 6.548e-7
0.251, -1.478e-6, -8.255e-7, 6.527e-7
0.250, -1.484e-6, -8.273e-7, 6.563e-7
0.249, -1.482e-6, -8.261e-7, 6.563e-7
0.248, -1.484e-6, -8.273e-7, 6.570e-7
0.247, -1.489e-6, -8.301e-7, 6.594e-7
0.246, -1.493e-6, -8.307e-7, 6.618e-7
0.245, -1.497e-6, -8.365e-7, 6.606e-7
0.244, -1.499e-6, -8.362e-7, 6.631e-7
0.243, -1.500e-6, -8.350e-7, 6.649e-7
0.242, -1.503e-6, -8.392e-7, 6.637e-7
0.241, -1.509e-6, -8.414e-7, 6.676e-7
0.240, -1.505e-6, -8.398e-7, 6.655e-7
0.239, -1.511e-6, -8.444e-7, 6.664e-7
0.238, -1.515e-6, -8.441e-7, 6.707e-7
0.237, -1.515e-6, -8.463e-7, 6.692e-7
0.236, -1.520e-6, -8.490e-7, 6.713e-7
0.235, -1.522e-6, -8.481e-7, 6.734e-7
0.234, -1.524e-6, -8.517e-7, 6.719e-7
0.233, -1.533e-6, -8.566e-7, 6.765e-7
0.232, -1.532e-6, -8.554e-7, 6.765e-7
0.231, -1.533e-6, -8.563e-7, 6.765e-7
0.230, -1.538e-6, -8.594e-7, 6.789e-7
0.229, -1.539e-6, -8.594e-7, 6.795e-7
0.228, -1.540e-6, -8.630e-7, 6.774e-7
0.227, -1.548e-6, -8.633e-7, 6.844e-7
0.226, -1.548e-6, -8.640e-7, 6.844e-7
0.225, -1.553e-6, -8.701e-7, 6.829e-7
0.224, -1.556e-6, -8.688e-7, 6.869e-7
0.223, -1.554e-6, -8.688e-7, 6.856e-7
0.222, -1.560e-6, -8.731e-7, 6.869e-7
0.221, -1.560e-6, -8.713e-7, 6.890e-7
0.220, -1.564e-6, -8.740e-7, 6.902e-7
0.219, -1.572e-6, -8.777e-7, 6.939e-7
0.218, -1.576e-6, -8.798e-7, 6.957e-7
0.217, -1.574e-6, -8.792e-7, 6.948e-7
0.216, -1.579e-6, -8.850e-7, 6.942e-7
0.215, -1.583e-6, -8.856e-7, 6.972e-7
0.214, -1.583e-6, -8.850e-7, 6.978e-7
0.213, -1.587e-6, -8.887e-7, 6.981e-7
0.212, -1.592e-6, -8.887e-7, 7.033e-7
0.211, -1.594e-6, -8.923e-7, 7.015e-7
0.210, -1.600e-6, -8.969e-7, 7.027e-7
0.209, -1.603e-6, -8.972e-7, 7.055e-7
0.208, -1.606e-6, -9.006e-7, 7.058e-7
0.207, -1.609e-6, -9.009e-7, 7.079e-7
0.206, -1.610e-6, -9.015e-7, 7.082e-7
0.205, -1.615e-6, -9.045e-7, 7.104e-7
0.204, -1.617e-6, -9.055e-7, 7.119e-7
0.203, -1.621e-6, -9.076e-7, 7.134e-7
0.202, -1.624e-6, -9.103e-7, 7.137e-7
0.201, -1.629e-6, -9.119e-7, 7.174e-7
0.200, -1.630e-6, -9.134e-7, 7.162e-7
0.199, -1.633e-6, -9.161e-7, 7.171e-7
0.198, -1.638e-6, -9.177e-7, 7.204e-7
0.197, -1.644e-6, -9.229e-7, 7.207e-7
0.196, -1.647e-6, -9.229e-7, 7.238e-7
0.195, -1.651e-6, -9.241e-7, 7.265e-7
0.194, -1.650e-6, -9.253e-7, 7.244e-7
0.193, -1.656e-6, -9.280e-7, 7.281e-7
0.192, -1.661e-6, -9.314e-7, 7.296e-7
0.191, -1.666e-6, -9.348e-7, 7.314e-7
0.190, -1.668e-6, -9.369e-7, 7.314e-7
0.189, -1.668e-6, -9.354e-7, 7.326e-7
0.188, -1.674e-6, -9.409e-7, 7.335e-7
0.187, -1.679e-6, -9.424e-7, 7.369e-7
0.186, -1.680e-6, -9.405e-7, 7.390e-7
0.185, -1.683e-6, -9.460e-7, 7.372e-7
0.184, -1.688e-6, -9.488e-7, 7.390e-7
0.183, -1.692e-6, -9.497e-7, 7.427e-7
0.182, -1.694e-6, -9.518e-7, 7.418e-7
0.181, -1.700e-6, -9.558e-7, 7.445e-7
0.180, -1.703e-6, -9.549e-7, 7.485e-7
0.179, -1.706e-6, -9.595e-7, 7.470e-7
0.178, -1.710e-6, -9.607e-7, 7.494e-7
0.177, -1.711e-6, -9.613e-7, 7.500e-7
0.176, -1.717e-6, -9.644e-7, 7.525e-7
0.175, -1.723e-6, -9.686e-7, 7.543e-7
0.174, -1.722e-6, -9.674e-7, 7.549e-7
0.173, -1.727e-6, -9.720e-7, 7.549e-7
0.172, -1.735e-6, -9.738e-7, 7.607e-7
0.171, -1.736e-6, -9.756e-7, 7.601e-7
0.170, -1.741e-6, -9.811e-7, 7.598e-7
0.169, -1.746e-6, -9.805e-7, 7.659e-7
0.168, -1.745e-6, -9.817e-7, 7.628e-7
0.167, -1.751e-6, -9.866e-7, 7.644e-7
0.166, -1.754e-6, -9.866e-7, 7.677e-7
0.165, -1.757e-6, -9.888e-7, 7.680e-7
0.164, -1.764e-6, -9.936e-7, 7.708e-7
0.163, -1.767e-6, -9.933e-7, 7.732e-7
0.162, -1.770e-6, -9.967e-7, 7.735e-7
0.161, -1.773e-6, -9.991e-7, 7.741e-7
0.160, -1.779e-6, -1.000e-6, 7.784e-7
0.159, -1.779e-6, -1.002e-6, 7.772e-7
0.158, -1.787e-6, -1.008e-6, 7.793e-7
0.157, -1.786e-6, -1.004e-6, 7.821e-7
0.156, -1.796e-6, -1.012e-6, 7.833e-7
0.155, -1.800e-6, -1.015e-6, 7.851e-7
0.154, -1.802e-6, -1.014e-6, 7.882e-7
0.153, -1.806e-6, -1.019e-6, 7.869e-7
0.152, -1.814e-6, -1.024e-6, 7.906e-7
0.151, -1.814e-6, -1.021e-6, 7.927e-7
0.150, -1.819e-6, -1.027e-6, 7.924e-7
0.149, -1.827e-6, -1.029e-6, 7.982e-7
0.148, -1.828e-6, -1.030e-6, 7.979e-7
0.147, -1.834e-6, -1.035e-6, 7.998e-7
0.146, -1.838e-6, -1.037e-6, 8.013e-7
0.145, -1.840e-6, -1.038e-6, 8.028e-7
0.144, -1.847e-6, -1.042e-6, 8.040e-7
0.143, -1.850e-6, -1.043e-6, 8.074e-7
0.142, -1.854e-6, -1.046e-6, 8.089e-7
0.141, -1.857e-6, -1.049e-6, 8.083e-7
0.140, -1.862e-6, -1.049e-6, 8.123e-7
0.139, -1.867e-6, -1.055e-6, 8.123e-7
0.138, -1.871e-6, -1.057e-6, 8.138e-7
0.137, -1.876e-6, -1.059e-6, 8.172e-7
0.136, -1.880e-6, -1.064e-6, 8.162e-7
0.135, -1.884e-6, -1.063e-6, 8.217e-7
0.134, -1.890e-6, -1.067e-6, 8.220e-7
0.133, -1.897e-6, -1.072e-6, 8.242e-7
0.132, -1.901e-6, -1.074e-6, 8.275e-7
0.131, -1.904e-6, -1.076e-6, 8.281e-7
0.130, -1.908e-6, -1.080e-6, 8.284e-7
0.129, -1.915e-6, -1.083e-6, 8.315e-7
0.128, -1.915e-6, -1.082e-6, 8.333e-7
0.127, -1.923e-6, -1.088e-6, 8.349e-7
0.126, -1.930e-6, -1.090e-6, 8.397e-7
0.125, -1.930e-6, -1.091e-6, 8.388e-7
0.124, -1.939e-6, -1.098e-6, 8.407e-7
0.123, -1.942e-6, -1.099e-6, 8.428e-7
0.122, -1.946e-6, -1.102e-6, 8.443e-7
0.121, -1.951e-6, -1.105e-6, 8.458e-7
0.120, -1.956e-6, -1.106e-6, 8.501e-7
0.119, -1.961e-6, -1.111e-6, 8.504e-7
0.118, -1.969e-6, -1.115e-6, 8.541e-7
0.117, -1.973e-6, -1.117e-6, 8.568e-7
0.116, -1.976e-6, -1.118e-6, 8.574e-7
0.115, -1.984e-6, -1.123e-6, 8.605e-7
0.114, -1.987e-6, -1.124e-6, 8.629e-7
0.113, -1.992e-6, -1.128e-6, 8.642e-7
0.112, -2.001e-6, -1.133e-6, 8.675e-7
0.111, -2.003e-6, -1.134e-6, 8.690e-7
0.110, -2.007e-6, -1.137e-6, 8.700e-7
0.109, -2.013e-6, -1.139e-6, 8.736e-7
0.108, -2.017e-6, -1.142e-6, 8.745e-7
0.107, -2.024e-6, -1.149e-6, 8.757e-7
0.106, -2.032e-6, -1.150e-6, 8.819e-7
0.105, -2.034e-6, -1.151e-6, 8.828e-7
0.104, -2.041e-6, -1.157e-6, 8.843e-7
0.103, -2.050e-6, -1.161e-6, 8.898e-7
0.102, -2.050e-6, -1.161e-6, 8.895e-7
0.101, -2.058e-6, -1.168e-6, 8.895e-7
0.100, -2.064e-6, -1.169e-6, 8.953e-7
0.099, -2.068e-6, -1.171e-6, 8.968e-7
0.098, -2.072e-6, -1.175e-6, 8.971e-7
0.097, -2.079e-6, -1.178e-6, 9.017e-7
0.096, -2.083e-6, -1.181e-6, 9.026e-7
0.095, -2.092e-6, -1.187e-6, 9.057e-7
0.094, -2.097e-6, -1.187e-6, 9.099e-7
0.093, -2.099e-6, -1.189e-6, 9.102e-7
0.092, -2.105e-6, -1.194e-6, 9.108e-7
0.091, -2.114e-6, -1.197e-6, 9.169e-7
0.090, -2.116e-6, -1.197e-6, 9.185e-7
0.089, -2.123e-6, -1.203e-6, 9.200e-7
0.088, -2.131e-6, -1.207e-6, 9.237e-7
0.087, -2.136e-6, -1.210e-6, 9.264e-7
0.086, -2.143e-6, -1.215e-6, 9.276e-7
0.085, -2.147e-6, -1.215e-6, 9.313e-7
0.084, -2.152e-6, -1.219e-6, 9.334e-7
0.083, -2.159e-6, -1.223e-6, 9.356e-7
0.082, -2.164e-6, -1.226e-6, 9.380e-7
0.081, -2.170e-6, -1.229e-6, 9.407e-7
0.080, -2.177e-6, -1.232e-6, 9.447e-7
0.079, -2.180e-6, -1.235e-6, 9.444e-7
0.078, -2.189e-6, -1.239e-6, 9.496e-7
0.077, -2.193e-6, -1.242e-6, 9.511e-7
0.076, -2.198e-6, -1.244e-6, 9.539e-7
0.075, -2.206e-6, -1.249e-6, 9.572e-7
0.074, -2.214e-6, -1.252e-6, 9.621e-7
0.073, -2.218e-6, -1.255e-6, 9.627e-7
0.072, -2.224e-6, -1.258e-6, 9.658e-7
0.071, -2.230e-6, -1.260e-6, 9.697e-7
0.070, -2.234e-6, -1.265e-6, 9.688e-7
0.069, -2.244e-6, -1.271e-6, 9.737e-7
0.068, -2.245e-6, -1.270e-6, 9.758e-7
0.067, -2.252e-6, -1.274e-6, 9.783e-7
0.066, -2.260e-6, -1.279e-6, 9.810e-7
0.065, -2.265e-6, -1.280e-6, 9.850e-7
0.064, -2.269e-6, -1.283e-6, 9.865e-7
0.063, -2.278e-6, -1.288e-6, 9.896e-7
0.062, -2.279e-6, -1.287e-6, 9.923e-7
0.061, -2.288e-6, -1.295e-6, 9.932e-7
0.060, -2.296e-6, -1.298e-6, 9.975e-7
0.059, -2.298e-6, -1.297e-6, 1.001e-6
0.058, -2.305e-6, -1.304e-6, 1.001e-6
0.057, -2.311e-6, -1.306e-6, 1.006e-6
0.056, -2.316e-6, -1.309e-6, 1.008e-6
0.055, -2.323e-6, -1.313e-6, 1.010e-6
0.054, -2.329e-6, -1.314e-6, 1.015e-6
0.053, -2.333e-6, -1.317e-6, 1.016e-6
0.052, -2.339e-6, -1.321e-6, 1.018e-6
0.051, -2.346e-6, -1.324e-6, 1.022e-6
0.050, -2.348e-6, -1.325e-6, 1.023e-6
0.049, -2.355e-6, -1.331e-6, 1.024e-6
0.048, -2.363e-6, -1.330e-6, 1.033e-6
0.047, -2.369e-6, -1.336e-6, 1.033e-6
0.046, -2.374e-6, -1.339e-6, 1.034e-6
0.045, -2.378e-6, -1.339e-6, 1.039e-6
0.044, -2.381e-6, -1.342e-6, 1.038e-6
0.043, -2.391e-6, -1.348e-6, 1.043e-6
0.042, -2.398e-6, -1.349e-6, 1.048e-6
0.041, -2.398e-6, -1.352e-6, 1.046e-6
0.040, -2.409e-6, -1.358e-6, 1.051e-6
0.039, -2.414e-6, -1.358e-6, 1.057e-6
0.038, -2.416e-6, -1.361e-6, 1.055e-6
0.037, -2.425e-6, -1.366e-6, 1.059e-6
0.036, -2.428e-6, -1.364e-6, 1.064e-6
0.035, -2.434e-6, -1.369e-6, 1.065e-6
0.034, -2.439e-6, -1.372e-6, 1.067e-6
0.033, -2.444e-6, -1.373e-6, 1.071e-6
0.032, -2.447e-6, -1.375e-6, 1.072e-6
0.031, -2.456e-6, -1.380e-6, 1.076e-6
0.030, -2.461e-6, -1.382e-6, 1.079e-6
0.029, -2.464e-6, -1.384e-6, 1.080e-6
0.028, -2.471e-6, -1.386e-6, 1.086e-6
0.027, -2.476e-6, -1.389e-6, 1.087e-6
0.026, -2.477e-6, -1.390e-6, 1.086e-6
0.025, -2.485e-6, -1.393e-6, 1.091e-6
0.024, -2.489e-6, -1.395e-6, 1.094e-6
0.023, -2.493e-6, -1.398e-6, 1.095e-6
0.022, -2.500e-6, -1.399e-6, 1.101e-6
0.021, -2.505e-6, -1.404e-6, 1.101e-6
0.020, -2.509e-6, -1.404e-6, 1.104e-6
0.019, -2.512e-6, -1.406e-6, 1.107e-6
0.018, -2.516e-6, -1.408e-6, 1.108e-6
0.017, -2.526e-6, -1.413e-6, 1.113e-6
0.016, -2.529e-6, -1.415e-6, 1.114e-6
0.015, -2.535e-6, -1.417e-6, 1.118e-6
0.014, -2.538e-6, -1.419e-6, 1.119e-6
0.013, -2.540e-6, -1.420e-6, 1.121e-6
0.012, -2.547e-6, -1.422e-6, 1.125e-6
0.011, -2.552e-6, -1.425e-6, 1.128e-6
0.010, -2.554e-6, -1.425e-6, 1.128e-6
0.009, -2.557e-6, -1.428e-6, 1.130e-6
0.008, -2.564e-6, -1.429e-6, 1.135e-6
0.007, -2.568e-6, -1.431e-6, 1.137e-6
0.006, -2.571e-6, -1.433e-6, 1.137e-6
0.005, -2.578e-6, -1.435e-6, 1.143e-6
0.004, -2.581e-6, -1.436e-6, 1.144e-6
0.003, -2.587e-6, -1.440e-6, 1.147e-6
0.002, -2.591e-6, -1.441e-6, 1.151e-6
0.001, -2.591e-6, -1.440e-6, 1.151e-6
0.000, -2.601e-6, -1.447e-6, 1.154e-6
-0.001, -2.602e-6, -1.444e-6, 1.158e-6
-0.002, -2.606e-6, -1.449e-6, 1.157e-6
-0.003, -2.609e-6, -1.448e-6, 1.160e-6
-0.004, -2.615e-6, -1.449e-6, 1.166e-6
-0.005, -2.616e-6, -1.451e-6, 1.165e-6
-0.006, -2.623e-6, -1.455e-6, 1.168e-6
-0.007, -2.626e-6, -1.455e-6, 1.171e-6
-0.008, -2.629e-6, -1.458e-6, 1.171e-6
-0.009, -2.638e-6, -1.461e-6, 1.178e-6
-0.010, -2.636e-6, -1.457e-6, 1.179e-6
-0.011, -2.639e-6, -1.461e-6, 1.178e-6
-0.012, -2.644e-6, -1.463e-6, 1.181e-6
-0.013, -2.646e-6, -1.461e-6, 1.185e-6
-0.014, -2.652e-6, -1.466e-6, 1.186e-6
-0.015, -2.656e-6, -1.466e-6, 1.190e-6
-0.016, -2.657e-6, -1.465e-6, 1.192e-6
-0.017, -2.662e-6, -1.470e-6, 1.192e-6
-0.018, -2.666e-6, -1.469e-6, 1.196e-6
-0.019, -2.665e-6, -1.467e-6, 1.198e-6
-0.020, -2.671e-6, -1.472e-6, 1.199e-6
-0.021, -2.675e-6, -1.471e-6, 1.204e-6
-0.022, -2.673e-6, -1.470e-6, 1.203e-6
-0.023, -2.678e-6, -1.474e-6, 1.204e-6
-0.024, -2.682e-6, -1.475e-6, 1.207e-6
-0.025, -2.686e-6, -1.475e-6, 1.211e-6
-0.026, -2.689e-6, -1.479e-6, 1.211e-6
-0.027, -2.693e-6, -1.477e-6, 1.216e-6
-0.028, -2.691e-6, -1.476e-6, 1.215e-6
-0.029, -2.695e-6, -1.479e-6, 1.215e-6
-0.030, -2.700e-6, -1.479e-6, 1.221e-6
-0.031, -2.700e-6, -1.478e-6, 1.222e-6
-0.032, -2.703e-6, -1.481e-6, 1.222e-6
-0.033, -2.704e-6, -1.480e-6, 1.224e-6
-0.034, -2.708e-6, -1.481e-6, 1.227e-6
-0.035, -2.713e-6, -1.483e-6, 1.231e-6
-0.036, -2.711e-6, -1.480e-6, 1.231e-6
-0.037, -2.712e-6, -1.482e-6, 1.230e-6
-0.038, -2.717e-6, -1.483e-6, 1.234e-6
-0.039, -2.719e-6, -1.483e-6, 1.236e-6
-0.040, -2.721e-6, -1.485e-6, 1.236e-6
-0.041, -2.723e-6, -1.483e-6, 1.240e-6
-0.042, -2.723e-6, -1.483e-6, 1.240e-6
-0.043, -2.725e-6, -1.484e-6, 1.241e-6
-0.044, -2.727e-6, -1.483e-6, 1.244e-6
-0.045, -2.729e-6, -1.485e-6, 1.244e-6
-0.046, -2.732e-6, -1.486e-6, 1.246e-6
-0.047, -2.731e-6, -1.483e-6, 1.247e-6
-0.048, -2.734e-6, -1.484e-6, 1.249e-6
-0.049, -2.736e-6, -1.485e-6, 1.251e-6
-0.050, -2.735e-6, -1.483e-6, 1.251e-6
-0.051, -2.735e-6, -1.483e-6, 1.253e-6
-0.052, -2.738e-6, -1.484e-6, 1.255e-6
-0.053, -2.738e-6, -1.482e-6, 1.256e-6
-0.054, -2.741e-6, -1.485e-6, 1.256e-6
-0.055, -2.741e-6, -1.484e-6, 1.257e-6
-0.056, -2.743e-6, -1.482e-6, 1.261e-6
-0.057, -2.741e-6, -1.482e-6, 1.259e-6
-0.058, -2.746e-6, -1.484e-6, 1.261e-6
-0.059, -2.745e-6, -1.480e-6, 1.265e-6
-0.060, -2.741e-6, -1.480e-6, 1.261e-6
-0.061, -2.743e-6, -1.479e-6, 1.264e-6
-0.062, -2.742e-6, -1.476e-6, 1.266e-6
-0.063, -2.746e-6, -1.479e-6, 1.267e-6
-0.064, -2.745e-6, -1.477e-6, 1.268e-6
-0.065, -2.742e-6, -1.475e-6, 1.267e-6
-0.066, -2.747e-6, -1.479e-6, 1.268e-6
-0.067, -2.747e-6, -1.477e-6, 1.271e-6
-0.068, -2.745e-6, -1.475e-6, 1.270e-6
-0.069, -2.746e-6, -1.476e-6, 1.270e-6
-0.070, -2.746e-6, -1.474e-6, 1.272e-6
-0.071, -2.744e-6, -1.472e-6, 1.272e-6
-0.072, -2.746e-6, -1.474e-6, 1.272e-6
-0.073, -2.743e-6, -1.469e-6, 1.274e-6
-0.074, -2.743e-6, -1.470e-6, 1.273e-6
-0.075, -2.745e-6, -1.470e-6, 1.275e-6
-0.076, -2.745e-6, -1.466e-6, 1.279e-6
-0.077, -2.739e-6, -1.465e-6, 1.274e-6
-0.078, -2.741e-6, -1.466e-6, 1.276e-6
-0.079, -2.741e-6, -1.462e-6, 1.279e-6
-0.080, -2.738e-6, -1.462e-6, 1.276e-6
-0.081, -2.738e-6, -1.462e-6, 1.276e-6
-0.082, -2.736e-6, -1.457e-6, 1.279e-6
-0.083, -2.737e-6, -1.460e-6, 1.277e-6
-0.084, -2.737e-6, -1.458e-6, 1.278e-6
-0.085, -2.735e-6, -1.455e-6, 1.281e-6
-0.086, -2.731e-6, -1.455e-6, 1.276e-6
-0.087, -2.733e-6, -1.454e-6, 1.279e-6
-0.088, -2.731e-6, -1.452e-6, 1.279e-6
-0.089, -2.728e-6, -1.450e-6, 1.278e-6
-0.090, -2.732e-6, -1.452e-6, 1.280e-6
-0.091, -2.728e-6, -1.447e-6, 1.280e-6
-0.092, -2.727e-6, -1.448e-6, 1.279e-6
-0.093, -2.725e-6, -1.446e-6, 1.279e-6
-0.094, -2.723e-6, -1.443e-6, 1.280e-6
-0.095, -2.721e-6, -1.441e-6, 1.280e-6
-0.096, -2.722e-6, -1.441e-6, 1.281e-6
-0.097, -2.717e-6, -1.439e-6, 1.279e-6
-0.098, -2.716e-6, -1.437e-6, 1.279e-6
-0.099, -2.717e-6, -1.436e-6, 1.282e-6
-0.100, -2.713e-6, -1.433e-6, 1.279e-6
-0.101, -2.712e-6, -1.433e-6, 1.279e-6
-0.102, -2.709e-6, -1.430e-6, 1.279e-6
-0.103, -2.705e-6, -1.429e-6, 1.276e-6
-0.104, -2.705e-6, -1.427e-6, 1.278e-6
-0.105, -2.703e-6, -1.425e-6, 1.278e-6
-0.106, -2.701e-6, -1.424e-6, 1.277e-6
-0.107, -2.700e-6, -1.422e-6, 1.278e-6
-0.108, -2.694e-6, -1.418e-6, 1.276e-6
-0.109, -2.695e-6, -1.420e-6, 1.275e-6
-0.110, -2.691e-6, -1.416e-6, 1.275e-6
-0.111, -2.689e-6, -1.414e-6, 1.275e-6
-0.112, -2.689e-6, -1.415e-6, 1.274e-6
-0.113, -2.687e-6, -1.411e-6, 1.276e-6
-0.114, -2.680e-6, -1.407e-6, 1.273e-6
-0.115, -2.680e-6, -1.408e-6, 1.272e-6
-0.116, -2.681e-6, -1.406e-6, 1.274e-6
-0.117, -2.676e-6, -1.405e-6, 1.271e-6
-0.118, -2.672e-6, -1.400e-6, 1.272e-6
-0.119, -2.672e-6, -1.400e-6, 1.272e-6
-0.120, -2.667e-6, -1.396e-6, 1.271e-6
-0.121, -2.666e-6, -1.398e-6, 1.268e-6
-0.122, -2.663e-6, -1.393e-6, 1.270e-6
-0.123, -2.659e-6, -1.392e-6, 1.267e-6
-0.124, -2.659e-6, -1.390e-6, 1.268e-6
-0.125, -2.656e-6, -1.388e-6, 1.268e-6
-0.126, -2.652e-6, -1.387e-6, 1.265e-6
-0.127, -2.655e-6, -1.388e-6, 1.267e-6
-0.128, -2.651e-6, -1.382e-6, 1.268e-6
-0.129, -2.643e-6, -1.381e-6, 1.262e-6
-0.130, -2.645e-6, -1.381e-6, 1.265e-6
-0.131, -2.641e-6, -1.376e-6, 1.265e-6
-0.132, -2.638e-6, -1.376e-6, 1.261e-6
-0.133, -2.641e-6, -1.377e-6, 1.264e-6
-0.134, -2.632e-6, -1.371e-6, 1.261e-6
-0.135, -2.632e-6, -1.372e-6, 1.260e-6
-0.136, -2.631e-6, -1.370e-6, 1.261e-6
-0.137, -2.624e-6, -1.365e-6, 1.259e-6
-0.138, -2.624e-6, -1.368e-6, 1.256e-6
-0.139, -2.621e-6, -1.364e-6, 1.257e-6
-0.140, -2.618e-6, -1.361e-6, 1.257e-6
-0.141, -2.616e-6, -1.363e-6, 1.253e-6
-0.142, -2.615e-6, -1.360e-6, 1.255e-6
-0.143, -2.610e-6, -1.357e-6, 1.253e-6
-0.144, -2.606e-6, -1.356e-6, 1.250e-6
-0.145, -2.605e-6, -1.352e-6, 1.253e-6
-0.146, -2.602e-6, -1.352e-6, 1.250e-6
-0.147, -2.599e-6, -1.352e-6, 1.247e-6
-0.148, -2.597e-6, -1.348e-6, 1.249e-6
-0.149, -2.595e-6, -1.347e-6, 1.248e-6
-0.150, -2.592e-6, -1.347e-6, 1.245e-6
-0.151, -2.589e-6, -1.343e-6, 1.246e-6
-0.152, -2.585e-6, -1.342e-6, 1.242e-6
-0.153, -2.581e-6, -1.340e-6, 1.242e-6
-0.154, -2.579e-6, -1.337e-6, 1.243e-6
-0.155, -2.577e-6, -1.338e-6, 1.240e-6
-0.156, -2.573e-6, -1.334e-6, 1.239e-6
-0.157, -2.573e-6, -1.334e-6, 1.239e-6
-0.158, -2.565e-6, -1.329e-6, 1.236e-6
-0.159, -2.567e-6, -1.329e-6, 1.237e-6
-0.160, -2.561e-6, -1.328e-6, 1.233e-6
-0.161, -2.559e-6, -1.327e-6, 1.232e-6
-0.162, -2.560e-6, -1.327e-6, 1.232e-6
-0.163, -2.554e-6, -1.323e-6, 1.232e-6
-0.164, -2.555e-6, -1.324e-6, 1.231e-6
-0.165, -2.549e-6, -1.319e-6, 1.230e-6
-0.166, -2.547e-6, -1.319e-6, 1.228e-6
-0.167, -2.547e-6, -1.320e-6, 1.227e-6
-0.168, -2.543e-6, -1.315e-6, 1.228e-6
-0.169, -2.539e-6, -1.315e-6, 1.224e-6
-0.170, -2.536e-6, -1.313e-6, 1.223e-6
-0.171, -2.534e-6, -1.312e-6, 1.222e-6
-0.172, -2.529e-6, -1.309e-6, 1.220e-6
-0.173, -2.532e-6, -1.310e-6, 1.222e-6
-0.174, -2.525e-6, -1.306e-6, 1.219e-6
-0.175, -2.524e-6, -1.307e-6, 1.217e-6
-0.176, -2.525e-6, -1.306e-6, 1.218e-6
-0.177, -2.518e-6, -1.302e-6, 1.217e-6
-0.178, -2.514e-6, -1.301e-6, 1.213e-6
-0.179, -2.511e-6, -1.298e-6, 1.213e-6
-0.180, -2.507e-6, -1.297e-6, 1.210e-6
-0.181, -2.508e-6, -1.297e-6, 1.211e-6
-0.182, -2.505e-6, -1.296e-6, 1.208e-6
-0.183, -2.502e-6, -1.295e-6, 1.207e-6
-0.184, -2.503e-6, -1.298e-6, 1.205e-6
-0.185, -2.500e-6, -1.292e-6, 1.207e-6
-0.186, -2.494e-6, -1.289e-6, 1.205e-6
-0.187, -2.494e-6, -1.292e-6, 1.202e-6
-0.188, -2.489e-6, -1.287e-6, 1.201e-6
-0.189, -2.486e-6, -1.286e-6, 1.200e-6
-0.190, -2.486e-6, -1.288e-6, 1.197e-6
-0.191, -2.483e-6, -1.284e-6, 1.199e-6
-0.192, -2.478e-6, -1.283e-6, 1.196e-6
-0.193, -2.474e-6, -1.281e-6, 1.192e-6
-0.194, -2.475e-6, -1.280e-6, 1.194e-6
-0.195, -2.470e-6, -1.278e-6, 1.192e-6
-0.196, -2.469e-6, -1.278e-6, 1.191e-6
-0.197, -2.463e-6, -1.274e-6, 1.189e-6
-0.198, -2.460e-6, -1.273e-6, 1.187e-6
-0.199, -2.460e-6, -1.273e-6, 1.186e-6
-0.200, -2.459e-6, -1.272e-6, 1.187e-6
-0.201, -2.451e-6, -1.270e-6, 1.181e-6
-0.202, -2.457e-6, -1.276e-6, 1.182e-6
-0.203, -2.449e-6, -1.266e-6, 1.182e-6
-0.204, -2.444e-6, -1.265e-6, 1.179e-6
-0.205, -2.445e-6, -1.266e-6, 1.178e-6
-0.206, -2.444e-6, -1.266e-6, 1.178e-6
-0.207, -2.438e-6, -1.263e-6, 1.174e-6
-0.208, -2.435e-6, -1.261e-6, 1.174e-6
-0.209, -2.437e-6, -1.260e-6, 1.176e-6
-0.210, -2.429e-6, -1.259e-6, 1.170e-6
-0.211, -2.428e-6, -1.256e-6, 1.171e-6
-0.212, -2.424e-6, -1.255e-6, 1.169e-6
-0.213, -2.428e-6, -1.260e-6, 1.168e-6
-0.214, -2.423e-6, -1.258e-6, 1.165e-6
-0.215, -2.426e-6, -1.259e-6, 1.167e-6
-0.216, -2.414e-6, -1.251e-6, 1.163e-6
-0.217, -2.418e-6, -1.255e-6, 1.164e-6
-0.218, -2.414e-6, -1.252e-6, 1.162e-6
-0.219, -2.411e-6, -1.250e-6, 1.161e-6
-0.220, -2.410e-6, -1.253e-6, 1.157e-6
-0.221, -2.407e-6, -1.248e-6, 1.159e-6
-0.222, -2.406e-6, -1.250e-6, 1.156e-6
-0.223, -2.399e-6, -1.246e-6, 1.153e-6
-0.224, -2.400e-6, -1.248e-6, 1.153e-6
-0.225, -2.396e-6, -1.244e-6, 1.152e-6
-0.226, -2.394e-6, -1.243e-6, 1.151e-6
-0.227, -2.395e-6, -1.246e-6, 1.150e-6
-0.228, -2.397e-6, -1.248e-6, 1.149e-6
-0.229, -2.392e-6, -1.245e-6, 1.147e-6
-0.230, -2.388e-6, -1.242e-6, 1.146e-6
-0.231, -2.385e-6, -1.240e-6, 1.145e-6
-0.232, -2.379e-6, -1.237e-6, 1.142e-6
-0.233, -2.388e-6, -1.244e-6, 1.144e-6
-0.234, -2.377e-6, -1.236e-6, 1.141e-6
-0.235, -2.373e-6, -1.235e-6, 1.138e-6
-0.236, -2.375e-6, -1.236e-6, 1.138e-6
-0.237, -2.373e-6, -1.234e-6, 1.138e-6
-0.238, -2.373e-6, -1.234e-6, 1.138e-6
-0.239, -2.374e-6, -1.239e-6, 1.135e-6
-0.240, -2.367e-6, -1.230e-6, 1.137e-6
-0.241, -2.365e-6, -1.233e-6, 1.132e-6
-0.242, -2.366e-6, -1.233e-6, 1.133e-6
-0.243, -2.365e-6, -1.232e-6, 1.133e-6
-0.244, -2.359e-6, -1.229e-6, 1.130e-6
-0.245, -2.359e-6, -1.230e-6, 1.130e-6
-0.246, -2.358e-6, -1.229e-6, 1.129e-6
-0.247, -2.356e-6, -1.230e-6, 1.127e-6
-0.248, -2.364e-6, -1.236e-6, 1.128e-6
-0.249, -2.355e-6, -1.228e-6, 1.127e-6
-0.250, -2.352e-6, -1.228e-6, 1.124e-6
-0.251, -2.354e-6, -1.228e-6, 1.126e-6
-0.252, -2.350e-6, -1.226e-6, 1.124e-6
-0.253, -2.350e-6, -1.229e-6, 1.120e-6
-0.254, -2.349e-6, -1.227e-6, 1.122e-6
-0.255, -2.344e-6, -1.224e-6, 1.120e-6
-0.256, -2.341e-6, -1.223e-6, 1.119e-6
-0.257, -2.344e-6, -1.224e-6, 1.120e-6
-0.258, -2.341e-6, -1.223e-6, 1.118e-6
-0.259, -2.340e-6, -1.224e-6, 1.116e-6
-0.260, -2.338e-6, -1.222e-6, 1.116e-6
-0.261, -2.336e-6, -1.222e-6, 1.115e-6
-0.262, -2.336e-6, -1.223e-6, 1.112e-6
-0.263, -2.334e-6, -1.220e-6, 1.113e-6
-0.264, -2.331e-6, -1.219e-6, 1.112e-6
-0.265, -2.331e-6, -1.220e-6, 1.111e-6
-0.266, -2.331e-6, -1.219e-6, 1.112e-6
-0.267, -2.330e-6, -1.220e-6, 1.110e-6
-0.268, -2.336e-6, -1.226e-6, 1.110e-6
-0.269, -2.334e-6, -1.223e-6, 1.111e-6
-0.270, -2.325e-6, -1.218e-6, 1.107e-6
-0.271, -2.327e-6, -1.219e-6, 1.107e-6
-0.272, -2.326e-6, -1.219e-6, 1.107e-6
-0.273, -2.323e-6, -1.218e-6, 1.105e-6
-0.274, -2.319e-6, -1.217e-6, 1.102e-6
-0.275, -2.322e-6, -1.217e-6, 1.105e-6
-0.276, -2.317e-6, -1.215e-6, 1.102e-6
-0.277, -2.318e-6, -1.216e-6, 1.102e-6
-0.278, -2.319e-6, -1.217e-6, 1.102e-6
-0.279, -2.315e-6, -1.214e-6, 1.101e-6
-0.280, -2.317e-6, -1.217e-6, 1.100e-6
-0.281, -2.313e-6, -1.213e-6, 1.100e-6
-0.282, -2.314e-6, -1.217e-6, 1.097e-6
-0.283, -2.312e-6, -1.213e-6, 1.099e-6
-0.284, -2.314e-6, -1.215e-6, 1.099e-6
-0.285, -2.310e-6, -1.215e-6, 1.095e-6
-0.286, -2.308e-6, -1.212e-6, 1.096e-6
-0.287, -2.308e-6, -1.212e-6, 1.095e-6
-0.288, -2.309e-6, -1.213e-6, 1.095e-6
-0.289, -2.309e-6, -1.213e-6, 1.096e-6
-0.290, -2.307e-6, -1.214e-6, 1.093e-6
-0.291, -2.307e-6, -1.213e-6, 1.094e-6
-0.292, -2.302e-6, -1.207e-6, 1.095e-6
-0.293, -2.305e-6, -1.214e-6, 1.091e-6
-0.294, -2.302e-6, -1.209e-6, 1.092e-6
-0.295, -2.302e-6, -1.210e-6, 1.092e-6
-0.296, -2.301e-6, -1.211e-6, 1.090e-6
-0.297, -2.303e-6, -1.212e-6, 1.091e-6
-0.298, -2.299e-6, -1.208e-6, 1.091e-6
-0.299, -2.297e-6, -1.208e-6, 1.089e-6
-0.300, -2.299e-6, -1.210e-6, 1.089e-6
-0.301, -2.297e-6, -1.208e-6, 1.088e-6
-0.302, -2.299e-6, -1.213e-6, 1.086e-6
-0.303, -2.297e-6, -1.208e-6, 1.088e-6
-0.304, -2.295e-6, -1.208e-6, 1.088e-6
-0.305, -2.299e-6, -1.214e-6, 1.085e-6
-0.306, -2.296e-6, -1.211e-6, 1.086e-6
-0.307, -2.292e-6, -1.208e-6, 1.084e-6
-0.308, -2.293e-6, -1.210e-6, 1.083e-6
-0.309, -2.291e-6, -1.206e-6, 1.085e-6
-0.310, -2.291e-6, -1.208e-6, 1.083e-6
-0.311, -2.290e-6, -1.210e-6, 1.080e-6
-0.312, -2.290e-6, -1.207e-6, 1.083e-6
-0.313, -2.284e-6, -1.205e-6, 1.079e-6
-0.314, -2.288e-6, -1.208e-6, 1.081e-6
-0.315, -2.289e-6, -1.208e-6, 1.081e-6
-0.316, -2.284e-6, -1.206e-6, 1.078e-6
-0.317, -2.289e-6, -1.210e-6, 1.080e-6
-0.318, -2.287e-6, -1.206e-6, 1.080e-6
-0.319, -2.283e-6, -1.208e-6, 1.076e-6
-0.320, -2.284e-6, -1.207e-6, 1.077e-6
-0.321, -2.284e-6, -1.205e-6, 1.079e-6
-0.322, -2.282e-6, -1.207e-6, 1.074e-6
-0.323, -2.282e-6, -1.206e-6, 1.076e-6
-0.324, -2.280e-6, -1.202e-6, 1.078e-6
-0.325, -2.277e-6, -1.203e-6, 1.074e-6
-0.326, -2.280e-6, -1.207e-6, 1.073e-6
-0.327, -2.279e-6, -1.205e-6, 1.074e-6
-0.328, -2.276e-6, -1.204e-6, 1.072e-6
-0.329, -2.274e-6, -1.202e-6, 1.072e-6
-0.330, -2.273e-6, -1.201e-6, 1.071e-6
-0.331, -2.273e-6, -1.203e-6, 1.070e-6
-0.332, -2.276e-6, -1.205e-6, 1.070e-6
-0.333, -2.271e-6, -1.201e-6, 1.070e-6
-0.334, -2.276e-6, -1.207e-6, 1.070e-6
-0.335, -2.270e-6, -1.202e-6, 1.068e-6
-0.336, -2.271e-6, -1.203e-6, 1.069e-6
-0.337, -2.271e-6, -1.204e-6, 1.067e-6
-0.338, -2.268e-6, -1.201e-6, 1.067e-6
-0.339, -2.268e-6, -1.202e-6, 1.066e-6
-0.340, -2.273e-6, -1.207e-6, 1.066e-6
-0.341, -2.268e-6, -1.203e-6, 1.065e-6
-0.342, -2.265e-6, -1.203e-6, 1.062e-6
-0.343, -2.266e-6, -1.201e-6, 1.065e-6
-0.344, -2.266e-6, -1.201e-6, 1.065e-6
-0.345, -2.267e-6, -1.204e-6, 1.063e-6
-0.346, -2.266e-6, -1.205e-6, 1.061e-6
-0.347, -2.265e-6, -1.203e-6, 1.062e-6
-0.348, -2.259e-6, -1.199e-6, 1.060e-6
-0.349, -2.260e-6, -1.200e-6, 1.060e-6
-0.350, -2.258e-6, -1.199e-6, 1.059e-6
-0.351, -2.264e-6, -1.205e-6, 1.059e-6
-0.352, -2.262e-6, -1.203e-6, 1.059e-6
-0.353, -2.262e-6, -1.202e-6, 1.060e-6
-0.354, -2.260e-6, -1.204e-6, 1.056e-6
-0.355, -2.254e-6, -1.197e-6, 1.057e-6
-0.356, -2.255e-6, -1.200e-6, 1.055e-6
-0.357, -2.259e-6, -1.204e-6, 1.055e-6
-0.358, -2.258e-6, -1.203e-6, 1.055e-6
-0.359, -2.252e-6, -1.199e-6, 1.053e-6
-0.360, -2.253e-6, -1.200e-6, 1.053e-6
-0.361, -2.256e-6, -1.202e-6, 1.054e-6
-0.362, -2.256e-6, -1.203e-6, 1.053e-6
-0.363, -2.253e-6, -1.202e-6, 1.051e-6
-0.364, -2.256e-6, -1.203e-6, 1.053e-6
-0.365, -2.247e-6, -1.198e-6, 1.049e-6
-0.366, -2.252e-6, -1.202e-6, 1.050e-6
-0.367, -2.253e-6, -1.202e-6, 1.051e-6
-0.368, -2.249e-6, -1.202e-6, 1.047e-6
-0.369, -2.254e-6, -1.204e-6, 1.051e-6
-0.370, -2.253e-6, -1.204e-6, 1.050e-6
-0.371, -2.249e-6, -1.204e-6, 1.045e-6
-0.372, -2.248e-6, -1.201e-6, 1.047e-6
-0.373, -2.250e-6, -1.204e-6, 1.046e-6
-0.374, -2.249e-6, -1.205e-6, 1.045e-6
-0.375, -2.247e-6, -1.202e-6, 1.044e-6
-0.376, -2.246e-6, -1.202e-6, 1.044e-6
-0.377, -2.253e-6, -1.211e-6, 1.042e-6
-0.378, -2.249e-6, -1.205e-6, 1.044e-6
-0.379, -2.246e-6, -1.205e-6, 1.041e-6
-0.380, -2.246e-6, -1.205e-6, 1.041e-6
-0.381, -2.250e-6, -1.208e-6, 1.042e-6
-0.382, -2.251e-6, -1.209e-6, 1.041e-6
-0.383, -2.249e-6, -1.211e-6, 1.038e-6
-0.384, -2.247e-6, -1.208e-6, 1.039e-6
-0.385, -2.240e-6, -1.203e-6, 1.037e-6
-0.386, -2.246e-6, -1.208e-6, 1.037e-6
-0.387, -2.248e-6, -1.210e-6, 1.038e-6
-0.388, -2.246e-6, -1.208e-6, 1.038e-6
-0.389, -2.245e-6, -1.211e-6, 1.034e-6
-0.390, -2.250e-6, -1.211e-6, 1.039e-6
-0.391, -2.246e-6, -1.212e-6, 1.035e-6
-0.392, -2.244e-6, -1.211e-6, 1.034e-6
-0.393, -2.246e-6, -1.212e-6, 1.034e-6
-0.394, -2.243e-6, -1.210e-6, 1.033e-6
-0.395, -2.246e-6, -1.213e-6, 1.033e-6
-0.396, -2.247e-6, -1.214e-6, 1.033e-6
-0.397, -2.245e-6, -1.215e-6, 1.030e-6
-0.398, -2.246e-6, -1.217e-6, 1.029e-6
-0.399, -2.246e-6, -1.216e-6, 1.031e-6
-0.400, -2.245e-6, -1.215e-6, 1.030e-6
