Mar. 20, 2018   15:44:30
Square Wave Voltammetry
File: c:\users\electrochemist\desktop\2018\20032018_unbufarray_unpap\56_g1_ph9,02_2.txt
Data Source:  Experiment
Instrument Model:  CHI1040A
Header: 
Note: 

Init E (V) = 0.7
Final E (V) = -0.4
Incr E (V) = 0.001
Amplitude (V) = 0.1
Frequency (Hz) = 152
Quiet Time (sec) = 2
Sensitivity (A/V) = 1e-6

Difference:

Forward:

Reverse:

Potential/V, Diff(i/A), For(i/A), Rev(i/A)

0.699, -9.753e-7, -2.536e-7, 7.217e-7
0.698, -1.147e-6, -5.020e-7, 6.448e-7
0.697, -1.139e-6, -5.170e-7, 6.222e-7
0.696, -1.136e-6, -5.249e-7, 6.115e-7
0.695, -1.135e-6, -5.268e-7, 6.078e-7
0.694, -1.123e-6, -5.240e-7, 5.990e-7
0.693, -1.122e-6, -5.289e-7, 5.935e-7
0.692, -1.118e-6, -5.258e-7, 5.923e-7
0.691, -1.117e-6, -5.271e-7, 5.895e-7
0.690, -1.114e-6, -5.292e-7, 5.846e-7
0.689, -1.110e-6, -5.280e-7, 5.822e-7
0.688, -1.104e-6, -5.255e-7, 5.788e-7
0.687, -1.105e-6, -5.307e-7, 5.746e-7
0.686, -1.104e-6, -5.289e-7, 5.755e-7
0.685, -1.098e-6, -5.268e-7, 5.712e-7
0.684, -1.099e-6, -5.292e-7, 5.697e-7
0.683, -1.095e-6, -5.277e-7, 5.669e-7
0.682, -1.093e-6, -5.274e-7, 5.654e-7
0.681, -1.094e-6, -5.313e-7, 5.624e-7
0.680, -1.089e-6, -5.277e-7, 5.614e-7
0.679, -1.082e-6, -5.252e-7, 5.569e-7
0.678, -1.082e-6, -5.280e-7, 5.541e-7
0.677, -1.086e-6, -5.283e-7, 5.575e-7
0.676, -1.081e-6, -5.274e-7, 5.538e-7
0.675, -1.082e-6, -5.289e-7, 5.532e-7
0.674, -1.076e-6, -5.255e-7, 5.502e-7
0.673, -1.075e-6, -5.274e-7, 5.474e-7
0.672, -1.074e-6, -5.268e-7, 5.468e-7
0.671, -1.073e-6, -5.264e-7, 5.465e-7
0.670, -1.071e-6, -5.277e-7, 5.437e-7
0.669, -1.067e-6, -5.271e-7, 5.401e-7
0.668, -1.068e-6, -5.264e-7, 5.413e-7
0.667, -1.066e-6, -5.268e-7, 5.392e-7
0.666, -1.067e-6, -5.268e-7, 5.401e-7
0.665, -1.061e-6, -5.252e-7, 5.355e-7
0.664, -1.064e-6, -5.283e-7, 5.361e-7
0.663, -1.064e-6, -5.280e-7, 5.361e-7
0.662, -1.060e-6, -5.252e-7, 5.349e-7
0.661, -1.060e-6, -5.280e-7, 5.315e-7
0.660, -1.062e-6, -5.264e-7, 5.352e-7
0.659, -1.056e-6, -5.268e-7, 5.294e-7
0.658, -1.057e-6, -5.264e-7, 5.309e-7
0.657, -1.057e-6, -5.271e-7, 5.303e-7
0.656, -1.054e-6, -5.277e-7, 5.267e-7
0.655, -1.055e-6, -5.298e-7, 5.248e-7
0.654, -1.055e-6, -5.268e-7, 5.282e-7
0.653, -1.049e-6, -5.264e-7, 5.227e-7
0.652, -1.052e-6, -5.277e-7, 5.248e-7
0.651, -1.053e-6, -5.277e-7, 5.251e-7
0.650, -1.051e-6, -5.286e-7, 5.221e-7
0.649, -1.052e-6, -5.295e-7, 5.230e-7
0.648, -1.048e-6, -5.268e-7, 5.215e-7
0.647, -1.044e-6, -5.280e-7, 5.163e-7
0.646, -1.048e-6, -5.280e-7, 5.199e-7
0.645, -1.045e-6, -5.268e-7, 5.178e-7
0.644, -1.045e-6, -5.292e-7, 5.154e-7
0.643, -1.046e-6, -5.283e-7, 5.178e-7
0.642, -1.045e-6, -5.277e-7, 5.169e-7
0.641, -1.042e-6, -5.286e-7, 5.129e-7
0.640, -1.045e-6, -5.280e-7, 5.166e-7
0.639, -1.040e-6, -5.274e-7, 5.126e-7
0.638, -1.041e-6, -5.283e-7, 5.129e-7
0.637, -1.043e-6, -5.280e-7, 5.154e-7
0.636, -1.041e-6, -5.295e-7, 5.114e-7
0.635, -1.041e-6, -5.295e-7, 5.111e-7
0.634, -1.040e-6, -5.277e-7, 5.120e-7
0.633, -1.036e-6, -5.280e-7, 5.077e-7
0.632, -1.040e-6, -5.310e-7, 5.086e-7
0.631, -1.039e-6, -5.268e-7, 5.123e-7
0.630, -1.038e-6, -5.298e-7, 5.077e-7
0.629, -1.039e-6, -5.301e-7, 5.086e-7
0.628, -1.037e-6, -5.271e-7, 5.102e-7
0.627, -1.033e-6, -5.289e-7, 5.044e-7
0.626, -1.038e-6, -5.316e-7, 5.065e-7
0.625, -1.034e-6, -5.261e-7, 5.083e-7
0.624, -1.033e-6, -5.301e-7, 5.029e-7
0.623, -1.037e-6, -5.316e-7, 5.050e-7
0.622, -1.033e-6, -5.271e-7, 5.062e-7
0.621, -1.030e-6, -5.280e-7, 5.016e-7
0.620, -1.036e-6, -5.295e-7, 5.068e-7
0.619, -1.034e-6, -5.292e-7, 5.047e-7
0.618, -1.033e-6, -5.310e-7, 5.022e-7
0.617, -1.031e-6, -5.289e-7, 5.025e-7
0.616, -1.030e-6, -5.271e-7, 5.025e-7
0.615, -1.034e-6, -5.325e-7, 5.010e-7
0.614, -1.033e-6, -5.310e-7, 5.016e-7
0.613, -1.033e-6, -5.289e-7, 5.038e-7
0.612, -1.029e-6, -5.292e-7, 4.998e-7
0.611, -1.031e-6, -5.298e-7, 5.007e-7
0.610, -1.030e-6, -5.298e-7, 4.998e-7
0.609, -1.031e-6, -5.319e-7, 4.989e-7
0.608, -1.031e-6, -5.310e-7, 4.995e-7
0.607, -1.028e-6, -5.295e-7, 4.986e-7
0.606, -1.032e-6, -5.325e-7, 4.992e-7
0.605, -1.030e-6, -5.301e-7, 4.998e-7
0.604, -1.030e-6, -5.322e-7, 4.974e-7
0.603, -1.033e-6, -5.344e-7, 4.983e-7
0.602, -1.026e-6, -5.286e-7, 4.974e-7
0.601, -1.031e-6, -5.338e-7, 4.971e-7
0.600, -1.028e-6, -5.316e-7, 4.961e-7
0.599, -1.026e-6, -5.307e-7, 4.955e-7
0.598, -1.032e-6, -5.344e-7, 4.977e-7
0.597, -1.027e-6, -5.319e-7, 4.946e-7
0.596, -1.026e-6, -5.325e-7, 4.931e-7
0.595, -1.030e-6, -5.329e-7, 4.967e-7
0.594, -1.032e-6, -5.338e-7, 4.980e-7
0.593, -1.028e-6, -5.344e-7, 4.940e-7
0.592, -1.032e-6, -5.350e-7, 4.967e-7
0.591, -1.032e-6, -5.350e-7, 4.974e-7
0.590, -1.029e-6, -5.335e-7, 4.955e-7
0.589, -1.030e-6, -5.353e-7, 4.946e-7
0.588, -1.027e-6, -5.319e-7, 4.946e-7
0.587, -1.029e-6, -5.359e-7, 4.928e-7
0.586, -1.028e-6, -5.359e-7, 4.919e-7
0.585, -1.033e-6, -5.380e-7, 4.952e-7
0.584, -1.028e-6, -5.344e-7, 4.934e-7
0.583, -1.031e-6, -5.374e-7, 4.931e-7
0.582, -1.032e-6, -5.362e-7, 4.958e-7
0.581, -1.027e-6, -5.350e-7, 4.922e-7
0.580, -1.030e-6, -5.387e-7, 4.913e-7
0.579, -1.030e-6, -5.356e-7, 4.946e-7
0.578, -1.030e-6, -5.371e-7, 4.928e-7
0.577, -1.033e-6, -5.383e-7, 4.949e-7
0.576, -1.033e-6, -5.387e-7, 4.943e-7
0.575, -1.030e-6, -5.393e-7, 4.906e-7
0.574, -1.032e-6, -5.387e-7, 4.934e-7
0.573, -1.029e-6, -5.377e-7, 4.910e-7
0.572, -1.031e-6, -5.399e-7, 4.906e-7
0.571, -1.034e-6, -5.402e-7, 4.943e-7
0.570, -1.029e-6, -5.383e-7, 4.910e-7
0.569, -1.034e-6, -5.423e-7, 4.922e-7
0.568, -1.035e-6, -5.417e-7, 4.937e-7
0.567, -1.032e-6, -5.399e-7, 4.919e-7
0.566, -1.035e-6, -5.441e-7, 4.910e-7
0.565, -1.035e-6, -5.408e-7, 4.943e-7
0.564, -1.034e-6, -5.414e-7, 4.925e-7
0.563, -1.038e-6, -5.454e-7, 4.931e-7
0.562, -1.038e-6, -5.432e-7, 4.952e-7
0.561, -1.031e-6, -5.417e-7, 4.897e-7
0.560, -1.039e-6, -5.460e-7, 4.931e-7
0.559, -1.040e-6, -5.441e-7, 4.955e-7
0.558, -1.037e-6, -5.448e-7, 4.919e-7
0.557, -1.039e-6, -5.466e-7, 4.922e-7
0.556, -1.042e-6, -5.463e-7, 4.958e-7
0.555, -1.038e-6, -5.445e-7, 4.934e-7
0.554, -1.041e-6, -5.472e-7, 4.940e-7
0.553, -1.042e-6, -5.481e-7, 4.940e-7
0.552, -1.038e-6, -5.463e-7, 4.922e-7
0.551, -1.043e-6, -5.499e-7, 4.928e-7
0.550, -1.040e-6, -5.469e-7, 4.931e-7
0.549, -1.043e-6, -5.490e-7, 4.940e-7
0.548, -1.042e-6, -5.487e-7, 4.931e-7
0.547, -1.044e-6, -5.481e-7, 4.955e-7
0.546, -1.042e-6, -5.499e-7, 4.922e-7
0.545, -1.045e-6, -5.506e-7, 4.946e-7
0.544, -1.044e-6, -5.502e-7, 4.937e-7
0.543, -1.046e-6, -5.506e-7, 4.955e-7
0.542, -1.049e-6, -5.530e-7, 4.955e-7
0.541, -1.050e-6, -5.533e-7, 4.964e-7
0.540, -1.049e-6, -5.530e-7, 4.958e-7
0.539, -1.051e-6, -5.527e-7, 4.980e-7
0.538, -1.049e-6, -5.530e-7, 4.961e-7
0.537, -1.050e-6, -5.560e-7, 4.937e-7
0.536, -1.052e-6, -5.545e-7, 4.971e-7
0.535, -1.050e-6, -5.548e-7, 4.949e-7
0.534, -1.056e-6, -5.582e-7, 4.974e-7
0.533, -1.052e-6, -5.554e-7, 4.967e-7
0.532, -1.054e-6, -5.588e-7, 4.949e-7
0.531, -1.055e-6, -5.582e-7, 4.971e-7
0.530, -1.055e-6, -5.579e-7, 4.971e-7
0.529, -1.056e-6, -5.591e-7, 4.964e-7
0.528, -1.057e-6, -5.594e-7, 4.974e-7
0.527, -1.057e-6, -5.588e-7, 4.980e-7
0.526, -1.056e-6, -5.600e-7, 4.958e-7
0.525, -1.061e-6, -5.631e-7, 4.980e-7
0.524, -1.058e-6, -5.597e-7, 4.986e-7
0.523, -1.059e-6, -5.612e-7, 4.977e-7
0.522, -1.061e-6, -5.622e-7, 4.992e-7
0.521, -1.062e-6, -5.606e-7, 5.016e-7
0.520, -1.057e-6, -5.628e-7, 4.946e-7
0.519, -1.063e-6, -5.637e-7, 4.998e-7
0.518, -1.061e-6, -5.631e-7, 4.977e-7
0.517, -1.065e-6, -5.649e-7, 4.998e-7
0.516, -1.064e-6, -5.646e-7, 4.998e-7
0.515, -1.063e-6, -5.637e-7, 4.992e-7
0.514, -1.071e-6, -5.692e-7, 5.019e-7
0.513, -1.066e-6, -5.646e-7, 5.010e-7
0.512, -1.066e-6, -5.676e-7, 4.983e-7
0.511, -1.068e-6, -5.676e-7, 5.007e-7
0.510, -1.068e-6, -5.664e-7, 5.019e-7
0.509, -1.065e-6, -5.670e-7, 4.980e-7
0.508, -1.072e-6, -5.701e-7, 5.022e-7
0.507, -1.071e-6, -5.673e-7, 5.038e-7
0.506, -1.073e-6, -5.710e-7, 5.019e-7
0.505, -1.073e-6, -5.716e-7, 5.010e-7
0.504, -1.075e-6, -5.713e-7, 5.035e-7
0.503, -1.073e-6, -5.722e-7, 5.010e-7
0.502, -1.078e-6, -5.741e-7, 5.038e-7
0.501, -1.076e-6, -5.713e-7, 5.044e-7
0.500, -1.072e-6, -5.713e-7, 5.010e-7
0.499, -1.078e-6, -5.762e-7, 5.019e-7
0.498, -1.078e-6, -5.728e-7, 5.053e-7
0.497, -1.077e-6, -5.759e-7, 5.013e-7
0.496, -1.082e-6, -5.765e-7, 5.056e-7
0.495, -1.080e-6, -5.765e-7, 5.032e-7
0.494, -1.079e-6, -5.756e-7, 5.035e-7
0.493, -1.079e-6, -5.768e-7, 5.025e-7
0.492, -1.082e-6, -5.774e-7, 5.050e-7
0.491, -1.081e-6, -5.795e-7, 5.019e-7
0.490, -1.084e-6, -5.789e-7, 5.053e-7
0.489, -1.084e-6, -5.774e-7, 5.062e-7
0.488, -1.087e-6, -5.811e-7, 5.059e-7
0.487, -1.085e-6, -5.792e-7, 5.053e-7
0.486, -1.086e-6, -5.805e-7, 5.059e-7
0.485, -1.086e-6, -5.811e-7, 5.053e-7
0.484, -1.088e-6, -5.823e-7, 5.062e-7
0.483, -1.089e-6, -5.823e-7, 5.071e-7
0.482, -1.090e-6, -5.832e-7, 5.065e-7
0.481, -1.088e-6, -5.814e-7, 5.071e-7
0.480, -1.090e-6, -5.850e-7, 5.050e-7
0.479, -1.092e-6, -5.850e-7, 5.065e-7
0.478, -1.093e-6, -5.841e-7, 5.093e-7
0.477, -1.093e-6, -5.853e-7, 5.074e-7
0.476, -1.095e-6, -5.863e-7, 5.083e-7
0.475, -1.091e-6, -5.829e-7, 5.080e-7
0.474, -1.094e-6, -5.875e-7, 5.062e-7
0.473, -1.096e-6, -5.869e-7, 5.096e-7
0.472, -1.093e-6, -5.853e-7, 5.077e-7
0.471, -1.097e-6, -5.902e-7, 5.068e-7
0.470, -1.099e-6, -5.887e-7, 5.102e-7
0.469, -1.098e-6, -5.887e-7, 5.096e-7
0.468, -1.102e-6, -5.930e-7, 5.086e-7
0.467, -1.102e-6, -5.896e-7, 5.120e-7
0.466, -1.098e-6, -5.902e-7, 5.080e-7
0.465, -1.103e-6, -5.939e-7, 5.086e-7
0.464, -1.105e-6, -5.933e-7, 5.117e-7
0.463, -1.105e-6, -5.924e-7, 5.123e-7
0.462, -1.108e-6, -5.963e-7, 5.114e-7
0.461, -1.107e-6, -5.942e-7, 5.132e-7
0.460, -1.107e-6, -5.960e-7, 5.114e-7
0.459, -1.110e-6, -5.969e-7, 5.132e-7
0.458, -1.111e-6, -5.960e-7, 5.151e-7
0.457, -1.110e-6, -5.972e-7, 5.132e-7
0.456, -1.114e-6, -5.994e-7, 5.148e-7
0.455, -1.112e-6, -5.982e-7, 5.138e-7
0.454, -1.112e-6, -5.988e-7, 5.132e-7
0.453, -1.116e-6, -5.997e-7, 5.163e-7
0.452, -1.116e-6, -5.997e-7, 5.163e-7
0.451, -1.118e-6, -6.037e-7, 5.144e-7
0.450, -1.125e-6, -6.049e-7, 5.196e-7
0.449, -1.119e-6, -6.018e-7, 5.172e-7
0.448, -1.122e-6, -6.046e-7, 5.172e-7
0.447, -1.123e-6, -6.052e-7, 5.178e-7
0.446, -1.121e-6, -6.033e-7, 5.181e-7
0.445, -1.126e-6, -6.076e-7, 5.184e-7
0.444, -1.127e-6, -6.070e-7, 5.199e-7
0.443, -1.127e-6, -6.076e-7, 5.196e-7
0.442, -1.130e-6, -6.113e-7, 5.190e-7
0.441, -1.130e-6, -6.101e-7, 5.202e-7
0.440, -1.127e-6, -6.073e-7, 5.199e-7
0.439, -1.133e-6, -6.146e-7, 5.187e-7
0.438, -1.135e-6, -6.119e-7, 5.227e-7
0.437, -1.132e-6, -6.104e-7, 5.218e-7
0.436, -1.138e-6, -6.165e-7, 5.212e-7
0.435, -1.136e-6, -6.143e-7, 5.215e-7
0.434, -1.136e-6, -6.140e-7, 5.224e-7
0.433, -1.140e-6, -6.186e-7, 5.215e-7
0.432, -1.143e-6, -6.162e-7, 5.267e-7
0.431, -1.140e-6, -6.159e-7, 5.239e-7
0.430, -1.146e-6, -6.198e-7, 5.257e-7
0.429, -1.147e-6, -6.189e-7, 5.282e-7
0.428, -1.148e-6, -6.214e-7, 5.263e-7
0.427, -1.150e-6, -6.229e-7, 5.270e-7
0.426, -1.149e-6, -6.217e-7, 5.273e-7
0.425, -1.147e-6, -6.220e-7, 5.251e-7
0.424, -1.154e-6, -6.250e-7, 5.294e-7
0.423, -1.153e-6, -6.253e-7, 5.279e-7
0.422, -1.156e-6, -6.272e-7, 5.285e-7
0.421, -1.157e-6, -6.278e-7, 5.297e-7
0.420, -1.153e-6, -6.256e-7, 5.276e-7
0.419, -1.162e-6, -6.290e-7, 5.331e-7
0.418, -1.160e-6, -6.278e-7, 5.318e-7
0.417, -1.162e-6, -6.302e-7, 5.321e-7
0.416, -1.164e-6, -6.317e-7, 5.321e-7
0.415, -1.165e-6, -6.320e-7, 5.331e-7
0.414, -1.167e-6, -6.345e-7, 5.321e-7
0.413, -1.166e-6, -6.329e-7, 5.334e-7
0.412, -1.171e-6, -6.357e-7, 5.349e-7
0.411, -1.171e-6, -6.369e-7, 5.340e-7
0.410, -1.172e-6, -6.369e-7, 5.355e-7
0.409, -1.172e-6, -6.348e-7, 5.376e-7
0.408, -1.173e-6, -6.375e-7, 5.355e-7
0.407, -1.179e-6, -6.421e-7, 5.367e-7
0.406, -1.178e-6, -6.397e-7, 5.382e-7
0.405, -1.178e-6, -6.403e-7, 5.373e-7
0.404, -1.181e-6, -6.436e-7, 5.373e-7
0.403, -1.181e-6, -6.415e-7, 5.395e-7
0.402, -1.182e-6, -6.436e-7, 5.382e-7
0.401, -1.186e-6, -6.458e-7, 5.407e-7
0.400, -1.184e-6, -6.427e-7, 5.416e-7
0.399, -1.188e-6, -6.467e-7, 5.413e-7
0.398, -1.187e-6, -6.458e-7, 5.413e-7
0.397, -1.191e-6, -6.470e-7, 5.440e-7
0.396, -1.188e-6, -6.479e-7, 5.404e-7
0.395, -1.196e-6, -6.513e-7, 5.444e-7
0.394, -1.195e-6, -6.510e-7, 5.440e-7
0.393, -1.196e-6, -6.525e-7, 5.434e-7
0.392, -1.197e-6, -6.525e-7, 5.444e-7
0.391, -1.198e-6, -6.540e-7, 5.444e-7
0.390, -1.200e-6, -6.540e-7, 5.456e-7
0.389, -1.200e-6, -6.543e-7, 5.462e-7
0.388, -1.202e-6, -6.568e-7, 5.453e-7
0.387, -1.204e-6, -6.589e-7, 5.456e-7
0.386, -1.206e-6, -6.568e-7, 5.495e-7
0.385, -1.206e-6, -6.586e-7, 5.471e-7
0.384, -1.210e-6, -6.616e-7, 5.486e-7
0.383, -1.211e-6, -6.601e-7, 5.511e-7
0.382, -1.211e-6, -6.625e-7, 5.486e-7
0.381, -1.215e-6, -6.653e-7, 5.501e-7
0.380, -1.215e-6, -6.625e-7, 5.526e-7
0.379, -1.214e-6, -6.644e-7, 5.495e-7
0.378, -1.219e-6, -6.680e-7, 5.514e-7
0.377, -1.219e-6, -6.662e-7, 5.529e-7
0.376, -1.221e-6, -6.677e-7, 5.532e-7
0.375, -1.224e-6, -6.705e-7, 5.535e-7
0.374, -1.225e-6, -6.683e-7, 5.569e-7
0.373, -1.224e-6, -6.723e-7, 5.514e-7
0.372, -1.229e-6, -6.735e-7, 5.559e-7
0.371, -1.227e-6, -6.723e-7, 5.547e-7
0.370, -1.228e-6, -6.738e-7, 5.544e-7
0.369, -1.234e-6, -6.757e-7, 5.584e-7
0.368, -1.231e-6, -6.735e-7, 5.578e-7
0.367, -1.233e-6, -6.760e-7, 5.575e-7
0.366, -1.234e-6, -6.772e-7, 5.572e-7
0.365, -1.237e-6, -6.772e-7, 5.593e-7
0.364, -1.239e-6, -6.787e-7, 5.599e-7
0.363, -1.240e-6, -6.812e-7, 5.590e-7
0.362, -1.242e-6, -6.809e-7, 5.611e-7
0.361, -1.244e-6, -6.827e-7, 5.617e-7
0.360, -1.245e-6, -6.842e-7, 5.611e-7
0.359, -1.243e-6, -6.812e-7, 5.617e-7
0.358, -1.245e-6, -6.836e-7, 5.614e-7
0.357, -1.251e-6, -6.867e-7, 5.642e-7
0.356, -1.251e-6, -6.879e-7, 5.633e-7
0.355, -1.251e-6, -6.882e-7, 5.630e-7
0.354, -1.251e-6, -6.870e-7, 5.642e-7
0.353, -1.255e-6, -6.912e-7, 5.642e-7
0.352, -1.257e-6, -6.909e-7, 5.660e-7
0.351, -1.258e-6, -6.912e-7, 5.672e-7
0.350, -1.260e-6, -6.921e-7, 5.675e-7
0.349, -1.261e-6, -6.925e-7, 5.685e-7
0.348, -1.263e-6, -6.943e-7, 5.685e-7
0.347, -1.266e-6, -6.970e-7, 5.694e-7
0.346, -1.268e-6, -6.976e-7, 5.700e-7
0.345, -1.265e-6, -6.967e-7, 5.678e-7
0.344, -1.275e-6, -7.019e-7, 5.733e-7
0.343, -1.277e-6, -7.019e-7, 5.749e-7
0.342, -1.276e-6, -7.013e-7, 5.746e-7
0.341, -1.277e-6, -7.044e-7, 5.727e-7
0.340, -1.280e-6, -7.047e-7, 5.749e-7
0.339, -1.277e-6, -7.041e-7, 5.733e-7
0.338, -1.281e-6, -7.077e-7, 5.736e-7
0.337, -1.287e-6, -7.089e-7, 5.782e-7
0.336, -1.285e-6, -7.068e-7, 5.782e-7
0.335, -1.289e-6, -7.105e-7, 5.782e-7
0.334, -1.290e-6, -7.105e-7, 5.794e-7
0.333, -1.289e-6, -7.120e-7, 5.773e-7
0.332, -1.297e-6, -7.141e-7, 5.831e-7
0.331, -1.294e-6, -7.144e-7, 5.801e-7
0.330, -1.296e-6, -7.172e-7, 5.791e-7
0.329, -1.300e-6, -7.181e-7, 5.816e-7
0.328, -1.300e-6, -7.175e-7, 5.828e-7
0.327, -1.302e-6, -7.202e-7, 5.822e-7
0.326, -1.306e-6, -7.205e-7, 5.859e-7
0.325, -1.306e-6, -7.218e-7, 5.843e-7
0.324, -1.309e-6, -7.251e-7, 5.840e-7
0.323, -1.312e-6, -7.242e-7, 5.874e-7
0.322, -1.313e-6, -7.251e-7, 5.877e-7
0.321, -1.316e-6, -7.297e-7, 5.865e-7
0.320, -1.318e-6, -7.282e-7, 5.901e-7
0.319, -1.320e-6, -7.275e-7, 5.923e-7
0.318, -1.323e-6, -7.321e-7, 5.904e-7
0.317, -1.326e-6, -7.327e-7, 5.929e-7
0.316, -1.325e-6, -7.318e-7, 5.935e-7
0.315, -1.329e-6, -7.355e-7, 5.935e-7
0.314, -1.330e-6, -7.349e-7, 5.953e-7
0.313, -1.328e-6, -7.346e-7, 5.935e-7
0.312, -1.335e-6, -7.398e-7, 5.953e-7
0.311, -1.339e-6, -7.398e-7, 5.990e-7
0.310, -1.339e-6, -7.419e-7, 5.968e-7
0.309, -1.339e-6, -7.425e-7, 5.962e-7
0.308, -1.345e-6, -7.440e-7, 6.008e-7
0.307, -1.346e-6, -7.452e-7, 6.005e-7
0.306, -1.346e-6, -7.459e-7, 5.999e-7
0.305, -1.350e-6, -7.477e-7, 6.026e-7
0.304, -1.352e-6, -7.483e-7, 6.039e-7
0.303, -1.357e-6, -7.526e-7, 6.048e-7
0.302, -1.355e-6, -7.489e-7, 6.060e-7
0.301, -1.356e-6, -7.532e-7, 6.029e-7
0.300, -1.361e-6, -7.535e-7, 6.078e-7
0.299, -1.366e-6, -7.568e-7, 6.097e-7
0.298, -1.364e-6, -7.568e-7, 6.072e-7
0.297, -1.367e-6, -7.584e-7, 6.087e-7
0.296, -1.370e-6, -7.602e-7, 6.103e-7
0.295, -1.371e-6, -7.599e-7, 6.115e-7
0.294, -1.379e-6, -7.654e-7, 6.136e-7
0.293, -1.375e-6, -7.626e-7, 6.127e-7
0.292, -1.379e-6, -7.642e-7, 6.145e-7
0.291, -1.381e-6, -7.657e-7, 6.158e-7
0.290, -1.381e-6, -7.663e-7, 6.151e-7
0.289, -1.386e-6, -7.703e-7, 6.158e-7
0.288, -1.389e-6, -7.690e-7, 6.200e-7
0.287, -1.392e-6, -7.721e-7, 6.194e-7
0.286, -1.396e-6, -7.764e-7, 6.200e-7
0.285, -1.398e-6, -7.761e-7, 6.222e-7
0.284, -1.396e-6, -7.764e-7, 6.197e-7
0.283, -1.401e-6, -7.791e-7, 6.222e-7
0.282, -1.401e-6, -7.776e-7, 6.237e-7
0.281, -1.404e-6, -7.791e-7, 6.249e-7
0.280, -1.406e-6, -7.825e-7, 6.237e-7
0.279, -1.412e-6, -7.834e-7, 6.283e-7
0.278, -1.411e-6, -7.852e-7, 6.261e-7
0.277, -1.414e-6, -7.861e-7, 6.280e-7
0.276, -1.418e-6, -7.861e-7, 6.316e-7
0.275, -1.422e-6, -7.904e-7, 6.316e-7
0.274, -1.422e-6, -7.910e-7, 6.313e-7
0.273, -1.427e-6, -7.925e-7, 6.344e-7
0.272, -1.425e-6, -7.935e-7, 6.319e-7
0.271, -1.430e-6, -7.941e-7, 6.356e-7
0.270, -1.431e-6, -7.950e-7, 6.356e-7
0.269, -1.434e-6, -7.983e-7, 6.353e-7
0.268, -1.436e-6, -7.977e-7, 6.386e-7
0.267, -1.438e-6, -7.996e-7, 6.383e-7
0.266, -1.444e-6, -8.041e-7, 6.402e-7
0.265, -1.443e-6, -8.023e-7, 6.405e-7
0.264, -1.444e-6, -8.048e-7, 6.389e-7
0.263, -1.446e-6, -8.054e-7, 6.405e-7
0.262, -1.452e-6, -8.057e-7, 6.460e-7
0.261, -1.451e-6, -8.087e-7, 6.426e-7
0.260, -1.455e-6, -8.115e-7, 6.438e-7
0.259, -1.457e-6, -8.102e-7, 6.472e-7
0.258, -1.458e-6, -8.133e-7, 6.447e-7
0.257, -1.464e-6, -8.163e-7, 6.481e-7
0.256, -1.463e-6, -8.139e-7, 6.493e-7
0.255, -1.464e-6, -8.176e-7, 6.460e-7
0.254, -1.471e-6, -8.194e-7, 6.512e-7
0.253, -1.473e-6, -8.185e-7, 6.542e-7
0.252, -1.473e-6, -8.228e-7, 6.505e-7
0.251, -1.478e-6, -8.249e-7, 6.530e-7
0.250, -1.479e-6, -8.252e-7, 6.539e-7
0.249, -1.483e-6, -8.273e-7, 6.560e-7
0.248, -1.484e-6, -8.276e-7, 6.566e-7
0.247, -1.487e-6, -8.292e-7, 6.582e-7
0.246, -1.492e-6, -8.313e-7, 6.609e-7
0.245, -1.493e-6, -8.325e-7, 6.606e-7
0.244, -1.496e-6, -8.347e-7, 6.615e-7
0.243, -1.499e-6, -8.362e-7, 6.624e-7
0.242, -1.500e-6, -8.368e-7, 6.628e-7
0.241, -1.502e-6, -8.389e-7, 6.631e-7
0.240, -1.505e-6, -8.405e-7, 6.643e-7
0.239, -1.508e-6, -8.423e-7, 6.661e-7
0.238, -1.510e-6, -8.429e-7, 6.667e-7
0.237, -1.512e-6, -8.447e-7, 6.673e-7
0.236, -1.515e-6, -8.444e-7, 6.704e-7
0.235, -1.519e-6, -8.478e-7, 6.710e-7
0.234, -1.520e-6, -8.493e-7, 6.710e-7
0.233, -1.522e-6, -8.493e-7, 6.728e-7
0.232, -1.525e-6, -8.517e-7, 6.728e-7
0.231, -1.528e-6, -8.530e-7, 6.750e-7
0.230, -1.528e-6, -8.530e-7, 6.747e-7
0.229, -1.536e-6, -8.591e-7, 6.771e-7
0.228, -1.538e-6, -8.579e-7, 6.801e-7
0.227, -1.538e-6, -8.585e-7, 6.795e-7
0.226, -1.543e-6, -8.615e-7, 6.811e-7
0.225, -1.546e-6, -8.640e-7, 6.820e-7
0.224, -1.549e-6, -8.652e-7, 6.841e-7
0.223, -1.549e-6, -8.673e-7, 6.814e-7
0.222, -1.552e-6, -8.679e-7, 6.838e-7
0.221, -1.555e-6, -8.676e-7, 6.875e-7
0.220, -1.559e-6, -8.722e-7, 6.872e-7
0.219, -1.566e-6, -8.734e-7, 6.924e-7
0.218, -1.564e-6, -8.737e-7, 6.902e-7
0.217, -1.571e-6, -8.795e-7, 6.914e-7
0.216, -1.572e-6, -8.792e-7, 6.924e-7
0.215, -1.572e-6, -8.780e-7, 6.939e-7
0.214, -1.577e-6, -8.841e-7, 6.930e-7
0.213, -1.579e-6, -8.826e-7, 6.966e-7
0.212, -1.582e-6, -8.859e-7, 6.963e-7
0.211, -1.586e-6, -8.887e-7, 6.972e-7
0.210, -1.589e-6, -8.902e-7, 6.985e-7
0.209, -1.590e-6, -8.899e-7, 6.997e-7
0.208, -1.595e-6, -8.939e-7, 7.009e-7
0.207, -1.598e-6, -8.945e-7, 7.030e-7
0.206, -1.600e-6, -8.966e-7, 7.030e-7
0.205, -1.607e-6, -9.003e-7, 7.064e-7
0.204, -1.605e-6, -8.990e-7, 7.061e-7
0.203, -1.612e-6, -9.048e-7, 7.076e-7
0.202, -1.617e-6, -9.048e-7, 7.125e-7
0.201, -1.617e-6, -9.058e-7, 7.110e-7
0.200, -1.620e-6, -9.088e-7, 7.110e-7
0.199, -1.624e-6, -9.103e-7, 7.137e-7
0.198, -1.621e-6, -9.079e-7, 7.134e-7
0.197, -1.629e-6, -9.152e-7, 7.137e-7
0.196, -1.634e-6, -9.171e-7, 7.168e-7
0.195, -1.633e-6, -9.149e-7, 7.177e-7
0.194, -1.641e-6, -9.222e-7, 7.183e-7
0.193, -1.644e-6, -9.213e-7, 7.223e-7
0.192, -1.644e-6, -9.225e-7, 7.210e-7
0.191, -1.649e-6, -9.262e-7, 7.232e-7
0.190, -1.655e-6, -9.265e-7, 7.281e-7
0.189, -1.653e-6, -9.286e-7, 7.244e-7
0.188, -1.662e-6, -9.344e-7, 7.277e-7
0.187, -1.666e-6, -9.348e-7, 7.308e-7
0.186, -1.665e-6, -9.354e-7, 7.296e-7
0.185, -1.672e-6, -9.402e-7, 7.314e-7
0.184, -1.677e-6, -9.412e-7, 7.360e-7
0.183, -1.675e-6, -9.409e-7, 7.345e-7
0.182, -1.683e-6, -9.467e-7, 7.363e-7
0.181, -1.686e-6, -9.479e-7, 7.384e-7
0.180, -1.688e-6, -9.488e-7, 7.387e-7
0.179, -1.694e-6, -9.531e-7, 7.412e-7
0.178, -1.698e-6, -9.543e-7, 7.433e-7
0.177, -1.701e-6, -9.558e-7, 7.454e-7
0.176, -1.706e-6, -9.604e-7, 7.454e-7
0.175, -1.709e-6, -9.607e-7, 7.482e-7
0.174, -1.713e-6, -9.631e-7, 7.494e-7
0.173, -1.717e-6, -9.653e-7, 7.516e-7
0.172, -1.718e-6, -9.671e-7, 7.512e-7
0.171, -1.725e-6, -9.711e-7, 7.543e-7
0.170, -1.729e-6, -9.726e-7, 7.567e-7
0.169, -1.735e-6, -9.756e-7, 7.589e-7
0.168, -1.737e-6, -9.790e-7, 7.577e-7
0.167, -1.741e-6, -9.790e-7, 7.622e-7
0.166, -1.744e-6, -9.821e-7, 7.619e-7
0.165, -1.750e-6, -9.872e-7, 7.625e-7
0.164, -1.752e-6, -9.857e-7, 7.662e-7
0.163, -1.757e-6, -9.906e-7, 7.662e-7
0.162, -1.762e-6, -9.927e-7, 7.689e-7
0.161, -1.765e-6, -9.930e-7, 7.723e-7
0.160, -1.764e-6, -9.952e-7, 7.689e-7
0.159, -1.774e-6, -9.994e-7, 7.744e-7
0.158, -1.778e-6, -1.001e-6, 7.769e-7
0.157, -1.778e-6, -1.003e-6, 7.744e-7
0.156, -1.786e-6, -1.007e-6, 7.787e-7
0.155, -1.788e-6, -1.007e-6, 7.812e-7
0.154, -1.792e-6, -1.010e-6, 7.824e-7
0.153, -1.799e-6, -1.014e-6, 7.848e-7
0.152, -1.801e-6, -1.015e-6, 7.863e-7
0.151, -1.809e-6, -1.021e-6, 7.879e-7
0.150, -1.811e-6, -1.022e-6, 7.891e-7
0.149, -1.815e-6, -1.023e-6, 7.915e-7
0.148, -1.817e-6, -1.027e-6, 7.903e-7
0.147, -1.823e-6, -1.028e-6, 7.955e-7
0.146, -1.824e-6, -1.030e-6, 7.946e-7
0.145, -1.834e-6, -1.035e-6, 7.988e-7
0.144, -1.837e-6, -1.036e-6, 8.013e-7
0.143, -1.841e-6, -1.039e-6, 8.022e-7
0.142, -1.847e-6, -1.043e-6, 8.037e-7
0.141, -1.852e-6, -1.044e-6, 8.074e-7
0.140, -1.853e-6, -1.048e-6, 8.056e-7
0.139, -1.861e-6, -1.053e-6, 8.086e-7
0.138, -1.863e-6, -1.051e-6, 8.114e-7
0.137, -1.866e-6, -1.055e-6, 8.114e-7
0.136, -1.869e-6, -1.058e-6, 8.114e-7
0.135, -1.878e-6, -1.060e-6, 8.175e-7
0.134, -1.876e-6, -1.060e-6, 8.159e-7
0.133, -1.886e-6, -1.067e-6, 8.190e-7
0.132, -1.889e-6, -1.067e-6, 8.217e-7
0.131, -1.895e-6, -1.071e-6, 8.239e-7
0.130, -1.899e-6, -1.075e-6, 8.236e-7
0.129, -1.904e-6, -1.075e-6, 8.294e-7
0.128, -1.907e-6, -1.079e-6, 8.281e-7
0.127, -1.915e-6, -1.082e-6, 8.324e-7
0.126, -1.920e-6, -1.085e-6, 8.355e-7
0.125, -1.922e-6, -1.088e-6, 8.346e-7
0.124, -1.928e-6, -1.092e-6, 8.367e-7
0.123, -1.933e-6, -1.092e-6, 8.419e-7
0.122, -1.937e-6, -1.097e-6, 8.394e-7
0.121, -1.945e-6, -1.102e-6, 8.431e-7
0.120, -1.947e-6, -1.102e-6, 8.449e-7
0.119, -1.952e-6, -1.106e-6, 8.458e-7
0.118, -1.956e-6, -1.107e-6, 8.486e-7
0.117, -1.962e-6, -1.109e-6, 8.526e-7
0.116, -1.965e-6, -1.113e-6, 8.516e-7
0.115, -1.969e-6, -1.114e-6, 8.547e-7
0.114, -1.974e-6, -1.118e-6, 8.568e-7
0.113, -1.980e-6, -1.122e-6, 8.577e-7
0.112, -1.983e-6, -1.122e-6, 8.611e-7
0.111, -1.988e-6, -1.127e-6, 8.614e-7
0.110, -1.996e-6, -1.130e-6, 8.654e-7
0.109, -2.000e-6, -1.132e-6, 8.678e-7
0.108, -2.005e-6, -1.136e-6, 8.687e-7
0.107, -2.010e-6, -1.140e-6, 8.706e-7
0.106, -2.016e-6, -1.142e-6, 8.733e-7
0.105, -2.022e-6, -1.146e-6, 8.757e-7
0.104, -2.027e-6, -1.149e-6, 8.776e-7
0.103, -2.033e-6, -1.151e-6, 8.822e-7
0.102, -2.034e-6, -1.155e-6, 8.794e-7
0.101, -2.043e-6, -1.158e-6, 8.849e-7
0.100, -2.049e-6, -1.160e-6, 8.889e-7
0.099, -2.053e-6, -1.164e-6, 8.892e-7
0.098, -2.058e-6, -1.166e-6, 8.919e-7
0.097, -2.064e-6, -1.171e-6, 8.938e-7
0.096, -2.067e-6, -1.171e-6, 8.953e-7
0.095, -2.074e-6, -1.176e-6, 8.977e-7
0.094, -2.078e-6, -1.177e-6, 9.008e-7
0.093, -2.085e-6, -1.184e-6, 9.011e-7
0.092, -2.090e-6, -1.184e-6, 9.060e-7
0.091, -2.094e-6, -1.187e-6, 9.069e-7
0.090, -2.100e-6, -1.191e-6, 9.093e-7
0.089, -2.107e-6, -1.195e-6, 9.124e-7
0.088, -2.110e-6, -1.197e-6, 9.136e-7
0.087, -2.117e-6, -1.201e-6, 9.160e-7
0.086, -2.124e-6, -1.203e-6, 9.212e-7
0.085, -2.128e-6, -1.207e-6, 9.206e-7
0.084, -2.132e-6, -1.209e-6, 9.237e-7
0.083, -2.141e-6, -1.212e-6, 9.288e-7
0.082, -2.144e-6, -1.216e-6, 9.279e-7
0.081, -2.150e-6, -1.218e-6, 9.319e-7
0.080, -2.157e-6, -1.222e-6, 9.349e-7
0.079, -2.163e-6, -1.226e-6, 9.365e-7
0.078, -2.169e-6, -1.227e-6, 9.417e-7
0.077, -2.172e-6, -1.230e-6, 9.426e-7
0.076, -2.178e-6, -1.235e-6, 9.435e-7
0.075, -2.186e-6, -1.238e-6, 9.478e-7
0.074, -2.190e-6, -1.239e-6, 9.505e-7
0.073, -2.197e-6, -1.246e-6, 9.511e-7
0.072, -2.204e-6, -1.248e-6, 9.560e-7
0.071, -2.208e-6, -1.250e-6, 9.581e-7
0.070, -2.213e-6, -1.254e-6, 9.588e-7
0.069, -2.219e-6, -1.257e-6, 9.624e-7
0.068, -2.222e-6, -1.259e-6, 9.636e-7
0.067, -2.228e-6, -1.263e-6, 9.649e-7
0.066, -2.240e-6, -1.269e-6, 9.707e-7
0.065, -2.241e-6, -1.267e-6, 9.734e-7
0.064, -2.251e-6, -1.275e-6, 9.752e-7
0.063, -2.254e-6, -1.276e-6, 9.780e-7
0.062, -2.259e-6, -1.278e-6, 9.807e-7
0.061, -2.267e-6, -1.283e-6, 9.835e-7
0.060, -2.274e-6, -1.287e-6, 9.868e-7
0.059, -2.275e-6, -1.287e-6, 9.874e-7
0.058, -2.281e-6, -1.291e-6, 9.902e-7
0.057, -2.289e-6, -1.295e-6, 9.941e-7
0.056, -2.293e-6, -1.297e-6, 9.963e-7
0.055, -2.303e-6, -1.303e-6, 1.000e-6
0.054, -2.304e-6, -1.302e-6, 1.002e-6
0.053, -2.309e-6, -1.305e-6, 1.004e-6
0.052, -2.320e-6, -1.311e-6, 1.009e-6
0.051, -2.323e-6, -1.312e-6, 1.011e-6
0.050, -2.330e-6, -1.316e-6, 1.014e-6
0.049, -2.334e-6, -1.319e-6, 1.015e-6
0.048, -2.339e-6, -1.320e-6, 1.019e-6
0.047, -2.347e-6, -1.325e-6, 1.022e-6
0.046, -2.352e-6, -1.329e-6, 1.024e-6
0.045, -2.359e-6, -1.332e-6, 1.028e-6
0.044, -2.364e-6, -1.334e-6, 1.030e-6
0.043, -2.369e-6, -1.334e-6, 1.035e-6
0.042, -2.376e-6, -1.341e-6, 1.035e-6
0.041, -2.382e-6, -1.343e-6, 1.039e-6
0.040, -2.386e-6, -1.345e-6, 1.041e-6
0.039, -2.390e-6, -1.347e-6, 1.043e-6
0.038, -2.398e-6, -1.351e-6, 1.047e-6
0.037, -2.404e-6, -1.353e-6, 1.052e-6
0.036, -2.410e-6, -1.357e-6, 1.053e-6
0.035, -2.416e-6, -1.362e-6, 1.054e-6
0.034, -2.423e-6, -1.363e-6, 1.061e-6
0.033, -2.421e-6, -1.363e-6, 1.059e-6
0.032, -2.430e-6, -1.366e-6, 1.065e-6
0.031, -2.435e-6, -1.367e-6, 1.067e-6
0.030, -2.438e-6, -1.371e-6, 1.067e-6
0.029, -2.447e-6, -1.376e-6, 1.070e-6
0.028, -2.452e-6, -1.376e-6, 1.076e-6
0.027, -2.456e-6, -1.381e-6, 1.075e-6
0.026, -2.460e-6, -1.383e-6, 1.077e-6
0.025, -2.464e-6, -1.383e-6, 1.081e-6
0.024, -2.470e-6, -1.387e-6, 1.083e-6
0.023, -2.478e-6, -1.390e-6, 1.089e-6
0.022, -2.479e-6, -1.390e-6, 1.090e-6
0.021, -2.487e-6, -1.396e-6, 1.091e-6
0.020, -2.491e-6, -1.396e-6, 1.096e-6
0.019, -2.496e-6, -1.399e-6, 1.097e-6
0.018, -2.504e-6, -1.404e-6, 1.100e-6
0.017, -2.507e-6, -1.403e-6, 1.103e-6
0.016, -2.511e-6, -1.405e-6, 1.106e-6
0.015, -2.517e-6, -1.409e-6, 1.108e-6
0.014, -2.520e-6, -1.408e-6, 1.112e-6
0.013, -2.524e-6, -1.411e-6, 1.113e-6
0.012, -2.533e-6, -1.416e-6, 1.117e-6
0.011, -2.535e-6, -1.415e-6, 1.120e-6
0.010, -2.537e-6, -1.418e-6, 1.120e-6
0.009, -2.542e-6, -1.420e-6, 1.122e-6
0.008, -2.548e-6, -1.420e-6, 1.128e-6
0.007, -2.549e-6, -1.423e-6, 1.126e-6
0.006, -2.555e-6, -1.426e-6, 1.129e-6
0.005, -2.560e-6, -1.427e-6, 1.133e-6
0.004, -2.563e-6, -1.429e-6, 1.133e-6
0.003, -2.568e-6, -1.432e-6, 1.136e-6
0.002, -2.573e-6, -1.431e-6, 1.142e-6
0.001, -2.573e-6, -1.432e-6, 1.141e-6
0.000, -2.581e-6, -1.437e-6, 1.144e-6
-0.001, -2.585e-6, -1.436e-6, 1.149e-6
-0.002, -2.587e-6, -1.439e-6, 1.148e-6
-0.003, -2.596e-6, -1.443e-6, 1.153e-6
-0.004, -2.597e-6, -1.441e-6, 1.156e-6
-0.005, -2.598e-6, -1.444e-6, 1.154e-6
-0.006, -2.604e-6, -1.445e-6, 1.159e-6
-0.007, -2.606e-6, -1.446e-6, 1.160e-6
-0.008, -2.610e-6, -1.447e-6, 1.163e-6
-0.009, -2.614e-6, -1.447e-6, 1.166e-6
-0.010, -2.617e-6, -1.450e-6, 1.167e-6
-0.011, -2.619e-6, -1.450e-6, 1.168e-6
-0.012, -2.625e-6, -1.453e-6, 1.172e-6
-0.013, -2.628e-6, -1.453e-6, 1.175e-6
-0.014, -2.632e-6, -1.456e-6, 1.176e-6
-0.015, -2.633e-6, -1.453e-6, 1.180e-6
-0.016, -2.639e-6, -1.457e-6, 1.182e-6
-0.017, -2.641e-6, -1.457e-6, 1.184e-6
-0.018, -2.641e-6, -1.458e-6, 1.183e-6
-0.019, -2.644e-6, -1.457e-6, 1.186e-6
-0.020, -2.650e-6, -1.462e-6, 1.188e-6
-0.021, -2.650e-6, -1.459e-6, 1.191e-6
-0.022, -2.655e-6, -1.464e-6, 1.191e-6
-0.023, -2.655e-6, -1.462e-6, 1.194e-6
-0.024, -2.659e-6, -1.463e-6, 1.195e-6
-0.025, -2.662e-6, -1.465e-6, 1.197e-6
-0.026, -2.666e-6, -1.466e-6, 1.200e-6
-0.027, -2.666e-6, -1.464e-6, 1.202e-6
-0.028, -2.669e-6, -1.466e-6, 1.203e-6
-0.029, -2.676e-6, -1.468e-6, 1.207e-6
-0.030, -2.675e-6, -1.468e-6, 1.206e-6
-0.031, -2.678e-6, -1.469e-6, 1.209e-6
-0.032, -2.678e-6, -1.467e-6, 1.211e-6
-0.033, -2.679e-6, -1.468e-6, 1.211e-6
-0.034, -2.684e-6, -1.471e-6, 1.212e-6
-0.035, -2.686e-6, -1.469e-6, 1.217e-6
-0.036, -2.687e-6, -1.469e-6, 1.218e-6
-0.037, -2.689e-6, -1.472e-6, 1.218e-6
-0.038, -2.689e-6, -1.469e-6, 1.220e-6
-0.039, -2.692e-6, -1.471e-6, 1.221e-6
-0.040, -2.695e-6, -1.472e-6, 1.223e-6
-0.041, -2.690e-6, -1.467e-6, 1.223e-6
-0.042, -2.698e-6, -1.472e-6, 1.225e-6
-0.043, -2.701e-6, -1.473e-6, 1.228e-6
-0.044, -2.699e-6, -1.470e-6, 1.230e-6
-0.045, -2.703e-6, -1.473e-6, 1.230e-6
-0.046, -2.706e-6, -1.472e-6, 1.233e-6
-0.047, -2.705e-6, -1.473e-6, 1.232e-6
-0.048, -2.706e-6, -1.473e-6, 1.233e-6
-0.049, -2.709e-6, -1.471e-6, 1.237e-6
-0.050, -2.708e-6, -1.470e-6, 1.238e-6
-0.051, -2.709e-6, -1.472e-6, 1.237e-6
-0.052, -2.711e-6, -1.471e-6, 1.240e-6
-0.053, -2.708e-6, -1.466e-6, 1.241e-6
-0.054, -2.714e-6, -1.472e-6, 1.242e-6
-0.055, -2.713e-6, -1.469e-6, 1.244e-6
-0.056, -2.714e-6, -1.470e-6, 1.244e-6
-0.057, -2.716e-6, -1.471e-6, 1.245e-6
-0.058, -2.717e-6, -1.469e-6, 1.249e-6
-0.059, -2.715e-6, -1.467e-6, 1.247e-6
-0.060, -2.716e-6, -1.468e-6, 1.247e-6
-0.061, -2.717e-6, -1.466e-6, 1.251e-6
-0.062, -2.718e-6, -1.467e-6, 1.252e-6
-0.063, -2.720e-6, -1.466e-6, 1.254e-6
-0.064, -2.721e-6, -1.467e-6, 1.254e-6
-0.065, -2.720e-6, -1.465e-6, 1.254e-6
-0.066, -2.719e-6, -1.465e-6, 1.254e-6
-0.067, -2.720e-6, -1.463e-6, 1.257e-6
-0.068, -2.719e-6, -1.462e-6, 1.257e-6
-0.069, -2.719e-6, -1.462e-6, 1.257e-6
-0.070, -2.721e-6, -1.461e-6, 1.260e-6
-0.071, -2.719e-6, -1.460e-6, 1.259e-6
-0.072, -2.720e-6, -1.460e-6, 1.260e-6
-0.073, -2.719e-6, -1.458e-6, 1.261e-6
-0.074, -2.717e-6, -1.458e-6, 1.259e-6
-0.075, -2.717e-6, -1.457e-6, 1.261e-6
-0.076, -2.718e-6, -1.456e-6, 1.263e-6
-0.077, -2.719e-6, -1.456e-6, 1.263e-6
-0.078, -2.715e-6, -1.452e-6, 1.264e-6
-0.079, -2.716e-6, -1.453e-6, 1.264e-6
-0.080, -2.717e-6, -1.454e-6, 1.264e-6
-0.081, -2.718e-6, -1.451e-6, 1.267e-6
-0.082, -2.716e-6, -1.451e-6, 1.265e-6
-0.083, -2.714e-6, -1.448e-6, 1.266e-6
-0.084, -2.713e-6, -1.448e-6, 1.265e-6
-0.085, -2.711e-6, -1.446e-6, 1.265e-6
-0.086, -2.712e-6, -1.446e-6, 1.266e-6
-0.087, -2.708e-6, -1.441e-6, 1.267e-6
-0.088, -2.707e-6, -1.441e-6, 1.266e-6
-0.089, -2.709e-6, -1.444e-6, 1.265e-6
-0.090, -2.706e-6, -1.439e-6, 1.266e-6
-0.091, -2.709e-6, -1.442e-6, 1.267e-6
-0.092, -2.706e-6, -1.437e-6, 1.269e-6
-0.093, -2.699e-6, -1.434e-6, 1.265e-6
-0.094, -2.701e-6, -1.435e-6, 1.266e-6
-0.095, -2.702e-6, -1.434e-6, 1.269e-6
-0.096, -2.697e-6, -1.429e-6, 1.268e-6
-0.097, -2.698e-6, -1.431e-6, 1.267e-6
-0.098, -2.697e-6, -1.429e-6, 1.268e-6
-0.099, -2.694e-6, -1.426e-6, 1.268e-6
-0.100, -2.694e-6, -1.427e-6, 1.267e-6
-0.101, -2.690e-6, -1.424e-6, 1.267e-6
-0.102, -2.689e-6, -1.421e-6, 1.267e-6
-0.103, -2.688e-6, -1.421e-6, 1.267e-6
-0.104, -2.687e-6, -1.419e-6, 1.268e-6
-0.105, -2.684e-6, -1.418e-6, 1.267e-6
-0.106, -2.684e-6, -1.419e-6, 1.265e-6
-0.107, -2.679e-6, -1.414e-6, 1.266e-6
-0.108, -2.675e-6, -1.410e-6, 1.265e-6
-0.109, -2.674e-6, -1.412e-6, 1.262e-6
-0.110, -2.674e-6, -1.409e-6, 1.265e-6
-0.111, -2.670e-6, -1.408e-6, 1.262e-6
-0.112, -2.670e-6, -1.407e-6, 1.264e-6
-0.113, -2.668e-6, -1.404e-6, 1.264e-6
-0.114, -2.666e-6, -1.403e-6, 1.263e-6
-0.115, -2.664e-6, -1.401e-6, 1.263e-6
-0.116, -2.663e-6, -1.399e-6, 1.264e-6
-0.117, -2.660e-6, -1.399e-6, 1.261e-6
-0.118, -2.657e-6, -1.397e-6, 1.260e-6
-0.119, -2.652e-6, -1.391e-6, 1.261e-6
-0.120, -2.651e-6, -1.391e-6, 1.260e-6
-0.121, -2.652e-6, -1.393e-6, 1.258e-6
-0.122, -2.645e-6, -1.385e-6, 1.260e-6
-0.123, -2.643e-6, -1.386e-6, 1.257e-6
-0.124, -2.641e-6, -1.384e-6, 1.257e-6
-0.125, -2.642e-6, -1.384e-6, 1.258e-6
-0.126, -2.634e-6, -1.381e-6, 1.253e-6
-0.127, -2.637e-6, -1.381e-6, 1.256e-6
-0.128, -2.633e-6, -1.378e-6, 1.255e-6
-0.129, -2.631e-6, -1.377e-6, 1.254e-6
-0.130, -2.624e-6, -1.374e-6, 1.250e-6
-0.131, -2.624e-6, -1.371e-6, 1.253e-6
-0.132, -2.623e-6, -1.373e-6, 1.249e-6
-0.133, -2.620e-6, -1.370e-6, 1.251e-6
-0.134, -2.619e-6, -1.369e-6, 1.250e-6
-0.135, -2.615e-6, -1.368e-6, 1.247e-6
-0.136, -2.610e-6, -1.362e-6, 1.248e-6
-0.137, -2.607e-6, -1.364e-6, 1.243e-6
-0.138, -2.603e-6, -1.359e-6, 1.244e-6
-0.139, -2.607e-6, -1.360e-6, 1.247e-6
-0.140, -2.599e-6, -1.356e-6, 1.243e-6
-0.141, -2.597e-6, -1.356e-6, 1.241e-6
-0.142, -2.595e-6, -1.353e-6, 1.243e-6
-0.143, -2.592e-6, -1.353e-6, 1.239e-6
-0.144, -2.595e-6, -1.355e-6, 1.239e-6
-0.145, -2.586e-6, -1.345e-6, 1.240e-6
-0.146, -2.583e-6, -1.346e-6, 1.237e-6
-0.147, -2.582e-6, -1.345e-6, 1.237e-6
-0.148, -2.576e-6, -1.340e-6, 1.236e-6
-0.149, -2.576e-6, -1.342e-6, 1.234e-6
-0.150, -2.573e-6, -1.340e-6, 1.232e-6
-0.151, -2.569e-6, -1.336e-6, 1.232e-6
-0.152, -2.565e-6, -1.337e-6, 1.229e-6
-0.153, -2.563e-6, -1.333e-6, 1.230e-6
-0.154, -2.558e-6, -1.330e-6, 1.228e-6
-0.155, -2.557e-6, -1.330e-6, 1.228e-6
-0.156, -2.554e-6, -1.328e-6, 1.227e-6
-0.157, -2.551e-6, -1.327e-6, 1.223e-6
-0.158, -2.551e-6, -1.327e-6, 1.224e-6
-0.159, -2.546e-6, -1.324e-6, 1.222e-6
-0.160, -2.543e-6, -1.323e-6, 1.220e-6
-0.161, -2.540e-6, -1.321e-6, 1.219e-6
-0.162, -2.541e-6, -1.322e-6, 1.220e-6
-0.163, -2.536e-6, -1.319e-6, 1.217e-6
-0.164, -2.532e-6, -1.314e-6, 1.218e-6
-0.165, -2.529e-6, -1.314e-6, 1.215e-6
-0.166, -2.523e-6, -1.312e-6, 1.211e-6
-0.167, -2.529e-6, -1.315e-6, 1.214e-6
-0.168, -2.522e-6, -1.308e-6, 1.213e-6
-0.169, -2.515e-6, -1.306e-6, 1.209e-6
-0.170, -2.519e-6, -1.309e-6, 1.211e-6
-0.171, -2.511e-6, -1.302e-6, 1.209e-6
-0.172, -2.518e-6, -1.313e-6, 1.205e-6
-0.173, -2.511e-6, -1.305e-6, 1.207e-6
-0.174, -2.507e-6, -1.302e-6, 1.206e-6
-0.175, -2.499e-6, -1.297e-6, 1.201e-6
-0.176, -2.504e-6, -1.300e-6, 1.204e-6
-0.177, -2.496e-6, -1.296e-6, 1.201e-6
-0.178, -2.497e-6, -1.298e-6, 1.199e-6
-0.179, -2.498e-6, -1.297e-6, 1.201e-6
-0.180, -2.488e-6, -1.290e-6, 1.198e-6
-0.181, -2.487e-6, -1.292e-6, 1.195e-6
-0.182, -2.489e-6, -1.294e-6, 1.196e-6
-0.183, -2.482e-6, -1.287e-6, 1.195e-6
-0.184, -2.480e-6, -1.289e-6, 1.192e-6
-0.185, -2.478e-6, -1.288e-6, 1.190e-6
-0.186, -2.475e-6, -1.285e-6, 1.190e-6
-0.187, -2.478e-6, -1.289e-6, 1.189e-6
-0.188, -2.468e-6, -1.279e-6, 1.189e-6
-0.189, -2.465e-6, -1.280e-6, 1.185e-6
-0.190, -2.465e-6, -1.281e-6, 1.184e-6
-0.191, -2.462e-6, -1.277e-6, 1.185e-6
-0.192, -2.462e-6, -1.279e-6, 1.183e-6
-0.193, -2.460e-6, -1.278e-6, 1.182e-6
-0.194, -2.456e-6, -1.274e-6, 1.182e-6
-0.195, -2.451e-6, -1.272e-6, 1.179e-6
-0.196, -2.456e-6, -1.278e-6, 1.178e-6
-0.197, -2.451e-6, -1.272e-6, 1.178e-6
-0.198, -2.447e-6, -1.271e-6, 1.176e-6
-0.199, -2.446e-6, -1.272e-6, 1.173e-6
-0.200, -2.442e-6, -1.268e-6, 1.174e-6
-0.201, -2.439e-6, -1.268e-6, 1.171e-6
-0.202, -2.437e-6, -1.266e-6, 1.171e-6
-0.203, -2.436e-6, -1.267e-6, 1.169e-6
-0.204, -2.437e-6, -1.269e-6, 1.168e-6
-0.205, -2.435e-6, -1.265e-6, 1.169e-6
-0.206, -2.426e-6, -1.260e-6, 1.166e-6
-0.207, -2.428e-6, -1.264e-6, 1.165e-6
-0.208, -2.424e-6, -1.259e-6, 1.164e-6
-0.209, -2.423e-6, -1.259e-6, 1.163e-6
-0.210, -2.423e-6, -1.262e-6, 1.162e-6
-0.211, -2.422e-6, -1.262e-6, 1.160e-6
-0.212, -2.417e-6, -1.258e-6, 1.159e-6
-0.213, -2.414e-6, -1.256e-6, 1.158e-6
-0.214, -2.413e-6, -1.255e-6, 1.159e-6
-0.215, -2.410e-6, -1.255e-6, 1.156e-6
-0.216, -2.407e-6, -1.253e-6, 1.155e-6
-0.217, -2.409e-6, -1.256e-6, 1.153e-6
-0.218, -2.406e-6, -1.254e-6, 1.152e-6
-0.219, -2.404e-6, -1.254e-6, 1.151e-6
-0.220, -2.399e-6, -1.248e-6, 1.151e-6
-0.221, -2.399e-6, -1.251e-6, 1.148e-6
-0.222, -2.396e-6, -1.249e-6, 1.147e-6
-0.223, -2.392e-6, -1.246e-6, 1.146e-6
-0.224, -2.394e-6, -1.250e-6, 1.144e-6
-0.225, -2.396e-6, -1.252e-6, 1.144e-6
-0.226, -2.388e-6, -1.244e-6, 1.143e-6
-0.227, -2.388e-6, -1.245e-6, 1.143e-6
-0.228, -2.390e-6, -1.246e-6, 1.144e-6
-0.229, -2.384e-6, -1.245e-6, 1.139e-6
-0.230, -2.385e-6, -1.247e-6, 1.138e-6
-0.231, -2.379e-6, -1.242e-6, 1.137e-6
-0.232, -2.376e-6, -1.240e-6, 1.136e-6
-0.233, -2.380e-6, -1.245e-6, 1.135e-6
-0.234, -2.373e-6, -1.238e-6, 1.135e-6
-0.235, -2.370e-6, -1.240e-6, 1.130e-6
-0.236, -2.374e-6, -1.242e-6, 1.132e-6
-0.237, -2.369e-6, -1.237e-6, 1.132e-6
-0.238, -2.366e-6, -1.237e-6, 1.129e-6
-0.239, -2.366e-6, -1.237e-6, 1.129e-6
-0.240, -2.366e-6, -1.237e-6, 1.129e-6
-0.241, -2.363e-6, -1.236e-6, 1.127e-6
-0.242, -2.366e-6, -1.242e-6, 1.125e-6
-0.243, -2.359e-6, -1.235e-6, 1.125e-6
-0.244, -2.354e-6, -1.233e-6, 1.121e-6
-0.245, -2.358e-6, -1.235e-6, 1.123e-6
-0.246, -2.358e-6, -1.236e-6, 1.122e-6
-0.247, -2.355e-6, -1.235e-6, 1.120e-6
-0.248, -2.350e-6, -1.232e-6, 1.119e-6
-0.249, -2.353e-6, -1.233e-6, 1.120e-6
-0.250, -2.347e-6, -1.233e-6, 1.114e-6
-0.251, -2.344e-6, -1.230e-6, 1.113e-6
-0.252, -2.346e-6, -1.231e-6, 1.115e-6
-0.253, -2.340e-6, -1.230e-6, 1.110e-6
-0.254, -2.347e-6, -1.234e-6, 1.113e-6
-0.255, -2.342e-6, -1.231e-6, 1.112e-6
-0.256, -2.338e-6, -1.228e-6, 1.109e-6
-0.257, -2.341e-6, -1.231e-6, 1.110e-6
-0.258, -2.336e-6, -1.226e-6, 1.110e-6
-0.259, -2.341e-6, -1.232e-6, 1.109e-6
-0.260, -2.335e-6, -1.228e-6, 1.107e-6
-0.261, -2.338e-6, -1.232e-6, 1.106e-6
-0.262, -2.341e-6, -1.234e-6, 1.107e-6
-0.263, -2.332e-6, -1.226e-6, 1.105e-6
-0.264, -2.331e-6, -1.226e-6, 1.105e-6
-0.265, -2.329e-6, -1.224e-6, 1.105e-6
-0.266, -2.332e-6, -1.229e-6, 1.103e-6
-0.267, -2.330e-6, -1.228e-6, 1.102e-6
-0.268, -2.323e-6, -1.223e-6, 1.100e-6
-0.269, -2.326e-6, -1.226e-6, 1.099e-6
-0.270, -2.327e-6, -1.230e-6, 1.097e-6
-0.271, -2.320e-6, -1.223e-6, 1.098e-6
-0.272, -2.323e-6, -1.224e-6, 1.099e-6
-0.273, -2.318e-6, -1.224e-6, 1.095e-6
-0.274, -2.318e-6, -1.223e-6, 1.095e-6
-0.275, -2.315e-6, -1.219e-6, 1.096e-6
-0.276, -2.317e-6, -1.222e-6, 1.095e-6
-0.277, -2.318e-6, -1.223e-6, 1.095e-6
-0.278, -2.312e-6, -1.219e-6, 1.092e-6
-0.279, -2.315e-6, -1.221e-6, 1.094e-6
-0.280, -2.314e-6, -1.222e-6, 1.091e-6
-0.281, -2.305e-6, -1.217e-6, 1.088e-6
-0.282, -2.309e-6, -1.219e-6, 1.090e-6
-0.283, -2.310e-6, -1.221e-6, 1.089e-6
-0.284, -2.309e-6, -1.220e-6, 1.089e-6
-0.285, -2.307e-6, -1.220e-6, 1.087e-6
-0.286, -2.303e-6, -1.214e-6, 1.089e-6
-0.287, -2.304e-6, -1.219e-6, 1.085e-6
-0.288, -2.308e-6, -1.224e-6, 1.083e-6
-0.289, -2.303e-6, -1.216e-6, 1.086e-6
-0.290, -2.305e-6, -1.221e-6, 1.085e-6
-0.291, -2.304e-6, -1.219e-6, 1.084e-6
-0.292, -2.304e-6, -1.220e-6, 1.084e-6
-0.293, -2.298e-6, -1.217e-6, 1.082e-6
-0.294, -2.297e-6, -1.216e-6, 1.081e-6
-0.295, -2.300e-6, -1.216e-6, 1.084e-6
-0.296, -2.299e-6, -1.220e-6, 1.080e-6
-0.297, -2.301e-6, -1.221e-6, 1.081e-6
-0.298, -2.294e-6, -1.213e-6, 1.081e-6
-0.299, -2.294e-6, -1.218e-6, 1.077e-6
-0.300, -2.296e-6, -1.217e-6, 1.079e-6
-0.301, -2.294e-6, -1.216e-6, 1.078e-6
-0.302, -2.295e-6, -1.219e-6, 1.076e-6
-0.303, -2.299e-6, -1.219e-6, 1.080e-6
-0.304, -2.291e-6, -1.213e-6, 1.078e-6
-0.305, -2.297e-6, -1.219e-6, 1.077e-6
-0.306, -2.295e-6, -1.218e-6, 1.077e-6
-0.307, -2.295e-6, -1.219e-6, 1.076e-6
-0.308, -2.291e-6, -1.217e-6, 1.073e-6
-0.309, -2.291e-6, -1.217e-6, 1.074e-6
-0.310, -2.292e-6, -1.218e-6, 1.074e-6
-0.311, -2.287e-6, -1.215e-6, 1.073e-6
-0.312, -2.295e-6, -1.221e-6, 1.074e-6
-0.313, -2.286e-6, -1.214e-6, 1.072e-6
-0.314, -2.296e-6, -1.223e-6, 1.073e-6
-0.315, -2.288e-6, -1.216e-6, 1.072e-6
-0.316, -2.281e-6, -1.212e-6, 1.070e-6
-0.317, -2.292e-6, -1.220e-6, 1.072e-6
-0.318, -2.294e-6, -1.223e-6, 1.071e-6
-0.319, -2.285e-6, -1.217e-6, 1.068e-6
-0.320, -2.287e-6, -1.218e-6, 1.070e-6
-0.321, -2.289e-6, -1.220e-6, 1.069e-6
-0.322, -2.288e-6, -1.221e-6, 1.067e-6
-0.323, -2.290e-6, -1.220e-6, 1.070e-6
-0.324, -2.288e-6, -1.221e-6, 1.067e-6
-0.325, -2.293e-6, -1.227e-6, 1.066e-6
-0.326, -2.286e-6, -1.219e-6, 1.067e-6
-0.327, -2.286e-6, -1.218e-6, 1.068e-6
-0.328, -2.287e-6, -1.221e-6, 1.066e-6
-0.329, -2.284e-6, -1.217e-6, 1.067e-6
-0.330, -2.288e-6, -1.223e-6, 1.065e-6
-0.331, -2.292e-6, -1.227e-6, 1.065e-6
-0.332, -2.282e-6, -1.218e-6, 1.064e-6
-0.333, -2.284e-6, -1.222e-6, 1.062e-6
-0.334, -2.283e-6, -1.221e-6, 1.062e-6
-0.335, -2.281e-6, -1.219e-6, 1.062e-6
-0.336, -2.283e-6, -1.220e-6, 1.063e-6
-0.337, -2.280e-6, -1.219e-6, 1.061e-6
-0.338, -2.284e-6, -1.223e-6, 1.062e-6
-0.339, -2.284e-6, -1.222e-6, 1.062e-6
-0.340, -2.287e-6, -1.225e-6, 1.062e-6
-0.341, -2.284e-6, -1.222e-6, 1.063e-6
-0.342, -2.283e-6, -1.223e-6, 1.060e-6
-0.343, -2.283e-6, -1.224e-6, 1.059e-6
-0.344, -2.281e-6, -1.223e-6, 1.059e-6
-0.345, -2.283e-6, -1.227e-6, 1.056e-6
-0.346, -2.283e-6, -1.225e-6, 1.059e-6
-0.347, -2.280e-6, -1.222e-6, 1.058e-6
-0.348, -2.287e-6, -1.231e-6, 1.056e-6
-0.349, -2.278e-6, -1.223e-6, 1.056e-6
-0.350, -2.281e-6, -1.223e-6, 1.058e-6
-0.351, -2.280e-6, -1.226e-6, 1.054e-6
-0.352, -2.284e-6, -1.227e-6, 1.057e-6
-0.353, -2.282e-6, -1.227e-6, 1.055e-6
-0.354, -2.280e-6, -1.227e-6, 1.054e-6
-0.355, -2.279e-6, -1.225e-6, 1.055e-6
-0.356, -2.278e-6, -1.224e-6, 1.054e-6
-0.357, -2.279e-6, -1.227e-6, 1.051e-6
-0.358, -2.283e-6, -1.230e-6, 1.053e-6
-0.359, -2.278e-6, -1.226e-6, 1.052e-6
-0.360, -2.277e-6, -1.228e-6, 1.049e-6
-0.361, -2.277e-6, -1.225e-6, 1.052e-6
-0.362, -2.275e-6, -1.229e-6, 1.045e-6
-0.363, -2.274e-6, -1.226e-6, 1.048e-6
-0.364, -2.281e-6, -1.230e-6, 1.051e-6
-0.365, -2.275e-6, -1.230e-6, 1.046e-6
-0.366, -2.280e-6, -1.233e-6, 1.047e-6
-0.367, -2.280e-6, -1.231e-6, 1.048e-6
-0.368, -2.277e-6, -1.232e-6, 1.045e-6
-0.369, -2.280e-6, -1.234e-6, 1.046e-6
-0.370, -2.280e-6, -1.233e-6, 1.047e-6
-0.371, -2.275e-6, -1.233e-6, 1.042e-6
-0.372, -2.279e-6, -1.234e-6, 1.045e-6
-0.373, -2.276e-6, -1.231e-6, 1.045e-6
-0.374, -2.280e-6, -1.238e-6, 1.041e-6
-0.375, -2.276e-6, -1.234e-6, 1.041e-6
-0.376, -2.278e-6, -1.236e-6, 1.042e-6
-0.377, -2.276e-6, -1.238e-6, 1.039e-6
-0.378, -2.280e-6, -1.238e-6, 1.042e-6
-0.379, -2.280e-6, -1.240e-6, 1.040e-6
-0.380, -2.277e-6, -1.239e-6, 1.038e-6
-0.381, -2.281e-6, -1.241e-6, 1.040e-6
-0.382, -2.280e-6, -1.242e-6, 1.038e-6
-0.383, -2.275e-6, -1.239e-6, 1.037e-6
-0.384, -2.278e-6, -1.240e-6, 1.037e-6
-0.385, -2.276e-6, -1.240e-6, 1.036e-6
-0.386, -2.276e-6, -1.243e-6, 1.033e-6
-0.387, -2.280e-6, -1.246e-6, 1.034e-6
-0.388, -2.275e-6, -1.244e-6, 1.031e-6
-0.389, -2.278e-6, -1.246e-6, 1.032e-6
-0.390, -2.278e-6, -1.245e-6, 1.033e-6
-0.391, -2.276e-6, -1.244e-6, 1.031e-6
-0.392, -2.277e-6, -1.246e-6, 1.031e-6
-0.393, -2.278e-6, -1.249e-6, 1.029e-6
-0.394, -2.274e-6, -1.245e-6, 1.028e-6
-0.395, -2.281e-6, -1.253e-6, 1.028e-6
-0.396, -2.277e-6, -1.251e-6, 1.026e-6
-0.397, -2.278e-6, -1.252e-6, 1.026e-6
-0.398, -2.279e-6, -1.252e-6, 1.027e-6
-0.399, -2.281e-6, -1.255e-6, 1.026e-6
-0.400, -2.276e-6, -1.250e-6, 1.026e-6
