Mar. 20, 2018   15:44:19
Square Wave Voltammetry
File: c:\users\electrochemist\desktop\2018\20032018_unbufarray_unpap\56_g1_ph9,02_1.txt
Data Source:  Experiment
Instrument Model:  CHI1040A
Header: 
Note: 

Init E (V) = 0.7
Final E (V) = -0.4
Incr E (V) = 0.001
Amplitude (V) = 0.1
Frequency (Hz) = 152
Quiet Time (sec) = 2
Sensitivity (A/V) = 1e-6

Difference:

Forward:

Reverse:

Potential/V, Diff(i/A), For(i/A), Rev(i/A)

0.699, -9.783e-7, -2.481e-7, 7.302e-7
0.698, -1.148e-6, -4.956e-7, 6.527e-7
0.697, -1.147e-6, -5.155e-7, 6.316e-7
0.696, -1.138e-6, -5.182e-7, 6.200e-7
0.695, -1.135e-6, -5.243e-7, 6.106e-7
0.694, -1.127e-6, -5.213e-7, 6.060e-7
0.693, -1.122e-6, -5.210e-7, 6.008e-7
0.692, -1.122e-6, -5.234e-7, 5.984e-7
0.691, -1.116e-6, -5.225e-7, 5.938e-7
0.690, -1.110e-6, -5.213e-7, 5.886e-7
0.689, -1.110e-6, -5.246e-7, 5.852e-7
0.688, -1.109e-6, -5.228e-7, 5.859e-7
0.687, -1.103e-6, -5.228e-7, 5.807e-7
0.686, -1.101e-6, -5.255e-7, 5.758e-7
0.685, -1.099e-6, -5.222e-7, 5.767e-7
0.684, -1.096e-6, -5.237e-7, 5.718e-7
0.683, -1.091e-6, -5.219e-7, 5.691e-7
0.682, -1.088e-6, -5.188e-7, 5.697e-7
0.681, -1.087e-6, -5.231e-7, 5.642e-7
0.680, -1.086e-6, -5.240e-7, 5.621e-7
0.679, -1.081e-6, -5.203e-7, 5.608e-7
0.678, -1.081e-6, -5.237e-7, 5.578e-7
0.677, -1.081e-6, -5.234e-7, 5.581e-7
0.676, -1.078e-6, -5.203e-7, 5.575e-7
0.675, -1.077e-6, -5.252e-7, 5.520e-7
0.674, -1.073e-6, -5.237e-7, 5.492e-7
0.673, -1.068e-6, -5.203e-7, 5.480e-7
0.672, -1.069e-6, -5.243e-7, 5.447e-7
0.671, -1.073e-6, -5.228e-7, 5.502e-7
0.670, -1.067e-6, -5.203e-7, 5.468e-7
0.669, -1.065e-6, -5.246e-7, 5.401e-7
0.668, -1.064e-6, -5.216e-7, 5.425e-7
0.667, -1.061e-6, -5.225e-7, 5.389e-7
0.666, -1.058e-6, -5.216e-7, 5.361e-7
0.665, -1.061e-6, -5.228e-7, 5.383e-7
0.664, -1.056e-6, -5.194e-7, 5.370e-7
0.663, -1.056e-6, -5.228e-7, 5.331e-7
0.662, -1.057e-6, -5.206e-7, 5.361e-7
0.661, -1.054e-6, -5.203e-7, 5.337e-7
0.660, -1.052e-6, -5.219e-7, 5.303e-7
0.659, -1.054e-6, -5.225e-7, 5.312e-7
0.658, -1.051e-6, -5.222e-7, 5.291e-7
0.657, -1.049e-6, -5.234e-7, 5.260e-7
0.656, -1.051e-6, -5.225e-7, 5.285e-7
0.655, -1.046e-6, -5.219e-7, 5.239e-7
0.654, -1.048e-6, -5.249e-7, 5.227e-7
0.653, -1.047e-6, -5.228e-7, 5.242e-7
0.652, -1.046e-6, -5.225e-7, 5.239e-7
0.651, -1.049e-6, -5.249e-7, 5.236e-7
0.650, -1.047e-6, -5.231e-7, 5.242e-7
0.649, -1.041e-6, -5.225e-7, 5.187e-7
0.648, -1.045e-6, -5.237e-7, 5.209e-7
0.647, -1.045e-6, -5.216e-7, 5.239e-7
0.646, -1.043e-6, -5.258e-7, 5.172e-7
0.645, -1.039e-6, -5.216e-7, 5.172e-7
0.644, -1.042e-6, -5.243e-7, 5.172e-7
0.643, -1.040e-6, -5.243e-7, 5.157e-7
0.642, -1.040e-6, -5.234e-7, 5.169e-7
0.641, -1.039e-6, -5.246e-7, 5.148e-7
0.640, -1.038e-6, -5.246e-7, 5.129e-7
0.639, -1.039e-6, -5.234e-7, 5.154e-7
0.638, -1.034e-6, -5.222e-7, 5.123e-7
0.637, -1.037e-6, -5.258e-7, 5.111e-7
0.636, -1.037e-6, -5.243e-7, 5.129e-7
0.635, -1.036e-6, -5.237e-7, 5.123e-7
0.634, -1.039e-6, -5.274e-7, 5.117e-7
0.633, -1.034e-6, -5.234e-7, 5.111e-7
0.632, -1.033e-6, -5.243e-7, 5.086e-7
0.631, -1.036e-6, -5.268e-7, 5.090e-7
0.630, -1.036e-6, -5.255e-7, 5.105e-7
0.629, -1.035e-6, -5.274e-7, 5.080e-7
0.628, -1.034e-6, -5.274e-7, 5.068e-7
0.627, -1.031e-6, -5.255e-7, 5.053e-7
0.626, -1.034e-6, -5.283e-7, 5.056e-7
0.625, -1.035e-6, -5.271e-7, 5.077e-7
0.624, -1.033e-6, -5.255e-7, 5.071e-7
0.623, -1.030e-6, -5.258e-7, 5.038e-7
0.622, -1.035e-6, -5.289e-7, 5.059e-7
0.621, -1.032e-6, -5.261e-7, 5.056e-7
0.620, -1.033e-6, -5.292e-7, 5.035e-7
0.619, -1.032e-6, -5.280e-7, 5.041e-7
0.618, -1.025e-6, -5.246e-7, 5.001e-7
0.617, -1.032e-6, -5.289e-7, 5.029e-7
0.616, -1.032e-6, -5.274e-7, 5.044e-7
0.615, -1.026e-6, -5.268e-7, 4.989e-7
0.614, -1.032e-6, -5.298e-7, 5.025e-7
0.613, -1.030e-6, -5.274e-7, 5.029e-7
0.612, -1.026e-6, -5.271e-7, 4.989e-7
0.611, -1.030e-6, -5.289e-7, 5.013e-7
0.610, -1.028e-6, -5.271e-7, 5.013e-7
0.609, -1.029e-6, -5.292e-7, 4.998e-7
0.608, -1.031e-6, -5.307e-7, 4.998e-7
0.607, -1.027e-6, -5.261e-7, 5.010e-7
0.606, -1.025e-6, -5.298e-7, 4.955e-7
0.605, -1.032e-6, -5.313e-7, 5.004e-7
0.604, -1.027e-6, -5.289e-7, 4.983e-7
0.603, -1.027e-6, -5.319e-7, 4.949e-7
0.602, -1.027e-6, -5.322e-7, 4.946e-7
0.601, -1.030e-6, -5.295e-7, 5.004e-7
0.600, -1.024e-6, -5.286e-7, 4.949e-7
0.599, -1.028e-6, -5.319e-7, 4.958e-7
0.598, -1.026e-6, -5.277e-7, 4.980e-7
0.597, -1.029e-6, -5.338e-7, 4.949e-7
0.596, -1.027e-6, -5.329e-7, 4.943e-7
0.595, -1.027e-6, -5.307e-7, 4.964e-7
0.594, -1.027e-6, -5.319e-7, 4.946e-7
0.593, -1.025e-6, -5.313e-7, 4.940e-7
0.592, -1.026e-6, -5.316e-7, 4.940e-7
0.591, -1.027e-6, -5.335e-7, 4.934e-7
0.590, -1.030e-6, -5.353e-7, 4.946e-7
0.589, -1.028e-6, -5.341e-7, 4.937e-7
0.588, -1.027e-6, -5.356e-7, 4.919e-7
0.587, -1.027e-6, -5.341e-7, 4.934e-7
0.586, -1.028e-6, -5.344e-7, 4.940e-7
0.585, -1.029e-6, -5.353e-7, 4.940e-7
0.584, -1.024e-6, -5.325e-7, 4.910e-7
0.583, -1.027e-6, -5.347e-7, 4.922e-7
0.582, -1.035e-6, -5.356e-7, 4.995e-7
0.581, -1.030e-6, -5.353e-7, 4.943e-7
0.580, -1.027e-6, -5.368e-7, 4.906e-7
0.579, -1.028e-6, -5.359e-7, 4.925e-7
0.578, -1.026e-6, -5.338e-7, 4.919e-7
0.577, -1.027e-6, -5.380e-7, 4.888e-7
0.576, -1.029e-6, -5.374e-7, 4.919e-7
0.575, -1.027e-6, -5.359e-7, 4.910e-7
0.574, -1.027e-6, -5.383e-7, 4.888e-7
0.573, -1.030e-6, -5.368e-7, 4.934e-7
0.572, -1.027e-6, -5.371e-7, 4.900e-7
0.571, -1.031e-6, -5.377e-7, 4.928e-7
0.570, -1.030e-6, -5.368e-7, 4.931e-7
0.569, -1.027e-6, -5.374e-7, 4.900e-7
0.568, -1.030e-6, -5.396e-7, 4.903e-7
0.567, -1.032e-6, -5.383e-7, 4.940e-7
0.566, -1.029e-6, -5.380e-7, 4.913e-7
0.565, -1.034e-6, -5.426e-7, 4.910e-7
0.564, -1.030e-6, -5.390e-7, 4.913e-7
0.563, -1.029e-6, -5.399e-7, 4.894e-7
0.562, -1.033e-6, -5.408e-7, 4.919e-7
0.561, -1.031e-6, -5.393e-7, 4.913e-7
0.560, -1.032e-6, -5.417e-7, 4.906e-7
0.559, -1.038e-6, -5.432e-7, 4.946e-7
0.558, -1.034e-6, -5.411e-7, 4.928e-7
0.557, -1.033e-6, -5.435e-7, 4.891e-7
0.556, -1.035e-6, -5.435e-7, 4.916e-7
0.555, -1.033e-6, -5.411e-7, 4.919e-7
0.554, -1.036e-6, -5.466e-7, 4.891e-7
0.553, -1.038e-6, -5.448e-7, 4.928e-7
0.552, -1.036e-6, -5.435e-7, 4.922e-7
0.551, -1.039e-6, -5.472e-7, 4.919e-7
0.550, -1.041e-6, -5.469e-7, 4.940e-7
0.549, -1.037e-6, -5.451e-7, 4.919e-7
0.548, -1.042e-6, -5.490e-7, 4.925e-7
0.547, -1.043e-6, -5.499e-7, 4.934e-7
0.546, -1.040e-6, -5.457e-7, 4.940e-7
0.545, -1.040e-6, -5.490e-7, 4.906e-7
0.544, -1.042e-6, -5.481e-7, 4.940e-7
0.543, -1.041e-6, -5.496e-7, 4.916e-7
0.542, -1.040e-6, -5.506e-7, 4.897e-7
0.541, -1.047e-6, -5.506e-7, 4.964e-7
0.540, -1.039e-6, -5.472e-7, 4.922e-7
0.539, -1.045e-6, -5.518e-7, 4.937e-7
0.538, -1.044e-6, -5.499e-7, 4.940e-7
0.537, -1.045e-6, -5.502e-7, 4.946e-7
0.536, -1.046e-6, -5.536e-7, 4.922e-7
0.535, -1.047e-6, -5.515e-7, 4.958e-7
0.534, -1.048e-6, -5.536e-7, 4.946e-7
0.533, -1.049e-6, -5.551e-7, 4.934e-7
0.532, -1.046e-6, -5.512e-7, 4.952e-7
0.531, -1.050e-6, -5.551e-7, 4.946e-7
0.530, -1.052e-6, -5.560e-7, 4.955e-7
0.529, -1.051e-6, -5.551e-7, 4.955e-7
0.528, -1.050e-6, -5.548e-7, 4.955e-7
0.527, -1.053e-6, -5.570e-7, 4.964e-7
0.526, -1.052e-6, -5.573e-7, 4.949e-7
0.525, -1.054e-6, -5.576e-7, 4.967e-7
0.524, -1.056e-6, -5.591e-7, 4.971e-7
0.523, -1.055e-6, -5.588e-7, 4.964e-7
0.522, -1.059e-6, -5.615e-7, 4.971e-7
0.521, -1.058e-6, -5.597e-7, 4.980e-7
0.520, -1.055e-6, -5.591e-7, 4.958e-7
0.519, -1.059e-6, -5.609e-7, 4.977e-7
0.518, -1.060e-6, -5.625e-7, 4.974e-7
0.517, -1.062e-6, -5.640e-7, 4.980e-7
0.516, -1.062e-6, -5.646e-7, 4.977e-7
0.515, -1.061e-6, -5.618e-7, 4.995e-7
0.514, -1.062e-6, -5.628e-7, 4.992e-7
0.513, -1.066e-6, -5.667e-7, 4.992e-7
0.512, -1.066e-6, -5.655e-7, 5.001e-7
0.511, -1.064e-6, -5.661e-7, 4.980e-7
0.510, -1.071e-6, -5.698e-7, 5.010e-7
0.509, -1.067e-6, -5.655e-7, 5.019e-7
0.508, -1.067e-6, -5.670e-7, 4.995e-7
0.507, -1.070e-6, -5.695e-7, 5.010e-7
0.506, -1.071e-6, -5.689e-7, 5.025e-7
0.505, -1.070e-6, -5.701e-7, 4.998e-7
0.504, -1.070e-6, -5.707e-7, 4.998e-7
0.503, -1.074e-6, -5.704e-7, 5.038e-7
0.502, -1.074e-6, -5.728e-7, 5.010e-7
0.501, -1.073e-6, -5.713e-7, 5.016e-7
0.500, -1.074e-6, -5.710e-7, 5.025e-7
0.499, -1.075e-6, -5.734e-7, 5.013e-7
0.498, -1.080e-6, -5.747e-7, 5.050e-7
0.497, -1.076e-6, -5.731e-7, 5.025e-7
0.496, -1.075e-6, -5.741e-7, 5.010e-7
0.495, -1.075e-6, -5.725e-7, 5.025e-7
0.494, -1.079e-6, -5.747e-7, 5.041e-7
0.493, -1.082e-6, -5.783e-7, 5.038e-7
0.492, -1.082e-6, -5.753e-7, 5.065e-7
0.491, -1.079e-6, -5.777e-7, 5.010e-7
0.490, -1.081e-6, -5.786e-7, 5.029e-7
0.489, -1.081e-6, -5.774e-7, 5.032e-7
0.488, -1.082e-6, -5.783e-7, 5.035e-7
0.487, -1.089e-6, -5.811e-7, 5.080e-7
0.486, -1.086e-6, -5.789e-7, 5.074e-7
0.485, -1.082e-6, -5.795e-7, 5.025e-7
0.484, -1.088e-6, -5.817e-7, 5.065e-7
0.483, -1.088e-6, -5.805e-7, 5.080e-7
0.482, -1.087e-6, -5.826e-7, 5.047e-7
0.481, -1.091e-6, -5.844e-7, 5.065e-7
0.480, -1.092e-6, -5.823e-7, 5.093e-7
0.479, -1.088e-6, -5.835e-7, 5.044e-7
0.478, -1.095e-6, -5.863e-7, 5.083e-7
0.477, -1.092e-6, -5.850e-7, 5.065e-7
0.476, -1.093e-6, -5.863e-7, 5.065e-7
0.475, -1.095e-6, -5.866e-7, 5.080e-7
0.474, -1.093e-6, -5.844e-7, 5.090e-7
0.473, -1.095e-6, -5.881e-7, 5.068e-7
0.472, -1.095e-6, -5.881e-7, 5.071e-7
0.471, -1.097e-6, -5.872e-7, 5.096e-7
0.470, -1.098e-6, -5.899e-7, 5.077e-7
0.469, -1.098e-6, -5.878e-7, 5.102e-7
0.468, -1.103e-6, -5.902e-7, 5.126e-7
0.467, -1.101e-6, -5.902e-7, 5.108e-7
0.466, -1.103e-6, -5.905e-7, 5.123e-7
0.465, -1.099e-6, -5.918e-7, 5.077e-7
0.464, -1.104e-6, -5.942e-7, 5.099e-7
0.463, -1.104e-6, -5.930e-7, 5.114e-7
0.462, -1.106e-6, -5.939e-7, 5.117e-7
0.461, -1.107e-6, -5.948e-7, 5.126e-7
0.460, -1.104e-6, -5.936e-7, 5.105e-7
0.459, -1.106e-6, -5.948e-7, 5.111e-7
0.458, -1.114e-6, -5.994e-7, 5.141e-7
0.457, -1.110e-6, -5.972e-7, 5.123e-7
0.456, -1.109e-6, -5.966e-7, 5.120e-7
0.455, -1.111e-6, -5.979e-7, 5.132e-7
0.454, -1.111e-6, -5.972e-7, 5.135e-7
0.453, -1.113e-6, -5.997e-7, 5.135e-7
0.452, -1.115e-6, -5.997e-7, 5.151e-7
0.451, -1.114e-6, -5.997e-7, 5.141e-7
0.450, -1.118e-6, -6.021e-7, 5.157e-7
0.449, -1.119e-6, -6.027e-7, 5.166e-7
0.448, -1.118e-6, -6.021e-7, 5.160e-7
0.447, -1.120e-6, -6.043e-7, 5.160e-7
0.446, -1.121e-6, -6.037e-7, 5.175e-7
0.445, -1.123e-6, -6.046e-7, 5.184e-7
0.444, -1.124e-6, -6.079e-7, 5.157e-7
0.443, -1.122e-6, -6.049e-7, 5.169e-7
0.442, -1.127e-6, -6.073e-7, 5.193e-7
0.441, -1.127e-6, -6.101e-7, 5.172e-7
0.440, -1.126e-6, -6.073e-7, 5.190e-7
0.439, -1.128e-6, -6.101e-7, 5.175e-7
0.438, -1.132e-6, -6.101e-7, 5.215e-7
0.437, -1.130e-6, -6.110e-7, 5.193e-7
0.436, -1.132e-6, -6.131e-7, 5.193e-7
0.435, -1.133e-6, -6.110e-7, 5.221e-7
0.434, -1.134e-6, -6.137e-7, 5.202e-7
0.433, -1.134e-6, -6.146e-7, 5.196e-7
0.432, -1.141e-6, -6.156e-7, 5.257e-7
0.431, -1.136e-6, -6.156e-7, 5.209e-7
0.430, -1.143e-6, -6.189e-7, 5.236e-7
0.429, -1.144e-6, -6.195e-7, 5.242e-7
0.428, -1.139e-6, -6.162e-7, 5.230e-7
0.427, -1.143e-6, -6.198e-7, 5.236e-7
0.426, -1.148e-6, -6.210e-7, 5.273e-7
0.425, -1.146e-6, -6.214e-7, 5.251e-7
0.424, -1.150e-6, -6.241e-7, 5.263e-7
0.423, -1.152e-6, -6.235e-7, 5.282e-7
0.422, -1.149e-6, -6.229e-7, 5.263e-7
0.421, -1.151e-6, -6.262e-7, 5.248e-7
0.420, -1.153e-6, -6.250e-7, 5.285e-7
0.419, -1.152e-6, -6.247e-7, 5.276e-7
0.418, -1.152e-6, -6.262e-7, 5.254e-7
0.417, -1.160e-6, -6.290e-7, 5.309e-7
0.416, -1.156e-6, -6.272e-7, 5.288e-7
0.415, -1.161e-6, -6.311e-7, 5.297e-7
0.414, -1.160e-6, -6.302e-7, 5.300e-7
0.413, -1.161e-6, -6.311e-7, 5.303e-7
0.412, -1.163e-6, -6.317e-7, 5.312e-7
0.411, -1.168e-6, -6.342e-7, 5.334e-7
0.410, -1.167e-6, -6.333e-7, 5.334e-7
0.409, -1.168e-6, -6.360e-7, 5.321e-7
0.408, -1.170e-6, -6.348e-7, 5.355e-7
0.407, -1.170e-6, -6.351e-7, 5.349e-7
0.406, -1.174e-6, -6.381e-7, 5.361e-7
0.405, -1.173e-6, -6.391e-7, 5.340e-7
0.404, -1.176e-6, -6.394e-7, 5.364e-7
0.403, -1.179e-6, -6.406e-7, 5.389e-7
0.402, -1.177e-6, -6.403e-7, 5.364e-7
0.401, -1.179e-6, -6.427e-7, 5.358e-7
0.400, -1.182e-6, -6.424e-7, 5.401e-7
0.399, -1.182e-6, -6.424e-7, 5.395e-7
0.398, -1.181e-6, -6.430e-7, 5.376e-7
0.397, -1.190e-6, -6.467e-7, 5.434e-7
0.396, -1.190e-6, -6.485e-7, 5.410e-7
0.395, -1.191e-6, -6.482e-7, 5.431e-7
0.394, -1.190e-6, -6.473e-7, 5.431e-7
0.393, -1.190e-6, -6.500e-7, 5.401e-7
0.392, -1.193e-6, -6.503e-7, 5.428e-7
0.391, -1.195e-6, -6.503e-7, 5.450e-7
0.390, -1.196e-6, -6.531e-7, 5.428e-7
0.389, -1.197e-6, -6.525e-7, 5.447e-7
0.388, -1.200e-6, -6.537e-7, 5.459e-7
0.387, -1.199e-6, -6.537e-7, 5.453e-7
0.386, -1.203e-6, -6.568e-7, 5.465e-7
0.385, -1.204e-6, -6.571e-7, 5.471e-7
0.384, -1.204e-6, -6.568e-7, 5.477e-7
0.383, -1.208e-6, -6.583e-7, 5.492e-7
0.382, -1.207e-6, -6.583e-7, 5.483e-7
0.381, -1.211e-6, -6.635e-7, 5.477e-7
0.380, -1.213e-6, -6.635e-7, 5.498e-7
0.379, -1.211e-6, -6.610e-7, 5.505e-7
0.378, -1.215e-6, -6.644e-7, 5.508e-7
0.377, -1.217e-6, -6.656e-7, 5.517e-7
0.376, -1.214e-6, -6.659e-7, 5.480e-7
0.375, -1.220e-6, -6.680e-7, 5.517e-7
0.374, -1.221e-6, -6.665e-7, 5.547e-7
0.373, -1.218e-6, -6.680e-7, 5.498e-7
0.372, -1.226e-6, -6.705e-7, 5.550e-7
0.371, -1.228e-6, -6.708e-7, 5.575e-7
0.370, -1.227e-6, -6.720e-7, 5.547e-7
0.369, -1.229e-6, -6.741e-7, 5.547e-7
0.368, -1.232e-6, -6.726e-7, 5.590e-7
0.367, -1.232e-6, -6.757e-7, 5.566e-7
0.366, -1.233e-6, -6.787e-7, 5.547e-7
0.365, -1.234e-6, -6.738e-7, 5.605e-7
0.364, -1.237e-6, -6.793e-7, 5.572e-7
0.363, -1.239e-6, -6.802e-7, 5.587e-7
0.362, -1.240e-6, -6.775e-7, 5.624e-7
0.361, -1.237e-6, -6.790e-7, 5.578e-7
0.360, -1.244e-6, -6.827e-7, 5.608e-7
0.359, -1.246e-6, -6.818e-7, 5.645e-7
0.358, -1.243e-6, -6.836e-7, 5.590e-7
0.357, -1.246e-6, -6.842e-7, 5.617e-7
0.356, -1.249e-6, -6.848e-7, 5.642e-7
0.355, -1.249e-6, -6.864e-7, 5.627e-7
0.354, -1.255e-6, -6.894e-7, 5.654e-7
0.353, -1.253e-6, -6.876e-7, 5.651e-7
0.352, -1.257e-6, -6.915e-7, 5.651e-7
0.351, -1.257e-6, -6.918e-7, 5.651e-7
0.350, -1.258e-6, -6.903e-7, 5.682e-7
0.349, -1.259e-6, -6.921e-7, 5.672e-7
0.348, -1.259e-6, -6.931e-7, 5.657e-7
0.347, -1.262e-6, -6.934e-7, 5.685e-7
0.346, -1.267e-6, -6.958e-7, 5.709e-7
0.345, -1.265e-6, -6.961e-7, 5.688e-7
0.344, -1.266e-6, -6.964e-7, 5.694e-7
0.343, -1.270e-6, -7.010e-7, 5.691e-7
0.342, -1.271e-6, -6.989e-7, 5.724e-7
0.341, -1.273e-6, -7.019e-7, 5.715e-7
0.340, -1.275e-6, -7.025e-7, 5.724e-7
0.339, -1.273e-6, -7.004e-7, 5.721e-7
0.338, -1.280e-6, -7.044e-7, 5.755e-7
0.337, -1.281e-6, -7.056e-7, 5.755e-7
0.336, -1.278e-6, -7.050e-7, 5.727e-7
0.335, -1.282e-6, -7.071e-7, 5.752e-7
0.334, -1.288e-6, -7.083e-7, 5.801e-7
0.333, -1.284e-6, -7.083e-7, 5.758e-7
0.332, -1.288e-6, -7.117e-7, 5.761e-7
0.331, -1.289e-6, -7.114e-7, 5.779e-7
0.330, -1.293e-6, -7.129e-7, 5.797e-7
0.329, -1.296e-6, -7.147e-7, 5.810e-7
0.328, -1.295e-6, -7.141e-7, 5.810e-7
0.327, -1.295e-6, -7.150e-7, 5.804e-7
0.326, -1.300e-6, -7.184e-7, 5.819e-7
0.325, -1.300e-6, -7.172e-7, 5.828e-7
0.324, -1.304e-6, -7.184e-7, 5.855e-7
0.323, -1.305e-6, -7.208e-7, 5.837e-7
0.322, -1.306e-6, -7.193e-7, 5.868e-7
0.321, -1.308e-6, -7.233e-7, 5.849e-7
0.320, -1.314e-6, -7.263e-7, 5.874e-7
0.319, -1.314e-6, -7.239e-7, 5.898e-7
0.318, -1.314e-6, -7.260e-7, 5.877e-7
0.317, -1.318e-6, -7.282e-7, 5.901e-7
0.316, -1.317e-6, -7.272e-7, 5.898e-7
0.315, -1.320e-6, -7.297e-7, 5.907e-7
0.314, -1.323e-6, -7.312e-7, 5.913e-7
0.313, -1.323e-6, -7.318e-7, 5.913e-7
0.312, -1.325e-6, -7.349e-7, 5.904e-7
0.311, -1.328e-6, -7.346e-7, 5.935e-7
0.310, -1.329e-6, -7.343e-7, 5.950e-7
0.309, -1.332e-6, -7.370e-7, 5.947e-7
0.308, -1.337e-6, -7.385e-7, 5.987e-7
0.307, -1.334e-6, -7.391e-7, 5.953e-7
0.306, -1.342e-6, -7.440e-7, 5.984e-7
0.305, -1.345e-6, -7.437e-7, 6.014e-7
0.304, -1.342e-6, -7.434e-7, 5.990e-7
0.303, -1.344e-6, -7.443e-7, 5.996e-7
0.302, -1.350e-6, -7.471e-7, 6.032e-7
0.301, -1.346e-6, -7.456e-7, 6.008e-7
0.300, -1.351e-6, -7.507e-7, 6.005e-7
0.299, -1.359e-6, -7.517e-7, 6.069e-7
0.298, -1.355e-6, -7.507e-7, 6.039e-7
0.297, -1.358e-6, -7.532e-7, 6.045e-7
0.296, -1.361e-6, -7.535e-7, 6.075e-7
0.295, -1.362e-6, -7.547e-7, 6.069e-7
0.294, -1.363e-6, -7.568e-7, 6.066e-7
0.293, -1.371e-6, -7.599e-7, 6.109e-7
0.292, -1.366e-6, -7.578e-7, 6.087e-7
0.291, -1.371e-6, -7.605e-7, 6.109e-7
0.290, -1.373e-6, -7.608e-7, 6.124e-7
0.289, -1.376e-6, -7.654e-7, 6.109e-7
0.288, -1.378e-6, -7.648e-7, 6.133e-7
0.287, -1.380e-6, -7.642e-7, 6.158e-7
0.286, -1.382e-6, -7.672e-7, 6.151e-7
0.285, -1.384e-6, -7.690e-7, 6.151e-7
0.284, -1.390e-6, -7.700e-7, 6.200e-7
0.283, -1.390e-6, -7.721e-7, 6.179e-7
0.282, -1.394e-6, -7.742e-7, 6.200e-7
0.281, -1.394e-6, -7.733e-7, 6.203e-7
0.280, -1.399e-6, -7.767e-7, 6.228e-7
0.279, -1.403e-6, -7.794e-7, 6.237e-7
0.278, -1.400e-6, -7.776e-7, 6.228e-7
0.277, -1.407e-6, -7.813e-7, 6.258e-7
0.276, -1.410e-6, -7.831e-7, 6.270e-7
0.275, -1.409e-6, -7.831e-7, 6.255e-7
0.274, -1.414e-6, -7.871e-7, 6.270e-7
0.273, -1.415e-6, -7.861e-7, 6.292e-7
0.272, -1.417e-6, -7.877e-7, 6.292e-7
0.271, -1.419e-6, -7.874e-7, 6.313e-7
0.270, -1.421e-6, -7.880e-7, 6.325e-7
0.269, -1.419e-6, -7.913e-7, 6.274e-7
0.268, -1.426e-6, -7.941e-7, 6.319e-7
0.267, -1.428e-6, -7.935e-7, 6.347e-7
0.266, -1.428e-6, -7.956e-7, 6.328e-7
0.265, -1.433e-6, -7.977e-7, 6.353e-7
0.264, -1.434e-6, -7.968e-7, 6.371e-7
0.263, -1.437e-6, -8.002e-7, 6.365e-7
0.262, -1.440e-6, -8.017e-7, 6.380e-7
0.261, -1.442e-6, -8.008e-7, 6.411e-7
0.260, -1.446e-6, -8.054e-7, 6.408e-7
0.259, -1.448e-6, -8.054e-7, 6.429e-7
0.258, -1.447e-6, -8.060e-7, 6.414e-7
0.257, -1.452e-6, -8.106e-7, 6.411e-7
0.256, -1.454e-6, -8.084e-7, 6.457e-7
0.255, -1.454e-6, -8.109e-7, 6.435e-7
0.254, -1.460e-6, -8.151e-7, 6.444e-7
0.253, -1.462e-6, -8.121e-7, 6.499e-7
0.252, -1.463e-6, -8.160e-7, 6.469e-7
0.251, -1.468e-6, -8.185e-7, 6.490e-7
0.250, -1.468e-6, -8.167e-7, 6.515e-7
0.249, -1.468e-6, -8.185e-7, 6.499e-7
0.248, -1.472e-6, -8.206e-7, 6.518e-7
0.247, -1.477e-6, -8.221e-7, 6.551e-7
0.246, -1.477e-6, -8.237e-7, 6.533e-7
0.245, -1.480e-6, -8.261e-7, 6.542e-7
0.244, -1.485e-6, -8.270e-7, 6.579e-7
0.243, -1.486e-6, -8.286e-7, 6.570e-7
0.242, -1.489e-6, -8.295e-7, 6.591e-7
0.241, -1.493e-6, -8.313e-7, 6.612e-7
0.240, -1.492e-6, -8.328e-7, 6.588e-7
0.239, -1.498e-6, -8.362e-7, 6.621e-7
0.238, -1.498e-6, -8.350e-7, 6.631e-7
0.237, -1.499e-6, -8.365e-7, 6.628e-7
0.236, -1.505e-6, -8.392e-7, 6.655e-7
0.235, -1.507e-6, -8.402e-7, 6.667e-7
0.234, -1.506e-6, -8.414e-7, 6.649e-7
0.233, -1.513e-6, -8.444e-7, 6.682e-7
0.232, -1.513e-6, -8.441e-7, 6.689e-7
0.231, -1.516e-6, -8.466e-7, 6.692e-7
0.230, -1.517e-6, -8.466e-7, 6.704e-7
0.229, -1.520e-6, -8.481e-7, 6.716e-7
0.228, -1.525e-6, -8.521e-7, 6.728e-7
0.227, -1.525e-6, -8.514e-7, 6.731e-7
0.226, -1.528e-6, -8.533e-7, 6.750e-7
0.225, -1.530e-6, -8.554e-7, 6.743e-7
0.224, -1.532e-6, -8.575e-7, 6.747e-7
0.223, -1.533e-6, -8.582e-7, 6.747e-7
0.222, -1.539e-6, -8.600e-7, 6.789e-7
0.221, -1.543e-6, -8.630e-7, 6.804e-7
0.220, -1.543e-6, -8.636e-7, 6.798e-7
0.219, -1.548e-6, -8.643e-7, 6.835e-7
0.218, -1.549e-6, -8.658e-7, 6.829e-7
0.217, -1.553e-6, -8.698e-7, 6.835e-7
0.216, -1.557e-6, -8.710e-7, 6.862e-7
0.215, -1.557e-6, -8.701e-7, 6.869e-7
0.214, -1.562e-6, -8.752e-7, 6.872e-7
0.213, -1.562e-6, -8.737e-7, 6.887e-7
0.212, -1.566e-6, -8.759e-7, 6.899e-7
0.211, -1.567e-6, -8.771e-7, 6.899e-7
0.210, -1.576e-6, -8.804e-7, 6.954e-7
0.209, -1.576e-6, -8.841e-7, 6.924e-7
0.208, -1.579e-6, -8.853e-7, 6.939e-7
0.207, -1.579e-6, -8.838e-7, 6.954e-7
0.206, -1.582e-6, -8.853e-7, 6.969e-7
0.205, -1.587e-6, -8.893e-7, 6.975e-7
0.204, -1.593e-6, -8.920e-7, 7.006e-7
0.203, -1.592e-6, -8.914e-7, 7.003e-7
0.202, -1.596e-6, -8.957e-7, 7.006e-7
0.201, -1.600e-6, -8.963e-7, 7.036e-7
0.200, -1.602e-6, -8.981e-7, 7.043e-7
0.199, -1.609e-6, -9.012e-7, 7.082e-7
0.198, -1.609e-6, -9.009e-7, 7.079e-7
0.197, -1.612e-6, -9.036e-7, 7.082e-7
0.196, -1.615e-6, -9.058e-7, 7.088e-7
0.195, -1.617e-6, -9.033e-7, 7.134e-7
0.194, -1.625e-6, -9.125e-7, 7.125e-7
0.193, -1.627e-6, -9.131e-7, 7.140e-7
0.192, -1.629e-6, -9.125e-7, 7.162e-7
0.191, -1.634e-6, -9.174e-7, 7.165e-7
0.190, -1.639e-6, -9.201e-7, 7.186e-7
0.189, -1.640e-6, -9.186e-7, 7.216e-7
0.188, -1.641e-6, -9.216e-7, 7.189e-7
0.187, -1.645e-6, -9.225e-7, 7.226e-7
0.186, -1.647e-6, -9.244e-7, 7.229e-7
0.185, -1.653e-6, -9.290e-7, 7.238e-7
0.184, -1.657e-6, -9.302e-7, 7.265e-7
0.183, -1.660e-6, -9.317e-7, 7.287e-7
0.182, -1.664e-6, -9.357e-7, 7.281e-7
0.181, -1.666e-6, -9.351e-7, 7.314e-7
0.180, -1.668e-6, -9.381e-7, 7.302e-7
0.179, -1.672e-6, -9.402e-7, 7.317e-7
0.178, -1.677e-6, -9.430e-7, 7.339e-7
0.177, -1.680e-6, -9.451e-7, 7.351e-7
0.176, -1.685e-6, -9.494e-7, 7.360e-7
0.175, -1.692e-6, -9.500e-7, 7.418e-7
0.174, -1.691e-6, -9.500e-7, 7.412e-7
0.173, -1.694e-6, -9.531e-7, 7.412e-7
0.172, -1.699e-6, -9.549e-7, 7.439e-7
0.171, -1.702e-6, -9.586e-7, 7.439e-7
0.170, -1.709e-6, -9.628e-7, 7.461e-7
0.169, -1.712e-6, -9.619e-7, 7.500e-7
0.168, -1.715e-6, -9.662e-7, 7.485e-7
0.167, -1.719e-6, -9.674e-7, 7.512e-7
0.166, -1.721e-6, -9.692e-7, 7.522e-7
0.165, -1.727e-6, -9.732e-7, 7.540e-7
0.164, -1.730e-6, -9.744e-7, 7.552e-7
0.163, -1.737e-6, -9.790e-7, 7.577e-7
0.162, -1.740e-6, -9.808e-7, 7.595e-7
0.161, -1.744e-6, -9.811e-7, 7.628e-7
0.160, -1.746e-6, -9.836e-7, 7.625e-7
0.159, -1.751e-6, -9.878e-7, 7.635e-7
0.158, -1.755e-6, -9.866e-7, 7.683e-7
0.157, -1.757e-6, -9.912e-7, 7.659e-7
0.156, -1.764e-6, -9.946e-7, 7.696e-7
0.155, -1.767e-6, -9.952e-7, 7.720e-7
0.154, -1.771e-6, -9.994e-7, 7.717e-7
0.153, -1.776e-6, -1.002e-6, 7.738e-7
0.152, -1.778e-6, -1.002e-6, 7.760e-7
0.151, -1.784e-6, -1.006e-6, 7.775e-7
0.150, -1.789e-6, -1.008e-6, 7.805e-7
0.149, -1.791e-6, -1.009e-6, 7.818e-7
0.148, -1.797e-6, -1.015e-6, 7.824e-7
0.147, -1.803e-6, -1.017e-6, 7.863e-7
0.146, -1.806e-6, -1.018e-6, 7.882e-7
0.145, -1.809e-6, -1.023e-6, 7.866e-7
0.144, -1.817e-6, -1.025e-6, 7.921e-7
0.143, -1.821e-6, -1.026e-6, 7.943e-7
0.142, -1.823e-6, -1.031e-6, 7.912e-7
0.141, -1.828e-6, -1.031e-6, 7.964e-7
0.140, -1.831e-6, -1.034e-6, 7.973e-7
0.139, -1.837e-6, -1.039e-6, 7.982e-7
0.138, -1.842e-6, -1.039e-6, 8.022e-7
0.137, -1.844e-6, -1.040e-6, 8.040e-7
0.136, -1.850e-6, -1.046e-6, 8.050e-7
0.135, -1.854e-6, -1.048e-6, 8.059e-7
0.134, -1.857e-6, -1.050e-6, 8.068e-7
0.133, -1.861e-6, -1.053e-6, 8.077e-7
0.132, -1.868e-6, -1.054e-6, 8.138e-7
0.131, -1.869e-6, -1.058e-6, 8.111e-7
0.130, -1.876e-6, -1.062e-6, 8.141e-7
0.129, -1.880e-6, -1.062e-6, 8.181e-7
0.128, -1.881e-6, -1.066e-6, 8.150e-7
0.127, -1.890e-6, -1.070e-6, 8.199e-7
0.126, -1.893e-6, -1.071e-6, 8.220e-7
0.125, -1.896e-6, -1.073e-6, 8.223e-7
0.124, -1.904e-6, -1.079e-6, 8.248e-7
0.123, -1.911e-6, -1.080e-6, 8.312e-7
0.122, -1.913e-6, -1.083e-6, 8.300e-7
0.121, -1.919e-6, -1.087e-6, 8.312e-7
0.120, -1.923e-6, -1.087e-6, 8.358e-7
0.119, -1.927e-6, -1.091e-6, 8.364e-7
0.118, -1.935e-6, -1.097e-6, 8.376e-7
0.117, -1.938e-6, -1.097e-6, 8.410e-7
0.116, -1.941e-6, -1.100e-6, 8.419e-7
0.115, -1.949e-6, -1.103e-6, 8.461e-7
0.114, -1.949e-6, -1.105e-6, 8.440e-7
0.113, -1.957e-6, -1.110e-6, 8.471e-7
0.112, -1.962e-6, -1.112e-6, 8.501e-7
0.111, -1.964e-6, -1.114e-6, 8.504e-7
0.110, -1.969e-6, -1.116e-6, 8.532e-7
0.109, -1.976e-6, -1.118e-6, 8.577e-7
0.108, -1.981e-6, -1.123e-6, 8.581e-7
0.107, -1.985e-6, -1.126e-6, 8.584e-7
0.106, -1.994e-6, -1.130e-6, 8.642e-7
0.105, -1.994e-6, -1.131e-6, 8.635e-7
0.104, -2.002e-6, -1.136e-6, 8.657e-7
0.103, -2.004e-6, -1.135e-6, 8.687e-7
0.102, -2.011e-6, -1.142e-6, 8.687e-7
0.101, -2.014e-6, -1.143e-6, 8.703e-7
0.100, -2.019e-6, -1.145e-6, 8.739e-7
0.099, -2.025e-6, -1.149e-6, 8.757e-7
0.098, -2.033e-6, -1.154e-6, 8.791e-7
0.097, -2.036e-6, -1.154e-6, 8.815e-7
0.096, -2.042e-6, -1.159e-6, 8.825e-7
0.095, -2.046e-6, -1.161e-6, 8.852e-7
0.094, -2.051e-6, -1.163e-6, 8.873e-7
0.093, -2.056e-6, -1.168e-6, 8.873e-7
0.092, -2.064e-6, -1.170e-6, 8.941e-7
0.091, -2.069e-6, -1.175e-6, 8.941e-7
0.090, -2.074e-6, -1.177e-6, 8.965e-7
0.089, -2.079e-6, -1.178e-6, 9.011e-7
0.088, -2.085e-6, -1.183e-6, 9.017e-7
0.087, -2.092e-6, -1.189e-6, 9.029e-7
0.086, -2.097e-6, -1.190e-6, 9.069e-7
0.085, -2.099e-6, -1.192e-6, 9.072e-7
0.084, -2.106e-6, -1.196e-6, 9.099e-7
0.083, -2.111e-6, -1.197e-6, 9.139e-7
0.082, -2.115e-6, -1.201e-6, 9.139e-7
0.081, -2.122e-6, -1.205e-6, 9.173e-7
0.080, -2.128e-6, -1.205e-6, 9.221e-7
0.079, -2.135e-6, -1.212e-6, 9.234e-7
0.078, -2.143e-6, -1.215e-6, 9.273e-7
0.077, -2.145e-6, -1.217e-6, 9.279e-7
0.076, -2.150e-6, -1.221e-6, 9.288e-7
0.075, -2.155e-6, -1.223e-6, 9.319e-7
0.074, -2.161e-6, -1.226e-6, 9.353e-7
0.073, -2.165e-6, -1.230e-6, 9.359e-7
0.072, -2.177e-6, -1.234e-6, 9.429e-7
0.071, -2.178e-6, -1.234e-6, 9.441e-7
0.070, -2.184e-6, -1.240e-6, 9.441e-7
0.069, -2.192e-6, -1.243e-6, 9.493e-7
0.068, -2.197e-6, -1.244e-6, 9.523e-7
0.067, -2.202e-6, -1.249e-6, 9.526e-7
0.066, -2.214e-6, -1.255e-6, 9.584e-7
0.065, -2.215e-6, -1.255e-6, 9.606e-7
0.064, -2.221e-6, -1.259e-6, 9.612e-7
0.063, -2.228e-6, -1.263e-6, 9.655e-7
0.062, -2.230e-6, -1.263e-6, 9.670e-7
0.061, -2.235e-6, -1.268e-6, 9.670e-7
0.060, -2.245e-6, -1.271e-6, 9.746e-7
0.059, -2.247e-6, -1.272e-6, 9.749e-7
0.058, -2.253e-6, -1.277e-6, 9.765e-7
0.057, -2.258e-6, -1.277e-6, 9.807e-7
0.056, -2.264e-6, -1.282e-6, 9.822e-7
0.055, -2.272e-6, -1.288e-6, 9.838e-7
0.054, -2.277e-6, -1.289e-6, 9.877e-7
0.053, -2.281e-6, -1.292e-6, 9.893e-7
0.052, -2.290e-6, -1.298e-6, 9.920e-7
0.051, -2.295e-6, -1.297e-6, 9.981e-7
0.050, -2.297e-6, -1.299e-6, 9.975e-7
0.049, -2.308e-6, -1.304e-6, 1.004e-6
0.048, -2.312e-6, -1.307e-6, 1.005e-6
0.047, -2.319e-6, -1.312e-6, 1.008e-6
0.046, -2.322e-6, -1.313e-6, 1.009e-6
0.045, -2.328e-6, -1.315e-6, 1.013e-6
0.044, -2.334e-6, -1.318e-6, 1.016e-6
0.043, -2.342e-6, -1.323e-6, 1.019e-6
0.042, -2.345e-6, -1.323e-6, 1.022e-6
0.041, -2.350e-6, -1.327e-6, 1.023e-6
0.040, -2.359e-6, -1.331e-6, 1.028e-6
0.039, -2.363e-6, -1.331e-6, 1.031e-6
0.038, -2.369e-6, -1.336e-6, 1.033e-6
0.037, -2.375e-6, -1.338e-6, 1.037e-6
0.036, -2.381e-6, -1.343e-6, 1.038e-6
0.035, -2.387e-6, -1.345e-6, 1.042e-6
0.034, -2.392e-6, -1.347e-6, 1.045e-6
0.033, -2.395e-6, -1.350e-6, 1.045e-6
0.032, -2.401e-6, -1.352e-6, 1.050e-6
0.031, -2.405e-6, -1.353e-6, 1.052e-6
0.030, -2.410e-6, -1.356e-6, 1.054e-6
0.029, -2.417e-6, -1.360e-6, 1.057e-6
0.028, -2.421e-6, -1.362e-6, 1.060e-6
0.027, -2.427e-6, -1.366e-6, 1.061e-6
0.026, -2.435e-6, -1.370e-6, 1.065e-6
0.025, -2.442e-6, -1.372e-6, 1.070e-6
0.024, -2.440e-6, -1.372e-6, 1.068e-6
0.023, -2.449e-6, -1.376e-6, 1.072e-6
0.022, -2.452e-6, -1.377e-6, 1.075e-6
0.021, -2.459e-6, -1.381e-6, 1.078e-6
0.020, -2.465e-6, -1.382e-6, 1.084e-6
0.019, -2.465e-6, -1.381e-6, 1.084e-6
0.018, -2.474e-6, -1.388e-6, 1.086e-6
0.017, -2.480e-6, -1.389e-6, 1.091e-6
0.016, -2.478e-6, -1.389e-6, 1.089e-6
0.015, -2.486e-6, -1.392e-6, 1.094e-6
0.014, -2.493e-6, -1.394e-6, 1.099e-6
0.013, -2.493e-6, -1.396e-6, 1.096e-6
0.012, -2.504e-6, -1.402e-6, 1.103e-6
0.011, -2.507e-6, -1.402e-6, 1.105e-6
0.010, -2.508e-6, -1.403e-6, 1.105e-6
0.009, -2.517e-6, -1.407e-6, 1.110e-6
0.008, -2.521e-6, -1.407e-6, 1.115e-6
0.007, -2.519e-6, -1.408e-6, 1.112e-6
0.006, -2.529e-6, -1.412e-6, 1.117e-6
0.005, -2.535e-6, -1.414e-6, 1.121e-6
0.004, -2.533e-6, -1.413e-6, 1.120e-6
0.003, -2.542e-6, -1.418e-6, 1.125e-6
0.002, -2.545e-6, -1.417e-6, 1.128e-6
0.001, -2.545e-6, -1.419e-6, 1.126e-6
0.000, -2.551e-6, -1.422e-6, 1.129e-6
-0.001, -2.556e-6, -1.422e-6, 1.134e-6
-0.002, -2.557e-6, -1.424e-6, 1.132e-6
-0.003, -2.567e-6, -1.429e-6, 1.138e-6
-0.004, -2.569e-6, -1.428e-6, 1.140e-6
-0.005, -2.570e-6, -1.428e-6, 1.142e-6
-0.006, -2.577e-6, -1.433e-6, 1.144e-6
-0.007, -2.581e-6, -1.433e-6, 1.149e-6
-0.008, -2.583e-6, -1.436e-6, 1.147e-6
-0.009, -2.588e-6, -1.435e-6, 1.153e-6
-0.010, -2.590e-6, -1.439e-6, 1.152e-6
-0.011, -2.592e-6, -1.439e-6, 1.153e-6
-0.012, -2.598e-6, -1.440e-6, 1.158e-6
-0.013, -2.600e-6, -1.439e-6, 1.161e-6
-0.014, -2.604e-6, -1.442e-6, 1.162e-6
-0.015, -2.607e-6, -1.443e-6, 1.164e-6
-0.016, -2.606e-6, -1.442e-6, 1.164e-6
-0.017, -2.611e-6, -1.443e-6, 1.168e-6
-0.018, -2.618e-6, -1.446e-6, 1.172e-6
-0.019, -2.617e-6, -1.445e-6, 1.171e-6
-0.020, -2.625e-6, -1.450e-6, 1.175e-6
-0.021, -2.623e-6, -1.447e-6, 1.176e-6
-0.022, -2.628e-6, -1.451e-6, 1.177e-6
-0.023, -2.634e-6, -1.453e-6, 1.181e-6
-0.024, -2.630e-6, -1.449e-6, 1.181e-6
-0.025, -2.635e-6, -1.452e-6, 1.183e-6
-0.026, -2.638e-6, -1.453e-6, 1.185e-6
-0.027, -2.639e-6, -1.453e-6, 1.186e-6
-0.028, -2.641e-6, -1.454e-6, 1.187e-6
-0.029, -2.648e-6, -1.455e-6, 1.193e-6
-0.030, -2.649e-6, -1.455e-6, 1.194e-6
-0.031, -2.651e-6, -1.457e-6, 1.194e-6
-0.032, -2.652e-6, -1.454e-6, 1.198e-6
-0.033, -2.652e-6, -1.456e-6, 1.196e-6
-0.034, -2.655e-6, -1.458e-6, 1.197e-6
-0.035, -2.658e-6, -1.455e-6, 1.203e-6
-0.036, -2.660e-6, -1.457e-6, 1.203e-6
-0.037, -2.663e-6, -1.458e-6, 1.205e-6
-0.038, -2.665e-6, -1.456e-6, 1.209e-6
-0.039, -2.664e-6, -1.458e-6, 1.206e-6
-0.040, -2.667e-6, -1.459e-6, 1.208e-6
-0.041, -2.670e-6, -1.457e-6, 1.213e-6
-0.042, -2.670e-6, -1.459e-6, 1.211e-6
-0.043, -2.674e-6, -1.460e-6, 1.214e-6
-0.044, -2.674e-6, -1.458e-6, 1.216e-6
-0.045, -2.678e-6, -1.462e-6, 1.216e-6
-0.046, -2.678e-6, -1.459e-6, 1.219e-6
-0.047, -2.677e-6, -1.457e-6, 1.219e-6
-0.048, -2.680e-6, -1.461e-6, 1.220e-6
-0.049, -2.683e-6, -1.460e-6, 1.223e-6
-0.050, -2.680e-6, -1.456e-6, 1.224e-6
-0.051, -2.680e-6, -1.457e-6, 1.223e-6
-0.052, -2.686e-6, -1.458e-6, 1.228e-6
-0.053, -2.683e-6, -1.457e-6, 1.226e-6
-0.054, -2.685e-6, -1.460e-6, 1.225e-6
-0.055, -2.690e-6, -1.459e-6, 1.231e-6
-0.056, -2.688e-6, -1.457e-6, 1.232e-6
-0.057, -2.688e-6, -1.458e-6, 1.229e-6
-0.058, -2.693e-6, -1.458e-6, 1.236e-6
-0.059, -2.693e-6, -1.458e-6, 1.235e-6
-0.060, -2.693e-6, -1.459e-6, 1.234e-6
-0.061, -2.695e-6, -1.455e-6, 1.240e-6
-0.062, -2.697e-6, -1.458e-6, 1.239e-6
-0.063, -2.693e-6, -1.456e-6, 1.237e-6
-0.064, -2.697e-6, -1.457e-6, 1.240e-6
-0.065, -2.695e-6, -1.453e-6, 1.242e-6
-0.066, -2.694e-6, -1.455e-6, 1.239e-6
-0.067, -2.695e-6, -1.452e-6, 1.243e-6
-0.068, -2.695e-6, -1.452e-6, 1.243e-6
-0.069, -2.696e-6, -1.452e-6, 1.244e-6
-0.070, -2.693e-6, -1.448e-6, 1.245e-6
-0.071, -2.697e-6, -1.452e-6, 1.245e-6
-0.072, -2.698e-6, -1.450e-6, 1.247e-6
-0.073, -2.696e-6, -1.449e-6, 1.247e-6
-0.074, -2.696e-6, -1.450e-6, 1.246e-6
-0.075, -2.693e-6, -1.446e-6, 1.247e-6
-0.076, -2.693e-6, -1.446e-6, 1.247e-6
-0.077, -2.696e-6, -1.447e-6, 1.250e-6
-0.078, -2.696e-6, -1.446e-6, 1.250e-6
-0.079, -2.692e-6, -1.442e-6, 1.250e-6
-0.080, -2.695e-6, -1.443e-6, 1.253e-6
-0.081, -2.693e-6, -1.441e-6, 1.252e-6
-0.082, -2.693e-6, -1.442e-6, 1.251e-6
-0.083, -2.691e-6, -1.439e-6, 1.252e-6
-0.084, -2.690e-6, -1.436e-6, 1.254e-6
-0.085, -2.688e-6, -1.436e-6, 1.252e-6
-0.086, -2.688e-6, -1.435e-6, 1.252e-6
-0.087, -2.688e-6, -1.434e-6, 1.254e-6
-0.088, -2.684e-6, -1.432e-6, 1.252e-6
-0.089, -2.686e-6, -1.432e-6, 1.254e-6
-0.090, -2.687e-6, -1.431e-6, 1.256e-6
-0.091, -2.685e-6, -1.433e-6, 1.252e-6
-0.092, -2.684e-6, -1.429e-6, 1.255e-6
-0.093, -2.683e-6, -1.427e-6, 1.256e-6
-0.094, -2.680e-6, -1.427e-6, 1.253e-6
-0.095, -2.680e-6, -1.425e-6, 1.255e-6
-0.096, -2.678e-6, -1.423e-6, 1.255e-6
-0.097, -2.677e-6, -1.422e-6, 1.254e-6
-0.098, -2.679e-6, -1.424e-6, 1.255e-6
-0.099, -2.675e-6, -1.418e-6, 1.256e-6
-0.100, -2.671e-6, -1.418e-6, 1.253e-6
-0.101, -2.669e-6, -1.415e-6, 1.254e-6
-0.102, -2.667e-6, -1.415e-6, 1.253e-6
-0.103, -2.668e-6, -1.415e-6, 1.253e-6
-0.104, -2.665e-6, -1.411e-6, 1.254e-6
-0.105, -2.664e-6, -1.410e-6, 1.255e-6
-0.106, -2.660e-6, -1.408e-6, 1.252e-6
-0.107, -2.659e-6, -1.407e-6, 1.253e-6
-0.108, -2.655e-6, -1.404e-6, 1.252e-6
-0.109, -2.656e-6, -1.404e-6, 1.252e-6
-0.110, -2.654e-6, -1.400e-6, 1.254e-6
-0.111, -2.653e-6, -1.401e-6, 1.251e-6
-0.112, -2.649e-6, -1.400e-6, 1.250e-6
-0.113, -2.646e-6, -1.395e-6, 1.251e-6
-0.114, -2.646e-6, -1.396e-6, 1.250e-6
-0.115, -2.640e-6, -1.391e-6, 1.249e-6
-0.116, -2.642e-6, -1.391e-6, 1.251e-6
-0.117, -2.639e-6, -1.392e-6, 1.247e-6
-0.118, -2.638e-6, -1.391e-6, 1.247e-6
-0.119, -2.637e-6, -1.387e-6, 1.250e-6
-0.120, -2.634e-6, -1.389e-6, 1.246e-6
-0.121, -2.631e-6, -1.385e-6, 1.246e-6
-0.122, -2.627e-6, -1.381e-6, 1.246e-6
-0.123, -2.625e-6, -1.381e-6, 1.244e-6
-0.124, -2.626e-6, -1.380e-6, 1.246e-6
-0.125, -2.622e-6, -1.376e-6, 1.246e-6
-0.126, -2.620e-6, -1.376e-6, 1.244e-6
-0.127, -2.616e-6, -1.373e-6, 1.243e-6
-0.128, -2.612e-6, -1.369e-6, 1.243e-6
-0.129, -2.612e-6, -1.372e-6, 1.240e-6
-0.130, -2.606e-6, -1.367e-6, 1.239e-6
-0.131, -2.607e-6, -1.368e-6, 1.239e-6
-0.132, -2.605e-6, -1.367e-6, 1.238e-6
-0.133, -2.601e-6, -1.364e-6, 1.238e-6
-0.134, -2.605e-6, -1.365e-6, 1.239e-6
-0.135, -2.596e-6, -1.360e-6, 1.236e-6
-0.136, -2.594e-6, -1.358e-6, 1.236e-6
-0.137, -2.593e-6, -1.359e-6, 1.234e-6
-0.138, -2.590e-6, -1.356e-6, 1.233e-6
-0.139, -2.587e-6, -1.355e-6, 1.232e-6
-0.140, -2.584e-6, -1.353e-6, 1.231e-6
-0.141, -2.580e-6, -1.351e-6, 1.229e-6
-0.142, -2.579e-6, -1.349e-6, 1.231e-6
-0.143, -2.575e-6, -1.347e-6, 1.228e-6
-0.144, -2.571e-6, -1.343e-6, 1.228e-6
-0.145, -2.571e-6, -1.343e-6, 1.229e-6
-0.146, -2.564e-6, -1.341e-6, 1.223e-6
-0.147, -2.565e-6, -1.340e-6, 1.226e-6
-0.148, -2.560e-6, -1.337e-6, 1.223e-6
-0.149, -2.557e-6, -1.335e-6, 1.222e-6
-0.150, -2.557e-6, -1.335e-6, 1.221e-6
-0.151, -2.549e-6, -1.331e-6, 1.218e-6
-0.152, -2.553e-6, -1.334e-6, 1.219e-6
-0.153, -2.551e-6, -1.332e-6, 1.218e-6
-0.154, -2.537e-6, -1.326e-6, 1.211e-6
-0.155, -2.542e-6, -1.326e-6, 1.216e-6
-0.156, -2.537e-6, -1.323e-6, 1.214e-6
-0.157, -2.535e-6, -1.323e-6, 1.212e-6
-0.158, -2.533e-6, -1.321e-6, 1.212e-6
-0.159, -2.533e-6, -1.322e-6, 1.211e-6
-0.160, -2.528e-6, -1.319e-6, 1.210e-6
-0.161, -2.536e-6, -1.325e-6, 1.211e-6
-0.162, -2.525e-6, -1.318e-6, 1.208e-6
-0.163, -2.521e-6, -1.316e-6, 1.205e-6
-0.164, -2.524e-6, -1.317e-6, 1.207e-6
-0.165, -2.518e-6, -1.313e-6, 1.205e-6
-0.166, -2.515e-6, -1.313e-6, 1.202e-6
-0.167, -2.514e-6, -1.311e-6, 1.203e-6
-0.168, -2.507e-6, -1.306e-6, 1.202e-6
-0.169, -2.510e-6, -1.312e-6, 1.197e-6
-0.170, -2.506e-6, -1.306e-6, 1.200e-6
-0.171, -2.500e-6, -1.304e-6, 1.197e-6
-0.172, -2.501e-6, -1.307e-6, 1.194e-6
-0.173, -2.503e-6, -1.307e-6, 1.196e-6
-0.174, -2.493e-6, -1.298e-6, 1.195e-6
-0.175, -2.491e-6, -1.300e-6, 1.191e-6
-0.176, -2.493e-6, -1.301e-6, 1.192e-6
-0.177, -2.484e-6, -1.294e-6, 1.190e-6
-0.178, -2.484e-6, -1.297e-6, 1.187e-6
-0.179, -2.482e-6, -1.292e-6, 1.190e-6
-0.180, -2.475e-6, -1.289e-6, 1.187e-6
-0.181, -2.478e-6, -1.294e-6, 1.185e-6
-0.182, -2.477e-6, -1.291e-6, 1.186e-6
-0.183, -2.474e-6, -1.291e-6, 1.182e-6
-0.184, -2.472e-6, -1.291e-6, 1.181e-6
-0.185, -2.469e-6, -1.286e-6, 1.183e-6
-0.186, -2.466e-6, -1.287e-6, 1.179e-6
-0.187, -2.467e-6, -1.288e-6, 1.179e-6
-0.188, -2.461e-6, -1.282e-6, 1.180e-6
-0.189, -2.458e-6, -1.282e-6, 1.175e-6
-0.190, -2.457e-6, -1.281e-6, 1.175e-6
-0.191, -2.461e-6, -1.287e-6, 1.175e-6
-0.192, -2.460e-6, -1.286e-6, 1.174e-6
-0.193, -2.447e-6, -1.276e-6, 1.171e-6
-0.194, -2.448e-6, -1.276e-6, 1.172e-6
-0.195, -2.448e-6, -1.280e-6, 1.168e-6
-0.196, -2.445e-6, -1.277e-6, 1.169e-6
-0.197, -2.443e-6, -1.278e-6, 1.165e-6
-0.198, -2.441e-6, -1.274e-6, 1.167e-6
-0.199, -2.441e-6, -1.277e-6, 1.164e-6
-0.200, -2.435e-6, -1.271e-6, 1.164e-6
-0.201, -2.438e-6, -1.276e-6, 1.162e-6
-0.202, -2.435e-6, -1.273e-6, 1.163e-6
-0.203, -2.429e-6, -1.268e-6, 1.160e-6
-0.204, -2.431e-6, -1.272e-6, 1.159e-6
-0.205, -2.427e-6, -1.269e-6, 1.157e-6
-0.206, -2.424e-6, -1.268e-6, 1.156e-6
-0.207, -2.423e-6, -1.270e-6, 1.153e-6
-0.208, -2.424e-6, -1.269e-6, 1.155e-6
-0.209, -2.422e-6, -1.269e-6, 1.153e-6
-0.210, -2.415e-6, -1.265e-6, 1.151e-6
-0.211, -2.417e-6, -1.265e-6, 1.152e-6
-0.212, -2.417e-6, -1.268e-6, 1.149e-6
-0.213, -2.424e-6, -1.274e-6, 1.150e-6
-0.214, -2.411e-6, -1.263e-6, 1.148e-6
-0.215, -2.412e-6, -1.265e-6, 1.147e-6
-0.216, -2.409e-6, -1.263e-6, 1.146e-6
-0.217, -2.404e-6, -1.260e-6, 1.144e-6
-0.218, -2.407e-6, -1.263e-6, 1.143e-6
-0.219, -2.398e-6, -1.255e-6, 1.143e-6
-0.220, -2.401e-6, -1.260e-6, 1.142e-6
-0.221, -2.398e-6, -1.260e-6, 1.138e-6
-0.222, -2.394e-6, -1.255e-6, 1.138e-6
-0.223, -2.392e-6, -1.256e-6, 1.137e-6
-0.224, -2.395e-6, -1.259e-6, 1.136e-6
-0.225, -2.391e-6, -1.255e-6, 1.136e-6
-0.226, -2.389e-6, -1.255e-6, 1.134e-6
-0.227, -2.391e-6, -1.258e-6, 1.134e-6
-0.228, -2.389e-6, -1.257e-6, 1.132e-6
-0.229, -2.382e-6, -1.253e-6, 1.129e-6
-0.230, -2.388e-6, -1.258e-6, 1.130e-6
-0.231, -2.379e-6, -1.250e-6, 1.129e-6
-0.232, -2.375e-6, -1.249e-6, 1.126e-6
-0.233, -2.375e-6, -1.249e-6, 1.126e-6
-0.234, -2.376e-6, -1.249e-6, 1.127e-6
-0.235, -2.373e-6, -1.250e-6, 1.123e-6
-0.236, -2.369e-6, -1.248e-6, 1.122e-6
-0.237, -2.375e-6, -1.248e-6, 1.127e-6
-0.238, -2.370e-6, -1.250e-6, 1.120e-6
-0.239, -2.371e-6, -1.252e-6, 1.119e-6
-0.240, -2.372e-6, -1.250e-6, 1.122e-6
-0.241, -2.364e-6, -1.247e-6, 1.117e-6
-0.242, -2.362e-6, -1.244e-6, 1.118e-6
-0.243, -2.365e-6, -1.246e-6, 1.119e-6
-0.244, -2.356e-6, -1.243e-6, 1.113e-6
-0.245, -2.358e-6, -1.244e-6, 1.114e-6
-0.246, -2.354e-6, -1.240e-6, 1.113e-6
-0.247, -2.358e-6, -1.246e-6, 1.113e-6
-0.248, -2.354e-6, -1.243e-6, 1.111e-6
-0.249, -2.355e-6, -1.244e-6, 1.111e-6
-0.250, -2.348e-6, -1.240e-6, 1.108e-6
-0.251, -2.352e-6, -1.245e-6, 1.107e-6
-0.252, -2.345e-6, -1.237e-6, 1.108e-6
-0.253, -2.346e-6, -1.240e-6, 1.106e-6
-0.254, -2.348e-6, -1.242e-6, 1.106e-6
-0.255, -2.345e-6, -1.240e-6, 1.105e-6
-0.256, -2.345e-6, -1.242e-6, 1.103e-6
-0.257, -2.344e-6, -1.243e-6, 1.101e-6
-0.258, -2.335e-6, -1.237e-6, 1.099e-6
-0.259, -2.344e-6, -1.243e-6, 1.101e-6
-0.260, -2.338e-6, -1.237e-6, 1.101e-6
-0.261, -2.339e-6, -1.241e-6, 1.098e-6
-0.262, -2.339e-6, -1.243e-6, 1.096e-6
-0.263, -2.344e-6, -1.246e-6, 1.098e-6
-0.264, -2.334e-6, -1.237e-6, 1.097e-6
-0.265, -2.335e-6, -1.239e-6, 1.096e-6
-0.266, -2.331e-6, -1.236e-6, 1.095e-6
-0.267, -2.333e-6, -1.238e-6, 1.095e-6
-0.268, -2.333e-6, -1.237e-6, 1.095e-6
-0.269, -2.325e-6, -1.232e-6, 1.093e-6
-0.270, -2.330e-6, -1.239e-6, 1.091e-6
-0.271, -2.331e-6, -1.239e-6, 1.092e-6
-0.272, -2.327e-6, -1.237e-6, 1.091e-6
-0.273, -2.325e-6, -1.235e-6, 1.090e-6
-0.274, -2.325e-6, -1.235e-6, 1.090e-6
-0.275, -2.325e-6, -1.236e-6, 1.089e-6
-0.276, -2.329e-6, -1.241e-6, 1.088e-6
-0.277, -2.325e-6, -1.237e-6, 1.088e-6
-0.278, -2.323e-6, -1.237e-6, 1.087e-6
-0.279, -2.323e-6, -1.238e-6, 1.085e-6
-0.280, -2.317e-6, -1.231e-6, 1.086e-6
-0.281, -2.317e-6, -1.234e-6, 1.083e-6
-0.282, -2.319e-6, -1.234e-6, 1.084e-6
-0.283, -2.317e-6, -1.234e-6, 1.084e-6
-0.284, -2.316e-6, -1.233e-6, 1.083e-6
-0.285, -2.314e-6, -1.234e-6, 1.080e-6
-0.286, -2.310e-6, -1.229e-6, 1.082e-6
-0.287, -2.319e-6, -1.240e-6, 1.079e-6
-0.288, -2.316e-6, -1.236e-6, 1.080e-6
-0.289, -2.321e-6, -1.241e-6, 1.080e-6
-0.290, -2.311e-6, -1.234e-6, 1.077e-6
-0.291, -2.314e-6, -1.235e-6, 1.079e-6
-0.292, -2.317e-6, -1.237e-6, 1.080e-6
-0.293, -2.316e-6, -1.238e-6, 1.079e-6
-0.294, -2.310e-6, -1.234e-6, 1.076e-6
-0.295, -2.312e-6, -1.234e-6, 1.077e-6
-0.296, -2.309e-6, -1.234e-6, 1.076e-6
-0.297, -2.317e-6, -1.242e-6, 1.076e-6
-0.298, -2.312e-6, -1.237e-6, 1.075e-6
-0.299, -2.308e-6, -1.234e-6, 1.073e-6
-0.300, -2.308e-6, -1.234e-6, 1.074e-6
-0.301, -2.305e-6, -1.231e-6, 1.074e-6
-0.302, -2.312e-6, -1.240e-6, 1.073e-6
-0.303, -2.308e-6, -1.234e-6, 1.074e-6
-0.304, -2.304e-6, -1.234e-6, 1.070e-6
-0.305, -2.309e-6, -1.238e-6, 1.071e-6
-0.306, -2.304e-6, -1.232e-6, 1.072e-6
-0.307, -2.308e-6, -1.237e-6, 1.070e-6
-0.308, -2.311e-6, -1.241e-6, 1.070e-6
-0.309, -2.306e-6, -1.234e-6, 1.071e-6
-0.310, -2.305e-6, -1.235e-6, 1.070e-6
-0.311, -2.305e-6, -1.237e-6, 1.068e-6
-0.312, -2.309e-6, -1.239e-6, 1.070e-6
-0.313, -2.305e-6, -1.237e-6, 1.068e-6
-0.314, -2.313e-6, -1.245e-6, 1.069e-6
-0.315, -2.309e-6, -1.243e-6, 1.066e-6
-0.316, -2.301e-6, -1.236e-6, 1.065e-6
-0.317, -2.306e-6, -1.238e-6, 1.068e-6
-0.318, -2.307e-6, -1.239e-6, 1.067e-6
-0.319, -2.307e-6, -1.241e-6, 1.066e-6
-0.320, -2.307e-6, -1.241e-6, 1.065e-6
-0.321, -2.303e-6, -1.237e-6, 1.066e-6
-0.322, -2.306e-6, -1.241e-6, 1.065e-6
-0.323, -2.306e-6, -1.239e-6, 1.066e-6
-0.324, -2.308e-6, -1.243e-6, 1.065e-6
-0.325, -2.305e-6, -1.243e-6, 1.063e-6
-0.326, -2.307e-6, -1.243e-6, 1.064e-6
-0.327, -2.306e-6, -1.242e-6, 1.063e-6
-0.328, -2.308e-6, -1.244e-6, 1.064e-6
-0.329, -2.308e-6, -1.244e-6, 1.064e-6
-0.330, -2.301e-6, -1.242e-6, 1.059e-6
-0.331, -2.307e-6, -1.245e-6, 1.062e-6
-0.332, -2.302e-6, -1.241e-6, 1.061e-6
-0.333, -2.304e-6, -1.244e-6, 1.059e-6
-0.334, -2.309e-6, -1.249e-6, 1.060e-6
-0.335, -2.303e-6, -1.244e-6, 1.059e-6
-0.336, -2.305e-6, -1.245e-6, 1.060e-6
-0.337, -2.307e-6, -1.248e-6, 1.059e-6
-0.338, -2.309e-6, -1.250e-6, 1.059e-6
-0.339, -2.299e-6, -1.243e-6, 1.056e-6
-0.340, -2.303e-6, -1.245e-6, 1.058e-6
-0.341, -2.299e-6, -1.243e-6, 1.056e-6
-0.342, -2.301e-6, -1.245e-6, 1.056e-6
-0.343, -2.303e-6, -1.245e-6, 1.057e-6
-0.344, -2.305e-6, -1.251e-6, 1.054e-6
-0.345, -2.309e-6, -1.253e-6, 1.056e-6
-0.346, -2.303e-6, -1.247e-6, 1.056e-6
-0.347, -2.299e-6, -1.248e-6, 1.052e-6
-0.348, -2.302e-6, -1.249e-6, 1.053e-6
-0.349, -2.314e-6, -1.260e-6, 1.054e-6
-0.350, -2.306e-6, -1.253e-6, 1.054e-6
-0.351, -2.302e-6, -1.250e-6, 1.052e-6
-0.352, -2.304e-6, -1.251e-6, 1.053e-6
-0.353, -2.302e-6, -1.251e-6, 1.052e-6
-0.354, -2.300e-6, -1.249e-6, 1.051e-6
-0.355, -2.304e-6, -1.253e-6, 1.051e-6
-0.356, -2.305e-6, -1.257e-6, 1.048e-6
-0.357, -2.301e-6, -1.253e-6, 1.048e-6
-0.358, -2.302e-6, -1.254e-6, 1.048e-6
-0.359, -2.297e-6, -1.251e-6, 1.046e-6
-0.360, -2.305e-6, -1.259e-6, 1.046e-6
-0.361, -2.303e-6, -1.255e-6, 1.048e-6
-0.362, -2.301e-6, -1.257e-6, 1.044e-6
-0.363, -2.306e-6, -1.260e-6, 1.045e-6
-0.364, -2.301e-6, -1.255e-6, 1.047e-6
-0.365, -2.310e-6, -1.266e-6, 1.044e-6
-0.366, -2.307e-6, -1.262e-6, 1.044e-6
-0.367, -2.306e-6, -1.260e-6, 1.046e-6
-0.368, -2.307e-6, -1.263e-6, 1.044e-6
-0.369, -2.306e-6, -1.263e-6, 1.043e-6
-0.370, -2.303e-6, -1.260e-6, 1.043e-6
-0.371, -2.301e-6, -1.261e-6, 1.040e-6
-0.372, -2.305e-6, -1.265e-6, 1.041e-6
-0.373, -2.306e-6, -1.266e-6, 1.040e-6
-0.374, -2.305e-6, -1.266e-6, 1.039e-6
-0.375, -2.305e-6, -1.265e-6, 1.040e-6
-0.376, -2.304e-6, -1.267e-6, 1.037e-6
-0.377, -2.304e-6, -1.267e-6, 1.037e-6
-0.378, -2.306e-6, -1.268e-6, 1.038e-6
-0.379, -2.313e-6, -1.277e-6, 1.035e-6
-0.380, -2.312e-6, -1.276e-6, 1.035e-6
-0.381, -2.308e-6, -1.271e-6, 1.036e-6
-0.382, -2.304e-6, -1.270e-6, 1.034e-6
-0.383, -2.307e-6, -1.273e-6, 1.034e-6
-0.384, -2.306e-6, -1.273e-6, 1.034e-6
-0.385, -2.307e-6, -1.275e-6, 1.032e-6
-0.386, -2.311e-6, -1.280e-6, 1.031e-6
-0.387, -2.307e-6, -1.276e-6, 1.031e-6
-0.388, -2.311e-6, -1.281e-6, 1.030e-6
-0.389, -2.312e-6, -1.281e-6, 1.031e-6
-0.390, -2.312e-6, -1.281e-6, 1.030e-6
-0.391, -2.308e-6, -1.280e-6, 1.028e-6
-0.392, -2.313e-6, -1.285e-6, 1.028e-6
-0.393, -2.311e-6, -1.283e-6, 1.028e-6
-0.394, -2.319e-6, -1.293e-6, 1.026e-6
-0.395, -2.315e-6, -1.288e-6, 1.027e-6
-0.396, -2.312e-6, -1.287e-6, 1.024e-6
-0.397, -2.309e-6, -1.285e-6, 1.024e-6
-0.398, -2.318e-6, -1.293e-6, 1.025e-6
-0.399, -2.313e-6, -1.290e-6, 1.023e-6
-0.400, -2.317e-6, -1.296e-6, 1.021e-6
