Feb. 28, 2018   14:53:36
Square Wave Voltammetry
File: c:\users\electrochemist\desktop\2018\28022018_unbuffered_9,2\58_e2_9,2_0118_ph9,05_4.txt
Data Source:  Experiment
Instrument Model:  CHI1040A
Header: 
Note: 

Init E (V) = 0.5
Final E (V) = -0.1
Incr E (V) = 0.001
Amplitude (V) = 0.1
Frequency (Hz) = 150
Quiet Time (sec) = 0
Sensitivity (A/V) = 1e-6

Difference:

Forward:

Reverse:

Potential/V, Diff(i/A), For(i/A), Rev(i/A)

0.499, -5.484e-7, -1.243e-7, 4.241e-7
0.498, -6.155e-7, -2.549e-7, 3.606e-7
0.497, -6.057e-7, -2.674e-7, 3.384e-7
0.496, -5.960e-7, -2.704e-7, 3.256e-7
0.495, -5.871e-7, -2.729e-7, 3.143e-7
0.494, -5.841e-7, -2.747e-7, 3.094e-7
0.493, -5.807e-7, -2.747e-7, 3.060e-7
0.492, -5.743e-7, -2.756e-7, 2.987e-7
0.491, -5.731e-7, -2.768e-7, 2.963e-7
0.490, -5.703e-7, -2.765e-7, 2.938e-7
0.489, -5.652e-7, -2.774e-7, 2.877e-7
0.488, -5.645e-7, -2.777e-7, 2.868e-7
0.487, -5.612e-7, -2.756e-7, 2.856e-7
0.486, -5.594e-7, -2.777e-7, 2.816e-7
0.485, -5.581e-7, -2.777e-7, 2.804e-7
0.484, -5.563e-7, -2.765e-7, 2.798e-7
0.483, -5.539e-7, -2.774e-7, 2.764e-7
0.482, -5.554e-7, -2.790e-7, 2.764e-7
0.481, -5.520e-7, -2.777e-7, 2.743e-7
0.480, -5.490e-7, -2.774e-7, 2.715e-7
0.479, -5.511e-7, -2.787e-7, 2.725e-7
0.478, -5.484e-7, -2.774e-7, 2.709e-7
0.477, -5.462e-7, -2.774e-7, 2.688e-7
0.476, -5.475e-7, -2.790e-7, 2.685e-7
0.475, -5.456e-7, -2.777e-7, 2.679e-7
0.474, -5.429e-7, -2.777e-7, 2.651e-7
0.473, -5.438e-7, -2.796e-7, 2.642e-7
0.472, -5.432e-7, -2.777e-7, 2.654e-7
0.471, -5.414e-7, -2.787e-7, 2.627e-7
0.470, -5.441e-7, -2.805e-7, 2.636e-7
0.469, -5.383e-7, -2.771e-7, 2.612e-7
0.468, -5.383e-7, -2.774e-7, 2.609e-7
0.467, -5.389e-7, -2.793e-7, 2.596e-7
0.466, -5.389e-7, -2.780e-7, 2.609e-7
0.465, -5.377e-7, -2.784e-7, 2.593e-7
0.464, -5.383e-7, -2.796e-7, 2.587e-7
0.463, -5.365e-7, -2.774e-7, 2.590e-7
0.462, -5.352e-7, -2.787e-7, 2.566e-7
0.461, -5.362e-7, -2.793e-7, 2.569e-7
0.460, -5.365e-7, -2.780e-7, 2.584e-7
0.459, -5.340e-7, -2.777e-7, 2.563e-7
0.458, -5.340e-7, -2.793e-7, 2.548e-7
0.457, -5.334e-7, -2.777e-7, 2.557e-7
0.456, -5.328e-7, -2.780e-7, 2.548e-7
0.455, -5.337e-7, -2.799e-7, 2.538e-7
0.454, -5.328e-7, -2.780e-7, 2.548e-7
0.453, -5.325e-7, -2.796e-7, 2.529e-7
0.452, -5.322e-7, -2.796e-7, 2.526e-7
0.451, -5.319e-7, -2.780e-7, 2.538e-7
0.450, -5.322e-7, -2.799e-7, 2.523e-7
0.449, -5.322e-7, -2.802e-7, 2.520e-7
0.448, -5.282e-7, -2.768e-7, 2.514e-7
0.447, -5.298e-7, -2.796e-7, 2.502e-7
0.446, -5.298e-7, -2.793e-7, 2.505e-7
0.445, -5.325e-7, -2.799e-7, 2.526e-7
0.444, -5.282e-7, -2.799e-7, 2.483e-7
0.443, -5.304e-7, -2.802e-7, 2.502e-7
0.442, -5.298e-7, -2.793e-7, 2.505e-7
0.441, -5.288e-7, -2.802e-7, 2.487e-7
0.440, -5.291e-7, -2.811e-7, 2.480e-7
0.439, -5.270e-7, -2.790e-7, 2.480e-7
0.438, -5.276e-7, -2.799e-7, 2.477e-7
0.437, -5.291e-7, -2.808e-7, 2.483e-7
0.436, -5.273e-7, -2.796e-7, 2.477e-7
0.435, -5.267e-7, -2.799e-7, 2.468e-7
0.434, -5.288e-7, -2.808e-7, 2.480e-7
0.433, -5.273e-7, -2.796e-7, 2.477e-7
0.432, -5.264e-7, -2.811e-7, 2.453e-7
0.431, -5.282e-7, -2.820e-7, 2.462e-7
0.430, -5.279e-7, -2.808e-7, 2.471e-7
0.429, -5.258e-7, -2.805e-7, 2.453e-7
0.428, -5.273e-7, -2.814e-7, 2.459e-7
0.427, -5.276e-7, -2.814e-7, 2.462e-7
0.426, -5.267e-7, -2.826e-7, 2.441e-7
0.425, -5.267e-7, -2.820e-7, 2.447e-7
0.424, -5.279e-7, -2.820e-7, 2.459e-7
0.423, -5.285e-7, -2.835e-7, 2.450e-7
0.422, -5.301e-7, -2.842e-7, 2.459e-7
0.421, -5.273e-7, -2.817e-7, 2.456e-7
0.420, -5.258e-7, -2.823e-7, 2.435e-7
0.419, -5.282e-7, -2.842e-7, 2.441e-7
0.418, -5.267e-7, -2.826e-7, 2.441e-7
0.417, -5.255e-7, -2.826e-7, 2.429e-7
0.416, -5.273e-7, -2.832e-7, 2.441e-7
0.415, -5.282e-7, -2.826e-7, 2.456e-7
0.414, -5.261e-7, -2.838e-7, 2.422e-7
0.413, -5.285e-7, -2.854e-7, 2.432e-7
0.412, -5.273e-7, -2.829e-7, 2.444e-7
0.411, -5.264e-7, -2.838e-7, 2.426e-7
0.410, -5.295e-7, -2.857e-7, 2.438e-7
0.409, -5.279e-7, -2.838e-7, 2.441e-7
0.408, -5.267e-7, -2.848e-7, 2.419e-7
0.407, -5.273e-7, -2.848e-7, 2.426e-7
0.406, -5.270e-7, -2.842e-7, 2.429e-7
0.405, -5.267e-7, -2.857e-7, 2.410e-7
0.404, -5.291e-7, -2.863e-7, 2.429e-7
0.403, -5.298e-7, -2.869e-7, 2.429e-7
0.402, -5.291e-7, -2.875e-7, 2.416e-7
0.401, -5.282e-7, -2.866e-7, 2.416e-7
0.400, -5.285e-7, -2.854e-7, 2.432e-7
0.399, -5.285e-7, -2.866e-7, 2.419e-7
0.398, -5.279e-7, -2.866e-7, 2.413e-7
0.397, -5.279e-7, -2.863e-7, 2.416e-7
0.396, -5.298e-7, -2.878e-7, 2.419e-7
0.395, -5.304e-7, -2.887e-7, 2.416e-7
0.394, -5.298e-7, -2.875e-7, 2.422e-7
0.393, -5.298e-7, -2.881e-7, 2.416e-7
0.392, -5.310e-7, -2.887e-7, 2.422e-7
0.391, -5.295e-7, -2.881e-7, 2.413e-7
0.390, -5.304e-7, -2.893e-7, 2.410e-7
0.389, -5.295e-7, -2.887e-7, 2.407e-7
0.388, -5.304e-7, -2.890e-7, 2.413e-7
0.387, -5.313e-7, -2.903e-7, 2.410e-7
0.386, -5.319e-7, -2.906e-7, 2.413e-7
0.385, -5.319e-7, -2.903e-7, 2.416e-7
0.384, -5.319e-7, -2.909e-7, 2.410e-7
0.383, -5.316e-7, -2.909e-7, 2.407e-7
0.382, -5.325e-7, -2.915e-7, 2.410e-7
0.381, -5.322e-7, -2.915e-7, 2.407e-7
0.380, -5.331e-7, -2.918e-7, 2.413e-7
0.379, -5.337e-7, -2.915e-7, 2.422e-7
0.378, -5.343e-7, -2.930e-7, 2.413e-7
0.377, -5.340e-7, -2.921e-7, 2.419e-7
0.376, -5.340e-7, -2.933e-7, 2.407e-7
0.375, -5.334e-7, -2.921e-7, 2.413e-7
0.374, -5.365e-7, -2.945e-7, 2.419e-7
0.373, -5.368e-7, -2.945e-7, 2.422e-7
0.372, -5.343e-7, -2.942e-7, 2.401e-7
0.371, -5.349e-7, -2.942e-7, 2.407e-7
0.370, -5.349e-7, -2.942e-7, 2.407e-7
0.369, -5.368e-7, -2.951e-7, 2.416e-7
0.368, -5.356e-7, -2.942e-7, 2.413e-7
0.367, -5.368e-7, -2.954e-7, 2.413e-7
0.366, -5.359e-7, -2.948e-7, 2.410e-7
0.365, -5.383e-7, -2.964e-7, 2.419e-7
0.364, -5.374e-7, -2.964e-7, 2.410e-7
0.363, -5.368e-7, -2.967e-7, 2.401e-7
0.362, -5.398e-7, -2.979e-7, 2.419e-7
0.361, -5.389e-7, -2.973e-7, 2.416e-7
0.360, -5.386e-7, -2.973e-7, 2.413e-7
0.359, -5.395e-7, -2.967e-7, 2.429e-7
0.358, -5.389e-7, -2.976e-7, 2.413e-7
0.357, -5.398e-7, -2.982e-7, 2.416e-7
0.356, -5.423e-7, -2.997e-7, 2.425e-7
0.355, -5.404e-7, -2.994e-7, 2.410e-7
0.354, -5.407e-7, -2.994e-7, 2.413e-7
0.353, -5.417e-7, -2.997e-7, 2.419e-7
0.352, -5.410e-7, -3.003e-7, 2.407e-7
0.351, -5.450e-7, -3.022e-7, 2.429e-7
0.350, -5.438e-7, -3.009e-7, 2.429e-7
0.349, -5.429e-7, -3.006e-7, 2.422e-7
0.348, -5.447e-7, -3.025e-7, 2.422e-7
0.347, -5.447e-7, -3.028e-7, 2.419e-7
0.346, -5.447e-7, -3.025e-7, 2.422e-7
0.345, -5.453e-7, -3.031e-7, 2.422e-7
0.344, -5.478e-7, -3.046e-7, 2.432e-7
0.343, -5.453e-7, -3.040e-7, 2.413e-7
0.342, -5.475e-7, -3.046e-7, 2.429e-7
0.341, -5.478e-7, -3.040e-7, 2.438e-7
0.340, -5.478e-7, -3.052e-7, 2.425e-7
0.339, -5.487e-7, -3.055e-7, 2.432e-7
0.338, -5.502e-7, -3.067e-7, 2.435e-7
0.337, -5.499e-7, -3.070e-7, 2.429e-7
0.336, -5.508e-7, -3.067e-7, 2.441e-7
0.335, -5.478e-7, -3.052e-7, 2.425e-7
0.334, -5.502e-7, -3.061e-7, 2.441e-7
0.333, -5.523e-7, -3.077e-7, 2.447e-7
0.332, -5.508e-7, -3.073e-7, 2.435e-7
0.331, -5.533e-7, -3.092e-7, 2.441e-7
0.330, -5.533e-7, -3.089e-7, 2.444e-7
0.329, -5.545e-7, -3.092e-7, 2.453e-7
0.328, -5.563e-7, -3.104e-7, 2.459e-7
0.327, -5.548e-7, -3.098e-7, 2.450e-7
0.326, -5.557e-7, -3.107e-7, 2.450e-7
0.325, -5.554e-7, -3.113e-7, 2.441e-7
0.324, -5.566e-7, -3.116e-7, 2.450e-7
0.323, -5.575e-7, -3.116e-7, 2.459e-7
0.322, -5.566e-7, -3.128e-7, 2.438e-7
0.321, -5.587e-7, -3.134e-7, 2.453e-7
0.320, -5.591e-7, -3.128e-7, 2.462e-7
0.319, -5.600e-7, -3.144e-7, 2.456e-7
0.318, -5.612e-7, -3.159e-7, 2.453e-7
0.317, -5.609e-7, -3.144e-7, 2.465e-7
0.316, -5.603e-7, -3.147e-7, 2.456e-7
0.315, -5.615e-7, -3.156e-7, 2.459e-7
0.314, -5.618e-7, -3.159e-7, 2.459e-7
0.313, -5.630e-7, -3.165e-7, 2.465e-7
0.312, -5.633e-7, -3.168e-7, 2.465e-7
0.311, -5.633e-7, -3.156e-7, 2.477e-7
0.310, -5.661e-7, -3.189e-7, 2.471e-7
0.309, -5.652e-7, -3.177e-7, 2.474e-7
0.308, -5.679e-7, -3.192e-7, 2.487e-7
0.307, -5.655e-7, -3.183e-7, 2.471e-7
0.306, -5.682e-7, -3.196e-7, 2.487e-7
0.305, -5.682e-7, -3.192e-7, 2.490e-7
0.304, -5.700e-7, -3.214e-7, 2.487e-7
0.303, -5.703e-7, -3.211e-7, 2.493e-7
0.302, -5.706e-7, -3.208e-7, 2.499e-7
0.301, -5.716e-7, -3.226e-7, 2.490e-7
0.300, -5.722e-7, -3.229e-7, 2.493e-7
0.299, -5.722e-7, -3.217e-7, 2.505e-7
0.298, -5.737e-7, -3.238e-7, 2.499e-7
0.297, -5.758e-7, -3.247e-7, 2.511e-7
0.296, -5.743e-7, -3.241e-7, 2.502e-7
0.295, -5.771e-7, -3.254e-7, 2.517e-7
0.294, -5.774e-7, -3.250e-7, 2.523e-7
0.293, -5.777e-7, -3.263e-7, 2.514e-7
0.292, -5.789e-7, -3.275e-7, 2.514e-7
0.291, -5.783e-7, -3.266e-7, 2.517e-7
0.290, -5.810e-7, -3.284e-7, 2.526e-7
0.289, -5.804e-7, -3.293e-7, 2.511e-7
0.288, -5.819e-7, -3.293e-7, 2.526e-7
0.287, -5.792e-7, -3.275e-7, 2.517e-7
0.286, -5.832e-7, -3.305e-7, 2.526e-7
0.285, -5.841e-7, -3.299e-7, 2.541e-7
0.284, -5.829e-7, -3.293e-7, 2.535e-7
0.283, -5.850e-7, -3.318e-7, 2.532e-7
0.282, -5.859e-7, -3.315e-7, 2.545e-7
0.281, -5.865e-7, -3.321e-7, 2.545e-7
0.280, -5.871e-7, -3.330e-7, 2.541e-7
0.279, -5.896e-7, -3.342e-7, 2.554e-7
0.278, -5.877e-7, -3.327e-7, 2.551e-7
0.277, -5.899e-7, -3.354e-7, 2.545e-7
0.276, -5.917e-7, -3.354e-7, 2.563e-7
0.275, -5.911e-7, -3.357e-7, 2.554e-7
0.274, -5.929e-7, -3.363e-7, 2.566e-7
0.273, -5.932e-7, -3.366e-7, 2.566e-7
0.272, -5.914e-7, -3.357e-7, 2.557e-7
0.271, -5.951e-7, -3.382e-7, 2.569e-7
0.270, -5.935e-7, -3.373e-7, 2.563e-7
0.269, -5.948e-7, -3.379e-7, 2.569e-7
0.268, -5.969e-7, -3.397e-7, 2.572e-7
0.267, -5.978e-7, -3.388e-7, 2.590e-7
0.266, -5.999e-7, -3.415e-7, 2.584e-7
0.265, -5.996e-7, -3.415e-7, 2.581e-7
0.264, -6.002e-7, -3.403e-7, 2.599e-7
0.263, -6.002e-7, -3.412e-7, 2.590e-7
0.262, -6.042e-7, -3.427e-7, 2.615e-7
0.261, -6.042e-7, -3.443e-7, 2.599e-7
0.260, -6.060e-7, -3.455e-7, 2.606e-7
0.259, -6.051e-7, -3.452e-7, 2.599e-7
0.258, -6.076e-7, -3.464e-7, 2.612e-7
0.257, -6.057e-7, -3.452e-7, 2.606e-7
0.256, -6.088e-7, -3.467e-7, 2.621e-7
0.255, -6.091e-7, -3.470e-7, 2.621e-7
0.254, -6.085e-7, -3.473e-7, 2.612e-7
0.253, -6.109e-7, -3.482e-7, 2.627e-7
0.252, -6.115e-7, -3.482e-7, 2.633e-7
0.251, -6.128e-7, -3.495e-7, 2.633e-7
0.250, -6.143e-7, -3.504e-7, 2.639e-7
0.249, -6.158e-7, -3.507e-7, 2.651e-7
0.248, -6.146e-7, -3.495e-7, 2.651e-7
0.247, -6.183e-7, -3.522e-7, 2.660e-7
0.246, -6.173e-7, -3.516e-7, 2.657e-7
0.245, -6.189e-7, -3.534e-7, 2.654e-7
0.244, -6.198e-7, -3.540e-7, 2.657e-7
0.243, -6.201e-7, -3.537e-7, 2.664e-7
0.242, -6.213e-7, -3.556e-7, 2.657e-7
0.241, -6.225e-7, -3.550e-7, 2.676e-7
0.240, -6.231e-7, -3.556e-7, 2.676e-7
0.239, -6.240e-7, -3.565e-7, 2.676e-7
0.238, -6.271e-7, -3.583e-7, 2.688e-7
0.237, -6.262e-7, -3.574e-7, 2.688e-7
0.236, -6.271e-7, -3.580e-7, 2.691e-7
0.235, -6.289e-7, -3.589e-7, 2.700e-7
0.234, -6.295e-7, -3.592e-7, 2.703e-7
0.233, -6.323e-7, -3.617e-7, 2.706e-7
0.232, -6.323e-7, -3.620e-7, 2.703e-7
0.231, -6.335e-7, -3.626e-7, 2.709e-7
0.230, -6.353e-7, -3.638e-7, 2.715e-7
0.229, -6.375e-7, -3.638e-7, 2.737e-7
0.228, -6.375e-7, -3.638e-7, 2.737e-7
0.227, -6.372e-7, -3.647e-7, 2.725e-7
0.226, -6.387e-7, -3.653e-7, 2.734e-7
0.225, -6.390e-7, -3.650e-7, 2.740e-7
0.224, -6.405e-7, -3.672e-7, 2.734e-7
0.223, -6.421e-7, -3.672e-7, 2.749e-7
0.222, -6.414e-7, -3.669e-7, 2.746e-7
0.221, -6.439e-7, -3.699e-7, 2.740e-7
0.220, -6.457e-7, -3.693e-7, 2.764e-7
0.219, -6.463e-7, -3.699e-7, 2.764e-7
0.218, -6.485e-7, -3.723e-7, 2.761e-7
0.217, -6.497e-7, -3.720e-7, 2.776e-7
0.216, -6.515e-7, -3.727e-7, 2.789e-7
0.215, -6.494e-7, -3.736e-7, 2.758e-7
0.214, -6.530e-7, -3.739e-7, 2.792e-7
0.213, -6.530e-7, -3.733e-7, 2.798e-7
0.212, -6.530e-7, -3.757e-7, 2.773e-7
0.211, -6.564e-7, -3.769e-7, 2.795e-7
0.210, -6.536e-7, -3.748e-7, 2.789e-7
0.209, -6.570e-7, -3.775e-7, 2.795e-7
0.208, -6.598e-7, -3.781e-7, 2.816e-7
0.207, -6.591e-7, -3.778e-7, 2.813e-7
0.206, -6.622e-7, -3.806e-7, 2.816e-7
0.205, -6.631e-7, -3.803e-7, 2.828e-7
0.204, -6.622e-7, -3.800e-7, 2.822e-7
0.203, -6.640e-7, -3.818e-7, 2.822e-7
0.202, -6.671e-7, -3.830e-7, 2.840e-7
0.201, -6.683e-7, -3.839e-7, 2.844e-7
0.200, -6.680e-7, -3.849e-7, 2.831e-7
0.199, -6.710e-7, -3.858e-7, 2.853e-7
0.198, -6.701e-7, -3.842e-7, 2.859e-7
0.197, -6.732e-7, -3.867e-7, 2.865e-7
0.196, -6.729e-7, -3.861e-7, 2.868e-7
0.195, -6.750e-7, -3.870e-7, 2.880e-7
0.194, -6.759e-7, -3.894e-7, 2.865e-7
0.193, -6.778e-7, -3.888e-7, 2.889e-7
0.192, -6.778e-7, -3.900e-7, 2.877e-7
0.191, -6.817e-7, -3.922e-7, 2.895e-7
0.190, -6.808e-7, -3.913e-7, 2.895e-7
0.189, -6.826e-7, -3.925e-7, 2.902e-7
0.188, -6.842e-7, -3.940e-7, 2.902e-7
0.187, -6.860e-7, -3.937e-7, 2.923e-7
0.186, -6.869e-7, -3.955e-7, 2.914e-7
0.185, -6.884e-7, -3.971e-7, 2.914e-7
0.184, -6.906e-7, -3.968e-7, 2.938e-7
0.183, -6.906e-7, -3.971e-7, 2.935e-7
0.182, -6.921e-7, -3.992e-7, 2.929e-7
0.181, -6.942e-7, -3.998e-7, 2.944e-7
0.180, -6.958e-7, -3.998e-7, 2.960e-7
0.179, -6.973e-7, -4.026e-7, 2.947e-7
0.178, -6.982e-7, -4.023e-7, 2.960e-7
0.177, -7.003e-7, -4.035e-7, 2.969e-7
0.176, -7.031e-7, -4.056e-7, 2.975e-7
0.175, -7.058e-7, -4.059e-7, 2.999e-7
0.174, -7.040e-7, -4.059e-7, 2.981e-7
0.173, -7.049e-7, -4.077e-7, 2.972e-7
0.172, -7.086e-7, -4.084e-7, 3.002e-7
0.171, -7.083e-7, -4.080e-7, 3.002e-7
0.170, -7.113e-7, -4.114e-7, 2.999e-7
0.169, -7.125e-7, -4.105e-7, 3.021e-7
0.168, -7.119e-7, -4.108e-7, 3.011e-7
0.167, -7.150e-7, -4.129e-7, 3.021e-7
0.166, -7.168e-7, -4.138e-7, 3.030e-7
0.165, -7.180e-7, -4.151e-7, 3.030e-7
0.164, -7.186e-7, -4.157e-7, 3.030e-7
0.163, -7.214e-7, -4.169e-7, 3.045e-7
0.162, -7.232e-7, -4.181e-7, 3.051e-7
0.161, -7.244e-7, -4.184e-7, 3.060e-7
0.160, -7.275e-7, -4.200e-7, 3.075e-7
0.159, -7.275e-7, -4.196e-7, 3.079e-7
0.158, -7.302e-7, -4.224e-7, 3.079e-7
0.157, -7.302e-7, -4.218e-7, 3.085e-7
0.156, -7.309e-7, -4.221e-7, 3.088e-7
0.155, -7.339e-7, -4.251e-7, 3.088e-7
0.154, -7.357e-7, -4.251e-7, 3.106e-7
0.153, -7.360e-7, -4.251e-7, 3.109e-7
0.152, -7.388e-7, -4.279e-7, 3.109e-7
0.151, -7.409e-7, -4.291e-7, 3.118e-7
0.150, -7.415e-7, -4.291e-7, 3.124e-7
0.149, -7.434e-7, -4.306e-7, 3.127e-7
0.148, -7.455e-7, -4.306e-7, 3.149e-7
0.147, -7.473e-7, -4.337e-7, 3.136e-7
0.146, -7.479e-7, -4.343e-7, 3.136e-7
0.145, -7.501e-7, -4.337e-7, 3.164e-7
0.144, -7.534e-7, -4.364e-7, 3.170e-7
0.143, -7.531e-7, -4.367e-7, 3.164e-7
0.142, -7.559e-7, -4.380e-7, 3.179e-7
0.141, -7.565e-7, -4.380e-7, 3.185e-7
0.140, -7.592e-7, -4.404e-7, 3.188e-7
0.139, -7.608e-7, -4.407e-7, 3.201e-7
0.138, -7.611e-7, -4.410e-7, 3.201e-7
0.137, -7.659e-7, -4.447e-7, 3.213e-7
0.136, -7.666e-7, -4.444e-7, 3.222e-7
0.135, -7.681e-7, -4.456e-7, 3.225e-7
0.134, -7.705e-7, -4.465e-7, 3.240e-7
0.133, -7.736e-7, -4.483e-7, 3.252e-7
0.132, -7.724e-7, -4.477e-7, 3.246e-7
0.131, -7.751e-7, -4.499e-7, 3.252e-7
0.130, -7.797e-7, -4.517e-7, 3.280e-7
0.129, -7.794e-7, -4.517e-7, 3.277e-7
0.128, -7.812e-7, -4.541e-7, 3.271e-7
0.127, -7.824e-7, -4.532e-7, 3.292e-7
0.126, -7.852e-7, -4.557e-7, 3.295e-7
0.125, -7.876e-7, -4.566e-7, 3.310e-7
0.124, -7.885e-7, -4.572e-7, 3.313e-7
0.123, -7.897e-7, -4.581e-7, 3.317e-7
0.122, -7.931e-7, -4.611e-7, 3.320e-7
0.121, -7.928e-7, -4.593e-7, 3.335e-7
0.120, -7.959e-7, -4.624e-7, 3.335e-7
0.119, -7.989e-7, -4.639e-7, 3.350e-7
0.118, -8.020e-7, -4.657e-7, 3.362e-7
0.117, -8.026e-7, -4.660e-7, 3.365e-7
0.116, -8.056e-7, -4.679e-7, 3.378e-7
0.115, -8.078e-7, -4.694e-7, 3.384e-7
0.114, -8.074e-7, -4.688e-7, 3.387e-7
0.113, -8.117e-7, -4.709e-7, 3.408e-7
0.112, -8.129e-7, -4.718e-7, 3.411e-7
0.111, -8.139e-7, -4.718e-7, 3.420e-7
0.110, -8.163e-7, -4.740e-7, 3.423e-7
0.109, -8.203e-7, -4.761e-7, 3.442e-7
0.108, -8.203e-7, -4.770e-7, 3.432e-7
0.107, -8.239e-7, -4.785e-7, 3.454e-7
0.106, -8.264e-7, -4.795e-7, 3.469e-7
0.105, -8.267e-7, -4.798e-7, 3.469e-7
0.104, -8.297e-7, -4.825e-7, 3.472e-7
0.103, -8.309e-7, -4.819e-7, 3.490e-7
0.102, -8.343e-7, -4.846e-7, 3.497e-7
0.101, -8.358e-7, -4.856e-7, 3.503e-7
0.100, -8.383e-7, -4.871e-7, 3.512e-7
0.099, -8.404e-7, -4.886e-7, 3.518e-7
0.098, -8.407e-7, -4.880e-7, 3.527e-7
0.097, -8.450e-7, -4.907e-7, 3.542e-7
0.096, -8.447e-7, -4.907e-7, 3.539e-7
0.095, -8.480e-7, -4.920e-7, 3.561e-7
0.094, -8.499e-7, -4.935e-7, 3.564e-7
0.093, -8.526e-7, -4.944e-7, 3.582e-7
0.092, -8.544e-7, -4.962e-7, 3.582e-7
0.091, -8.566e-7, -4.965e-7, 3.600e-7
0.090, -8.575e-7, -4.978e-7, 3.597e-7
0.089, -8.630e-7, -4.999e-7, 3.631e-7
0.088, -8.642e-7, -5.017e-7, 3.625e-7
0.087, -8.670e-7, -5.030e-7, 3.640e-7
0.086, -8.673e-7, -5.030e-7, 3.643e-7
0.085, -8.700e-7, -5.039e-7, 3.661e-7
0.084, -8.731e-7, -5.066e-7, 3.664e-7
0.083, -8.740e-7, -5.063e-7, 3.677e-7
0.082, -8.770e-7, -5.081e-7, 3.689e-7
0.081, -8.782e-7, -5.094e-7, 3.689e-7
0.080, -8.807e-7, -5.103e-7, 3.704e-7
0.079, -8.825e-7, -5.115e-7, 3.710e-7
0.078, -8.865e-7, -5.139e-7, 3.725e-7
0.077, -8.880e-7, -5.139e-7, 3.741e-7
0.076, -8.889e-7, -5.149e-7, 3.741e-7
0.075, -8.941e-7, -5.179e-7, 3.762e-7
0.074, -8.959e-7, -5.185e-7, 3.774e-7
0.073, -8.969e-7, -5.188e-7, 3.780e-7
0.072, -9.008e-7, -5.207e-7, 3.802e-7
0.071, -9.014e-7, -5.213e-7, 3.802e-7
0.070, -9.024e-7, -5.225e-7, 3.799e-7
0.069, -9.054e-7, -5.234e-7, 3.820e-7
0.068, -9.075e-7, -5.243e-7, 3.832e-7
0.067, -9.100e-7, -5.261e-7, 3.838e-7
0.066, -9.112e-7, -5.268e-7, 3.844e-7
0.065, -9.152e-7, -5.280e-7, 3.872e-7
0.064, -9.164e-7, -5.289e-7, 3.875e-7
0.063, -9.194e-7, -5.313e-7, 3.881e-7
0.062, -9.228e-7, -5.326e-7, 3.902e-7
0.061, -9.228e-7, -5.326e-7, 3.902e-7
0.060, -9.258e-7, -5.347e-7, 3.912e-7
0.059, -9.283e-7, -5.350e-7, 3.933e-7
0.058, -9.310e-7, -5.374e-7, 3.936e-7
0.057, -9.326e-7, -5.377e-7, 3.948e-7
0.056, -9.338e-7, -5.377e-7, 3.960e-7
0.055, -9.378e-7, -5.405e-7, 3.973e-7
0.054, -9.399e-7, -5.417e-7, 3.982e-7
0.053, -9.414e-7, -5.420e-7, 3.994e-7
0.052, -9.442e-7, -5.429e-7, 4.012e-7
0.051, -9.463e-7, -5.448e-7, 4.015e-7
0.050, -9.481e-7, -5.454e-7, 4.028e-7
0.049, -9.497e-7, -5.463e-7, 4.034e-7
0.048, -9.533e-7, -5.487e-7, 4.046e-7
0.047, -9.545e-7, -5.490e-7, 4.055e-7
0.046, -9.558e-7, -5.496e-7, 4.061e-7
0.045, -9.594e-7, -5.509e-7, 4.086e-7
0.044, -9.616e-7, -5.512e-7, 4.104e-7
0.043, -9.634e-7, -5.530e-7, 4.104e-7
0.042, -9.674e-7, -5.554e-7, 4.119e-7
0.041, -9.677e-7, -5.545e-7, 4.131e-7
0.040, -9.695e-7, -5.564e-7, 4.131e-7
0.039, -9.725e-7, -5.576e-7, 4.150e-7
0.038, -9.722e-7, -5.567e-7, 4.156e-7
0.037, -9.762e-7, -5.594e-7, 4.168e-7
0.036, -9.799e-7, -5.606e-7, 4.192e-7
0.035, -9.802e-7, -5.603e-7, 4.198e-7
0.034, -9.820e-7, -5.622e-7, 4.198e-7
0.033, -9.841e-7, -5.625e-7, 4.217e-7
0.032, -9.875e-7, -5.640e-7, 4.235e-7
0.031, -9.875e-7, -5.643e-7, 4.232e-7
0.030, -9.902e-7, -5.658e-7, 4.244e-7
0.029, -9.930e-7, -5.661e-7, 4.269e-7
0.028, -9.942e-7, -5.664e-7, 4.278e-7
0.027, -9.973e-7, -5.686e-7, 4.287e-7
0.026, -9.982e-7, -5.673e-7, 4.308e-7
0.025, -1.000e-6, -5.695e-7, 4.308e-7
0.024, -1.004e-6, -5.713e-7, 4.324e-7
0.023, -1.005e-6, -5.713e-7, 4.333e-7
0.022, -1.008e-6, -5.734e-7, 4.342e-7
0.021, -1.009e-6, -5.741e-7, 4.351e-7
0.020, -1.009e-6, -5.728e-7, 4.363e-7
0.019, -1.010e-6, -5.734e-7, 4.369e-7
0.018, -1.013e-6, -5.750e-7, 4.382e-7
0.017, -1.015e-6, -5.753e-7, 4.397e-7
0.016, -1.018e-6, -5.771e-7, 4.409e-7
0.015, -1.019e-6, -5.774e-7, 4.418e-7
0.014, -1.021e-6, -5.783e-7, 4.430e-7
0.013, -1.023e-6, -5.789e-7, 4.443e-7
0.012, -1.026e-6, -5.799e-7, 4.461e-7
0.011, -1.027e-6, -5.802e-7, 4.464e-7
0.010, -1.028e-6, -5.808e-7, 4.470e-7
0.009, -1.030e-6, -5.811e-7, 4.491e-7
0.008, -1.032e-6, -5.826e-7, 4.494e-7
0.007, -1.034e-6, -5.826e-7, 4.513e-7
0.006, -1.035e-6, -5.835e-7, 4.519e-7
0.005, -1.036e-6, -5.832e-7, 4.528e-7
0.004, -1.039e-6, -5.847e-7, 4.543e-7
0.003, -1.040e-6, -5.844e-7, 4.559e-7
0.002, -1.041e-6, -5.847e-7, 4.562e-7
0.001, -1.043e-6, -5.860e-7, 4.574e-7
-0.000, -1.045e-6, -5.863e-7, 4.583e-7
-0.001, -1.045e-6, -5.853e-7, 4.592e-7
-0.002, -1.048e-6, -5.875e-7, 4.601e-7
-0.003, -1.050e-6, -5.878e-7, 4.626e-7
-0.004, -1.052e-6, -5.884e-7, 4.635e-7
-0.005, -1.053e-6, -5.890e-7, 4.638e-7
-0.006, -1.054e-6, -5.890e-7, 4.647e-7
-0.007, -1.053e-6, -5.887e-7, 4.647e-7
-0.008, -1.057e-6, -5.899e-7, 4.668e-7
-0.009, -1.057e-6, -5.902e-7, 4.665e-7
-0.010, -1.058e-6, -5.896e-7, 4.681e-7
-0.011, -1.059e-6, -5.896e-7, 4.693e-7
-0.012, -1.060e-6, -5.905e-7, 4.693e-7
-0.013, -1.063e-6, -5.905e-7, 4.720e-7
-0.014, -1.064e-6, -5.918e-7, 4.726e-7
-0.015, -1.065e-6, -5.915e-7, 4.736e-7
-0.016, -1.067e-6, -5.924e-7, 4.742e-7
-0.017, -1.068e-6, -5.933e-7, 4.748e-7
-0.018, -1.069e-6, -5.924e-7, 4.769e-7
-0.019, -1.070e-6, -5.924e-7, 4.778e-7
-0.020, -1.071e-6, -5.933e-7, 4.775e-7
-0.021, -1.072e-6, -5.921e-7, 4.800e-7
-0.022, -1.074e-6, -5.936e-7, 4.800e-7
-0.023, -1.075e-6, -5.942e-7, 4.809e-7
-0.024, -1.074e-6, -5.930e-7, 4.815e-7
-0.025, -1.076e-6, -5.933e-7, 4.827e-7
-0.026, -1.078e-6, -5.939e-7, 4.836e-7
-0.027, -1.078e-6, -5.933e-7, 4.845e-7
-0.028, -1.079e-6, -5.948e-7, 4.845e-7
-0.029, -1.081e-6, -5.951e-7, 4.855e-7
-0.030, -1.081e-6, -5.936e-7, 4.879e-7
-0.031, -1.082e-6, -5.939e-7, 4.882e-7
-0.032, -1.084e-6, -5.948e-7, 4.891e-7
-0.033, -1.085e-6, -5.939e-7, 4.909e-7
-0.034, -1.085e-6, -5.942e-7, 4.903e-7
-0.035, -1.087e-6, -5.954e-7, 4.912e-7
-0.036, -1.087e-6, -5.939e-7, 4.931e-7
-0.037, -1.085e-6, -5.927e-7, 4.922e-7
-0.038, -1.087e-6, -5.942e-7, 4.931e-7
-0.039, -1.088e-6, -5.930e-7, 4.952e-7
-0.040, -1.087e-6, -5.927e-7, 4.943e-7
-0.041, -1.089e-6, -5.936e-7, 4.958e-7
-0.042, -1.090e-6, -5.936e-7, 4.967e-7
-0.043, -1.090e-6, -5.924e-7, 4.977e-7
-0.044, -1.091e-6, -5.936e-7, 4.977e-7
-0.045, -1.092e-6, -5.924e-7, 4.995e-7
-0.046, -1.092e-6, -5.924e-7, 4.995e-7
-0.047, -1.094e-6, -5.933e-7, 5.007e-7
-0.048, -1.094e-6, -5.921e-7, 5.019e-7
-0.049, -1.093e-6, -5.918e-7, 5.010e-7
-0.050, -1.093e-6, -5.924e-7, 5.007e-7
-0.051, -1.094e-6, -5.902e-7, 5.035e-7
-0.052, -1.094e-6, -5.908e-7, 5.028e-7
-0.053, -1.095e-6, -5.911e-7, 5.041e-7
-0.054, -1.096e-6, -5.905e-7, 5.056e-7
-0.055, -1.096e-6, -5.905e-7, 5.053e-7
-0.056, -1.095e-6, -5.899e-7, 5.050e-7
-0.057, -1.095e-6, -5.881e-7, 5.071e-7
-0.058, -1.095e-6, -5.881e-7, 5.071e-7
-0.059, -1.097e-6, -5.893e-7, 5.080e-7
-0.060, -1.096e-6, -5.875e-7, 5.089e-7
-0.061, -1.097e-6, -5.881e-7, 5.086e-7
-0.062, -1.098e-6, -5.884e-7, 5.093e-7
-0.063, -1.098e-6, -5.866e-7, 5.111e-7
-0.064, -1.097e-6, -5.860e-7, 5.111e-7
-0.065, -1.098e-6, -5.866e-7, 5.114e-7
-0.066, -1.099e-6, -5.860e-7, 5.129e-7
-0.067, -1.097e-6, -5.850e-7, 5.117e-7
-0.068, -1.098e-6, -5.847e-7, 5.129e-7
-0.069, -1.098e-6, -5.832e-7, 5.144e-7
-0.070, -1.097e-6, -5.844e-7, 5.126e-7
-0.071, -1.098e-6, -5.841e-7, 5.138e-7
-0.072, -1.097e-6, -5.817e-7, 5.154e-7
-0.073, -1.097e-6, -5.829e-7, 5.144e-7
-0.074, -1.098e-6, -5.823e-7, 5.157e-7
-0.075, -1.099e-6, -5.817e-7, 5.169e-7
-0.076, -1.095e-6, -5.805e-7, 5.147e-7
-0.077, -1.096e-6, -5.805e-7, 5.151e-7
-0.078, -1.097e-6, -5.796e-7, 5.178e-7
-0.079, -1.097e-6, -5.792e-7, 5.175e-7
-0.080, -1.097e-6, -5.796e-7, 5.175e-7
-0.081, -1.097e-6, -5.783e-7, 5.187e-7
-0.082, -1.094e-6, -5.774e-7, 5.169e-7
-0.083, -1.096e-6, -5.774e-7, 5.184e-7
-0.084, -1.095e-6, -5.756e-7, 5.193e-7
-0.085, -1.094e-6, -5.753e-7, 5.187e-7
-0.086, -1.096e-6, -5.756e-7, 5.202e-7
-0.087, -1.094e-6, -5.741e-7, 5.202e-7
-0.088, -1.094e-6, -5.738e-7, 5.202e-7
-0.089, -1.094e-6, -5.741e-7, 5.202e-7
-0.090, -1.093e-6, -5.719e-7, 5.215e-7
-0.091, -1.091e-6, -5.713e-7, 5.199e-7
-0.092, -1.093e-6, -5.713e-7, 5.215e-7
-0.093, -1.092e-6, -5.704e-7, 5.218e-7
-0.094, -1.091e-6, -5.692e-7, 5.218e-7
-0.095, -1.091e-6, -5.698e-7, 5.208e-7
-0.096, -1.093e-6, -5.692e-7, 5.239e-7
-0.097, -1.089e-6, -5.673e-7, 5.215e-7
-0.098, -1.089e-6, -5.670e-7, 5.221e-7
-0.099, -1.090e-6, -5.664e-7, 5.239e-7
-0.100, -1.089e-6, -5.667e-7, 5.227e-7
