Mar. 20, 2018   15:46:48
Square Wave Voltammetry
File: c:\users\electrochemist\desktop\2018\20032018_unbufarray_unpap\58_g4_ph9,02_2.txt
Data Source:  Experiment
Instrument Model:  CHI1040A
Header: 
Note: 

Init E (V) = 0.7
Final E (V) = -0.4
Incr E (V) = 0.001
Amplitude (V) = 0.1
Frequency (Hz) = 152
Quiet Time (sec) = 2
Sensitivity (A/V) = 1e-6

Difference:

Forward:

Reverse:
Ep = -0.100V
ip = 4.565e-8A
Ah = 2.494e-9VA

Potential/V, Diff(i/A), For(i/A), Rev(i/A)

0.699, -7.873e-7, -1.902e-7, 5.971e-7
0.698, -9.454e-7, -4.007e-7, 5.447e-7
0.697, -9.445e-7, -4.114e-7, 5.331e-7
0.696, -9.393e-7, -4.154e-7, 5.239e-7
0.695, -9.332e-7, -4.154e-7, 5.178e-7
0.694, -9.262e-7, -4.154e-7, 5.108e-7
0.693, -9.240e-7, -4.160e-7, 5.080e-7
0.692, -9.201e-7, -4.160e-7, 5.041e-7
0.691, -9.164e-7, -4.151e-7, 5.013e-7
0.690, -9.127e-7, -4.157e-7, 4.971e-7
0.689, -9.143e-7, -4.166e-7, 4.977e-7
0.688, -9.066e-7, -4.135e-7, 4.931e-7
0.687, -9.036e-7, -4.160e-7, 4.876e-7
0.686, -8.999e-7, -4.123e-7, 4.876e-7
0.685, -8.978e-7, -4.135e-7, 4.842e-7
0.684, -8.972e-7, -4.151e-7, 4.821e-7
0.683, -8.944e-7, -4.141e-7, 4.803e-7
0.682, -8.898e-7, -4.141e-7, 4.757e-7
0.681, -8.883e-7, -4.135e-7, 4.748e-7
0.680, -8.859e-7, -4.129e-7, 4.729e-7
0.679, -8.840e-7, -4.141e-7, 4.699e-7
0.678, -8.807e-7, -4.123e-7, 4.684e-7
0.677, -8.807e-7, -4.114e-7, 4.693e-7
0.676, -8.746e-7, -4.108e-7, 4.638e-7
0.675, -8.755e-7, -4.123e-7, 4.632e-7
0.674, -8.718e-7, -4.105e-7, 4.614e-7
0.673, -8.709e-7, -4.129e-7, 4.580e-7
0.672, -8.694e-7, -4.093e-7, 4.601e-7
0.671, -8.654e-7, -4.099e-7, 4.556e-7
0.670, -8.651e-7, -4.114e-7, 4.537e-7
0.669, -8.654e-7, -4.102e-7, 4.552e-7
0.668, -8.615e-7, -4.093e-7, 4.522e-7
0.667, -8.602e-7, -4.123e-7, 4.479e-7
0.666, -8.602e-7, -4.102e-7, 4.501e-7
0.665, -8.581e-7, -4.083e-7, 4.498e-7
0.664, -8.544e-7, -4.111e-7, 4.433e-7
0.663, -8.575e-7, -4.096e-7, 4.479e-7
0.662, -8.496e-7, -4.062e-7, 4.433e-7
0.661, -8.520e-7, -4.096e-7, 4.424e-7
0.660, -8.514e-7, -4.080e-7, 4.433e-7
0.659, -8.456e-7, -4.077e-7, 4.379e-7
0.658, -8.490e-7, -4.096e-7, 4.394e-7
0.657, -8.471e-7, -4.074e-7, 4.397e-7
0.656, -8.447e-7, -4.077e-7, 4.369e-7
0.655, -8.444e-7, -4.087e-7, 4.357e-7
0.654, -8.438e-7, -4.071e-7, 4.366e-7
0.653, -8.398e-7, -4.068e-7, 4.330e-7
0.652, -8.401e-7, -4.071e-7, 4.330e-7
0.651, -8.389e-7, -4.074e-7, 4.314e-7
0.650, -8.358e-7, -4.053e-7, 4.305e-7
0.649, -8.377e-7, -4.068e-7, 4.308e-7
0.648, -8.343e-7, -4.065e-7, 4.278e-7
0.647, -8.346e-7, -4.068e-7, 4.278e-7
0.646, -8.340e-7, -4.062e-7, 4.278e-7
0.645, -8.319e-7, -4.053e-7, 4.266e-7
0.644, -8.322e-7, -4.071e-7, 4.250e-7
0.643, -8.316e-7, -4.062e-7, 4.253e-7
0.642, -8.288e-7, -4.053e-7, 4.235e-7
0.641, -8.297e-7, -4.071e-7, 4.226e-7
0.640, -8.300e-7, -4.056e-7, 4.244e-7
0.639, -8.261e-7, -4.053e-7, 4.208e-7
0.638, -8.285e-7, -4.062e-7, 4.223e-7
0.637, -8.264e-7, -4.047e-7, 4.217e-7
0.636, -8.227e-7, -4.047e-7, 4.180e-7
0.635, -8.264e-7, -4.074e-7, 4.189e-7
0.634, -8.224e-7, -4.038e-7, 4.186e-7
0.633, -8.215e-7, -4.056e-7, 4.159e-7
0.632, -8.215e-7, -4.056e-7, 4.159e-7
0.631, -8.221e-7, -4.047e-7, 4.174e-7
0.630, -8.178e-7, -4.032e-7, 4.147e-7
0.629, -8.215e-7, -4.062e-7, 4.153e-7
0.628, -8.197e-7, -4.044e-7, 4.153e-7
0.627, -8.178e-7, -4.038e-7, 4.141e-7
0.626, -8.197e-7, -4.062e-7, 4.134e-7
0.625, -8.184e-7, -4.029e-7, 4.156e-7
0.624, -8.172e-7, -4.038e-7, 4.134e-7
0.623, -8.169e-7, -4.047e-7, 4.122e-7
0.622, -8.145e-7, -4.029e-7, 4.116e-7
0.621, -8.142e-7, -4.044e-7, 4.098e-7
0.620, -8.126e-7, -4.029e-7, 4.098e-7
0.619, -8.114e-7, -4.032e-7, 4.083e-7
0.618, -8.102e-7, -4.032e-7, 4.070e-7
0.617, -8.093e-7, -4.016e-7, 4.076e-7
0.616, -8.099e-7, -4.029e-7, 4.070e-7
0.615, -8.108e-7, -4.035e-7, 4.073e-7
0.614, -8.093e-7, -4.019e-7, 4.073e-7
0.613, -8.071e-7, -4.038e-7, 4.034e-7
0.612, -8.093e-7, -4.044e-7, 4.049e-7
0.611, -8.090e-7, -4.026e-7, 4.064e-7
0.610, -8.071e-7, -4.038e-7, 4.034e-7
0.609, -8.038e-7, -4.001e-7, 4.037e-7
0.608, -8.056e-7, -4.013e-7, 4.043e-7
0.607, -8.026e-7, -4.007e-7, 4.018e-7
0.606, -8.078e-7, -4.056e-7, 4.021e-7
0.605, -8.020e-7, -3.989e-7, 4.031e-7
0.604, -8.020e-7, -4.029e-7, 3.991e-7
0.603, -8.023e-7, -4.016e-7, 4.006e-7
0.602, -8.023e-7, -4.016e-7, 4.006e-7
0.601, -8.004e-7, -4.013e-7, 3.991e-7
0.600, -8.050e-7, -4.053e-7, 3.997e-7
0.599, -8.004e-7, -4.004e-7, 4.000e-7
0.598, -7.992e-7, -4.013e-7, 3.979e-7
0.597, -8.013e-7, -4.022e-7, 3.991e-7
0.596, -7.965e-7, -3.995e-7, 3.970e-7
0.595, -7.980e-7, -4.013e-7, 3.967e-7
0.594, -8.004e-7, -4.032e-7, 3.973e-7
0.593, -7.974e-7, -4.007e-7, 3.967e-7
0.592, -7.959e-7, -3.998e-7, 3.960e-7
0.591, -7.971e-7, -4.001e-7, 3.970e-7
0.590, -7.946e-7, -4.004e-7, 3.942e-7
0.589, -7.955e-7, -3.992e-7, 3.964e-7
0.588, -7.949e-7, -3.998e-7, 3.951e-7
0.587, -7.922e-7, -4.010e-7, 3.912e-7
0.586, -7.925e-7, -3.998e-7, 3.927e-7
0.585, -7.940e-7, -4.001e-7, 3.939e-7
0.584, -7.959e-7, -4.026e-7, 3.933e-7
0.583, -7.916e-7, -4.001e-7, 3.915e-7
0.582, -7.910e-7, -3.986e-7, 3.924e-7
0.581, -7.894e-7, -4.004e-7, 3.890e-7
0.580, -7.904e-7, -3.995e-7, 3.909e-7
0.579, -7.910e-7, -3.998e-7, 3.912e-7
0.578, -7.879e-7, -3.986e-7, 3.893e-7
0.577, -7.888e-7, -3.992e-7, 3.896e-7
0.576, -7.888e-7, -3.992e-7, 3.896e-7
0.575, -7.876e-7, -3.989e-7, 3.887e-7
0.574, -7.882e-7, -3.989e-7, 3.893e-7
0.573, -7.901e-7, -3.989e-7, 3.912e-7
0.572, -7.882e-7, -4.001e-7, 3.881e-7
0.571, -7.846e-7, -3.958e-7, 3.887e-7
0.570, -7.852e-7, -3.971e-7, 3.881e-7
0.569, -7.861e-7, -3.995e-7, 3.866e-7
0.568, -7.870e-7, -3.992e-7, 3.878e-7
0.567, -7.843e-7, -3.980e-7, 3.863e-7
0.566, -7.861e-7, -3.998e-7, 3.863e-7
0.565, -7.833e-7, -3.968e-7, 3.866e-7
0.564, -7.858e-7, -3.998e-7, 3.860e-7
0.563, -7.852e-7, -3.992e-7, 3.860e-7
0.562, -7.849e-7, -3.986e-7, 3.863e-7
0.561, -7.821e-7, -3.986e-7, 3.835e-7
0.560, -7.855e-7, -3.992e-7, 3.863e-7
0.559, -7.840e-7, -3.986e-7, 3.854e-7
0.558, -7.836e-7, -4.004e-7, 3.832e-7
0.557, -7.861e-7, -4.004e-7, 3.857e-7
0.556, -7.818e-7, -3.983e-7, 3.835e-7
0.555, -7.840e-7, -4.013e-7, 3.826e-7
0.554, -7.815e-7, -3.974e-7, 3.841e-7
0.553, -7.818e-7, -3.971e-7, 3.848e-7
0.552, -7.830e-7, -4.013e-7, 3.817e-7
0.551, -7.855e-7, -4.001e-7, 3.854e-7
0.550, -7.821e-7, -3.995e-7, 3.826e-7
0.549, -7.821e-7, -4.001e-7, 3.820e-7
0.548, -7.836e-7, -4.001e-7, 3.835e-7
0.547, -7.806e-7, -3.977e-7, 3.829e-7
0.546, -7.827e-7, -4.013e-7, 3.814e-7
0.545, -7.846e-7, -4.007e-7, 3.838e-7
0.544, -7.824e-7, -4.010e-7, 3.814e-7
0.543, -7.821e-7, -4.016e-7, 3.805e-7
0.542, -7.830e-7, -3.998e-7, 3.832e-7
0.541, -7.806e-7, -3.998e-7, 3.808e-7
0.540, -7.821e-7, -4.022e-7, 3.799e-7
0.539, -7.818e-7, -4.010e-7, 3.808e-7
0.538, -7.788e-7, -3.992e-7, 3.796e-7
0.537, -7.846e-7, -4.022e-7, 3.823e-7
0.536, -7.833e-7, -4.022e-7, 3.811e-7
0.535, -7.824e-7, -4.013e-7, 3.811e-7
0.534, -7.806e-7, -3.998e-7, 3.808e-7
0.533, -7.818e-7, -4.016e-7, 3.802e-7
0.532, -7.812e-7, -4.016e-7, 3.796e-7
0.531, -7.827e-7, -4.019e-7, 3.808e-7
0.530, -7.818e-7, -4.010e-7, 3.808e-7
0.529, -7.812e-7, -4.010e-7, 3.802e-7
0.528, -7.836e-7, -4.029e-7, 3.808e-7
0.527, -7.794e-7, -4.013e-7, 3.780e-7
0.526, -7.833e-7, -4.035e-7, 3.799e-7
0.525, -7.836e-7, -4.026e-7, 3.811e-7
0.524, -7.824e-7, -4.022e-7, 3.802e-7
0.523, -7.846e-7, -4.050e-7, 3.796e-7
0.522, -7.846e-7, -4.013e-7, 3.832e-7
0.521, -7.809e-7, -4.022e-7, 3.787e-7
0.520, -7.818e-7, -4.038e-7, 3.780e-7
0.519, -7.830e-7, -4.035e-7, 3.796e-7
0.518, -7.824e-7, -4.029e-7, 3.796e-7
0.517, -7.836e-7, -4.050e-7, 3.787e-7
0.516, -7.849e-7, -4.041e-7, 3.808e-7
0.515, -7.809e-7, -4.019e-7, 3.790e-7
0.514, -7.836e-7, -4.032e-7, 3.805e-7
0.513, -7.827e-7, -4.029e-7, 3.799e-7
0.512, -7.824e-7, -4.029e-7, 3.796e-7
0.511, -7.858e-7, -4.050e-7, 3.808e-7
0.510, -7.846e-7, -4.029e-7, 3.817e-7
0.509, -7.827e-7, -4.041e-7, 3.787e-7
0.508, -7.858e-7, -4.044e-7, 3.814e-7
0.507, -7.849e-7, -4.044e-7, 3.805e-7
0.506, -7.836e-7, -4.056e-7, 3.780e-7
0.505, -7.870e-7, -4.059e-7, 3.811e-7
0.504, -7.812e-7, -4.026e-7, 3.787e-7
0.503, -7.824e-7, -4.059e-7, 3.765e-7
0.502, -7.836e-7, -4.044e-7, 3.793e-7
0.501, -7.843e-7, -4.056e-7, 3.787e-7
0.500, -7.830e-7, -4.065e-7, 3.765e-7
0.499, -7.824e-7, -4.032e-7, 3.793e-7
0.498, -7.812e-7, -4.041e-7, 3.771e-7
0.497, -7.830e-7, -4.059e-7, 3.771e-7
0.496, -7.843e-7, -4.053e-7, 3.790e-7
0.495, -7.836e-7, -4.071e-7, 3.765e-7
0.494, -7.840e-7, -4.062e-7, 3.777e-7
0.493, -7.836e-7, -4.047e-7, 3.790e-7
0.492, -7.812e-7, -4.053e-7, 3.759e-7
0.491, -7.812e-7, -4.053e-7, 3.759e-7
0.490, -7.849e-7, -4.053e-7, 3.796e-7
0.489, -7.821e-7, -4.062e-7, 3.759e-7
0.488, -7.846e-7, -4.062e-7, 3.783e-7
0.487, -7.843e-7, -4.056e-7, 3.787e-7
0.486, -7.824e-7, -4.068e-7, 3.756e-7
0.485, -7.827e-7, -4.062e-7, 3.765e-7
0.484, -7.836e-7, -4.056e-7, 3.780e-7
0.483, -7.815e-7, -4.062e-7, 3.753e-7
0.482, -7.836e-7, -4.071e-7, 3.765e-7
0.481, -7.840e-7, -4.059e-7, 3.780e-7
0.480, -7.809e-7, -4.056e-7, 3.753e-7
0.479, -7.849e-7, -4.084e-7, 3.765e-7
0.478, -7.833e-7, -4.068e-7, 3.765e-7
0.477, -7.824e-7, -4.065e-7, 3.759e-7
0.476, -7.849e-7, -4.077e-7, 3.771e-7
0.475, -7.818e-7, -4.065e-7, 3.753e-7
0.474, -7.821e-7, -4.071e-7, 3.750e-7
0.473, -7.849e-7, -4.074e-7, 3.774e-7
0.472, -7.809e-7, -4.065e-7, 3.744e-7
0.471, -7.833e-7, -4.084e-7, 3.750e-7
0.470, -7.809e-7, -4.056e-7, 3.753e-7
0.469, -7.833e-7, -4.084e-7, 3.750e-7
0.468, -7.827e-7, -4.080e-7, 3.747e-7
0.467, -7.840e-7, -4.087e-7, 3.753e-7
0.466, -7.824e-7, -4.084e-7, 3.741e-7
0.465, -7.827e-7, -4.087e-7, 3.741e-7
0.464, -7.815e-7, -4.065e-7, 3.750e-7
0.463, -7.840e-7, -4.105e-7, 3.735e-7
0.462, -7.849e-7, -4.096e-7, 3.753e-7
0.461, -7.824e-7, -4.084e-7, 3.741e-7
0.460, -7.824e-7, -4.087e-7, 3.738e-7
0.459, -7.833e-7, -4.090e-7, 3.744e-7
0.458, -7.840e-7, -4.087e-7, 3.753e-7
0.457, -7.836e-7, -4.102e-7, 3.735e-7
0.456, -7.858e-7, -4.105e-7, 3.753e-7
0.455, -7.849e-7, -4.096e-7, 3.753e-7
0.454, -7.840e-7, -4.105e-7, 3.735e-7
0.453, -7.821e-7, -4.084e-7, 3.738e-7
0.452, -7.818e-7, -4.099e-7, 3.719e-7
0.451, -7.840e-7, -4.111e-7, 3.729e-7
0.450, -7.843e-7, -4.087e-7, 3.756e-7
0.449, -7.824e-7, -4.080e-7, 3.744e-7
0.448, -7.846e-7, -4.108e-7, 3.738e-7
0.447, -7.843e-7, -4.096e-7, 3.747e-7
0.446, -7.861e-7, -4.123e-7, 3.738e-7
0.445, -7.840e-7, -4.117e-7, 3.722e-7
0.444, -7.840e-7, -4.096e-7, 3.744e-7
0.443, -7.830e-7, -4.108e-7, 3.722e-7
0.442, -7.870e-7, -4.111e-7, 3.759e-7
0.441, -7.855e-7, -4.108e-7, 3.747e-7
0.440, -7.861e-7, -4.129e-7, 3.732e-7
0.439, -7.876e-7, -4.129e-7, 3.747e-7
0.438, -7.849e-7, -4.120e-7, 3.729e-7
0.437, -7.858e-7, -4.123e-7, 3.735e-7
0.436, -7.873e-7, -4.123e-7, 3.750e-7
0.435, -7.855e-7, -4.114e-7, 3.741e-7
0.434, -7.885e-7, -4.148e-7, 3.738e-7
0.433, -7.897e-7, -4.138e-7, 3.759e-7
0.432, -7.870e-7, -4.126e-7, 3.744e-7
0.431, -7.876e-7, -4.151e-7, 3.725e-7
0.430, -7.907e-7, -4.142e-7, 3.765e-7
0.429, -7.864e-7, -4.123e-7, 3.741e-7
0.428, -7.879e-7, -4.157e-7, 3.722e-7
0.427, -7.897e-7, -4.145e-7, 3.753e-7
0.426, -7.897e-7, -4.138e-7, 3.759e-7
0.425, -7.897e-7, -4.163e-7, 3.735e-7
0.424, -7.907e-7, -4.148e-7, 3.759e-7
0.423, -7.891e-7, -4.142e-7, 3.750e-7
0.422, -7.897e-7, -4.166e-7, 3.732e-7
0.421, -7.940e-7, -4.172e-7, 3.768e-7
0.420, -7.904e-7, -4.163e-7, 3.741e-7
0.419, -7.916e-7, -4.163e-7, 3.753e-7
0.418, -7.907e-7, -4.160e-7, 3.747e-7
0.417, -7.919e-7, -4.172e-7, 3.747e-7
0.416, -7.931e-7, -4.184e-7, 3.747e-7
0.415, -7.934e-7, -4.172e-7, 3.762e-7
0.414, -7.949e-7, -4.190e-7, 3.759e-7
0.413, -7.952e-7, -4.190e-7, 3.762e-7
0.412, -7.949e-7, -4.178e-7, 3.771e-7
0.411, -7.943e-7, -4.187e-7, 3.756e-7
0.410, -7.959e-7, -4.209e-7, 3.750e-7
0.409, -7.943e-7, -4.178e-7, 3.765e-7
0.408, -7.955e-7, -4.212e-7, 3.744e-7
0.407, -7.968e-7, -4.193e-7, 3.774e-7
0.406, -7.959e-7, -4.209e-7, 3.750e-7
0.405, -7.971e-7, -4.215e-7, 3.756e-7
0.404, -7.965e-7, -4.199e-7, 3.765e-7
0.403, -7.955e-7, -4.206e-7, 3.750e-7
0.402, -7.983e-7, -4.218e-7, 3.765e-7
0.401, -7.992e-7, -4.212e-7, 3.780e-7
0.400, -7.998e-7, -4.230e-7, 3.768e-7
0.399, -7.992e-7, -4.227e-7, 3.765e-7
0.398, -7.989e-7, -4.221e-7, 3.768e-7
0.397, -7.980e-7, -4.221e-7, 3.759e-7
0.396, -8.013e-7, -4.236e-7, 3.777e-7
0.395, -8.007e-7, -4.227e-7, 3.780e-7
0.394, -8.020e-7, -4.239e-7, 3.780e-7
0.393, -8.026e-7, -4.254e-7, 3.771e-7
0.392, -7.998e-7, -4.236e-7, 3.762e-7
0.391, -8.010e-7, -4.254e-7, 3.756e-7
0.390, -8.059e-7, -4.251e-7, 3.808e-7
0.389, -7.989e-7, -4.233e-7, 3.756e-7
0.388, -7.992e-7, -4.248e-7, 3.744e-7
0.387, -8.044e-7, -4.257e-7, 3.787e-7
0.386, -8.007e-7, -4.224e-7, 3.783e-7
0.385, -8.023e-7, -4.261e-7, 3.762e-7
0.384, -8.023e-7, -4.257e-7, 3.765e-7
0.383, -8.007e-7, -4.251e-7, 3.756e-7
0.382, -8.044e-7, -4.282e-7, 3.762e-7
0.381, -8.047e-7, -4.273e-7, 3.774e-7
0.380, -8.041e-7, -4.273e-7, 3.768e-7
0.379, -8.071e-7, -4.282e-7, 3.790e-7
0.378, -8.038e-7, -4.264e-7, 3.774e-7
0.377, -8.056e-7, -4.276e-7, 3.780e-7
0.376, -8.078e-7, -4.291e-7, 3.787e-7
0.375, -8.062e-7, -4.270e-7, 3.793e-7
0.374, -8.074e-7, -4.297e-7, 3.777e-7
0.373, -8.093e-7, -4.309e-7, 3.783e-7
0.372, -8.074e-7, -4.276e-7, 3.799e-7
0.371, -8.084e-7, -4.303e-7, 3.780e-7
0.370, -8.081e-7, -4.309e-7, 3.771e-7
0.369, -8.078e-7, -4.285e-7, 3.793e-7
0.368, -8.065e-7, -4.297e-7, 3.768e-7
0.367, -8.084e-7, -4.297e-7, 3.787e-7
0.366, -8.087e-7, -4.300e-7, 3.787e-7
0.365, -8.068e-7, -4.291e-7, 3.777e-7
0.364, -8.117e-7, -4.331e-7, 3.787e-7
0.363, -8.129e-7, -4.322e-7, 3.808e-7
0.362, -8.084e-7, -4.300e-7, 3.783e-7
0.361, -8.111e-7, -4.328e-7, 3.783e-7
0.360, -8.081e-7, -4.309e-7, 3.771e-7
0.359, -8.120e-7, -4.325e-7, 3.796e-7
0.358, -8.114e-7, -4.325e-7, 3.790e-7
0.357, -8.111e-7, -4.334e-7, 3.777e-7
0.356, -8.117e-7, -4.325e-7, 3.793e-7
0.355, -8.136e-7, -4.346e-7, 3.790e-7
0.354, -8.126e-7, -4.331e-7, 3.796e-7
0.353, -8.136e-7, -4.346e-7, 3.790e-7
0.352, -8.105e-7, -4.325e-7, 3.780e-7
0.351, -8.111e-7, -4.337e-7, 3.774e-7
0.350, -8.151e-7, -4.355e-7, 3.796e-7
0.349, -8.126e-7, -4.334e-7, 3.793e-7
0.348, -8.123e-7, -4.349e-7, 3.774e-7
0.347, -8.169e-7, -4.380e-7, 3.790e-7
0.346, -8.136e-7, -4.352e-7, 3.783e-7
0.345, -8.151e-7, -4.367e-7, 3.783e-7
0.344, -8.151e-7, -4.358e-7, 3.793e-7
0.343, -8.132e-7, -4.349e-7, 3.783e-7
0.342, -8.157e-7, -4.370e-7, 3.786e-7
0.341, -8.148e-7, -4.364e-7, 3.783e-7
0.340, -8.142e-7, -4.367e-7, 3.774e-7
0.339, -8.169e-7, -4.383e-7, 3.786e-7
0.338, -8.184e-7, -4.380e-7, 3.805e-7
0.337, -8.166e-7, -4.364e-7, 3.802e-7
0.336, -8.190e-7, -4.395e-7, 3.796e-7
0.335, -8.160e-7, -4.364e-7, 3.796e-7
0.334, -8.172e-7, -4.370e-7, 3.802e-7
0.333, -8.203e-7, -4.413e-7, 3.790e-7
0.332, -8.221e-7, -4.413e-7, 3.808e-7
0.331, -8.169e-7, -4.376e-7, 3.793e-7
0.330, -8.209e-7, -4.416e-7, 3.793e-7
0.329, -8.200e-7, -4.395e-7, 3.805e-7
0.328, -8.200e-7, -4.407e-7, 3.793e-7
0.327, -8.227e-7, -4.422e-7, 3.805e-7
0.326, -8.233e-7, -4.413e-7, 3.820e-7
0.325, -8.212e-7, -4.419e-7, 3.793e-7
0.324, -8.233e-7, -4.419e-7, 3.814e-7
0.323, -8.233e-7, -4.419e-7, 3.814e-7
0.322, -8.251e-7, -4.456e-7, 3.796e-7
0.321, -8.276e-7, -4.438e-7, 3.838e-7
0.320, -8.251e-7, -4.441e-7, 3.811e-7
0.319, -8.261e-7, -4.456e-7, 3.805e-7
0.318, -8.279e-7, -4.444e-7, 3.835e-7
0.317, -8.273e-7, -4.434e-7, 3.838e-7
0.316, -8.285e-7, -4.471e-7, 3.814e-7
0.315, -8.279e-7, -4.447e-7, 3.832e-7
0.314, -8.282e-7, -4.459e-7, 3.823e-7
0.313, -8.288e-7, -4.474e-7, 3.814e-7
0.312, -8.316e-7, -4.465e-7, 3.851e-7
0.311, -8.291e-7, -4.456e-7, 3.835e-7
0.310, -8.322e-7, -4.480e-7, 3.841e-7
0.309, -8.346e-7, -4.489e-7, 3.857e-7
0.308, -8.313e-7, -4.471e-7, 3.841e-7
0.307, -8.322e-7, -4.489e-7, 3.832e-7
0.306, -8.343e-7, -4.486e-7, 3.857e-7
0.305, -8.313e-7, -4.486e-7, 3.826e-7
0.304, -8.358e-7, -4.508e-7, 3.851e-7
0.303, -8.328e-7, -4.486e-7, 3.841e-7
0.302, -8.358e-7, -4.514e-7, 3.844e-7
0.301, -8.364e-7, -4.514e-7, 3.851e-7
0.300, -8.392e-7, -4.517e-7, 3.875e-7
0.299, -8.370e-7, -4.529e-7, 3.841e-7
0.298, -8.377e-7, -4.529e-7, 3.848e-7
0.297, -8.361e-7, -4.517e-7, 3.844e-7
0.296, -8.392e-7, -4.535e-7, 3.857e-7
0.295, -8.401e-7, -4.526e-7, 3.875e-7
0.294, -8.410e-7, -4.535e-7, 3.875e-7
0.293, -8.410e-7, -4.553e-7, 3.857e-7
0.292, -8.441e-7, -4.557e-7, 3.884e-7
0.291, -8.419e-7, -4.553e-7, 3.866e-7
0.290, -8.450e-7, -4.578e-7, 3.872e-7
0.289, -8.468e-7, -4.575e-7, 3.893e-7
0.288, -8.462e-7, -4.569e-7, 3.893e-7
0.287, -8.471e-7, -4.587e-7, 3.884e-7
0.286, -8.480e-7, -4.578e-7, 3.902e-7
0.285, -8.471e-7, -4.590e-7, 3.881e-7
0.284, -8.483e-7, -4.587e-7, 3.896e-7
0.283, -8.471e-7, -4.596e-7, 3.875e-7
0.282, -8.483e-7, -4.590e-7, 3.893e-7
0.281, -8.496e-7, -4.596e-7, 3.899e-7
0.280, -8.502e-7, -4.596e-7, 3.906e-7
0.279, -8.499e-7, -4.611e-7, 3.887e-7
0.278, -8.505e-7, -4.605e-7, 3.899e-7
0.277, -8.508e-7, -4.596e-7, 3.912e-7
0.276, -8.532e-7, -4.642e-7, 3.890e-7
0.275, -8.538e-7, -4.627e-7, 3.912e-7
0.274, -8.560e-7, -4.642e-7, 3.918e-7
0.273, -8.538e-7, -4.648e-7, 3.890e-7
0.272, -8.560e-7, -4.645e-7, 3.915e-7
0.271, -8.520e-7, -4.621e-7, 3.899e-7
0.270, -8.599e-7, -4.679e-7, 3.921e-7
0.269, -8.578e-7, -4.648e-7, 3.930e-7
0.268, -8.557e-7, -4.651e-7, 3.906e-7
0.267, -8.590e-7, -4.666e-7, 3.924e-7
0.266, -8.587e-7, -4.651e-7, 3.936e-7
0.265, -8.590e-7, -4.669e-7, 3.921e-7
0.264, -8.587e-7, -4.663e-7, 3.924e-7
0.263, -8.609e-7, -4.663e-7, 3.945e-7
0.262, -8.590e-7, -4.669e-7, 3.921e-7
0.261, -8.633e-7, -4.700e-7, 3.933e-7
0.260, -8.624e-7, -4.682e-7, 3.942e-7
0.259, -8.624e-7, -4.703e-7, 3.921e-7
0.258, -8.630e-7, -4.703e-7, 3.927e-7
0.257, -8.666e-7, -4.697e-7, 3.970e-7
0.256, -8.624e-7, -4.712e-7, 3.912e-7
0.255, -8.654e-7, -4.718e-7, 3.936e-7
0.254, -8.666e-7, -4.712e-7, 3.954e-7
0.253, -8.648e-7, -4.712e-7, 3.936e-7
0.252, -8.691e-7, -4.743e-7, 3.948e-7
0.251, -8.673e-7, -4.706e-7, 3.967e-7
0.250, -8.670e-7, -4.730e-7, 3.939e-7
0.249, -8.691e-7, -4.755e-7, 3.936e-7
0.248, -8.703e-7, -4.737e-7, 3.967e-7
0.247, -8.706e-7, -4.764e-7, 3.942e-7
0.246, -8.706e-7, -4.755e-7, 3.951e-7
0.245, -8.724e-7, -4.758e-7, 3.967e-7
0.244, -8.734e-7, -4.782e-7, 3.951e-7
0.243, -8.746e-7, -4.764e-7, 3.982e-7
0.242, -8.761e-7, -4.795e-7, 3.967e-7
0.241, -8.752e-7, -4.773e-7, 3.979e-7
0.240, -8.746e-7, -4.776e-7, 3.970e-7
0.239, -8.755e-7, -4.776e-7, 3.979e-7
0.238, -8.786e-7, -4.795e-7, 3.991e-7
0.237, -8.770e-7, -4.788e-7, 3.982e-7
0.236, -8.776e-7, -4.807e-7, 3.970e-7
0.235, -8.795e-7, -4.804e-7, 3.991e-7
0.234, -8.789e-7, -4.788e-7, 4.000e-7
0.233, -8.767e-7, -4.801e-7, 3.967e-7
0.232, -8.807e-7, -4.807e-7, 4.000e-7
0.231, -8.804e-7, -4.819e-7, 3.985e-7
0.230, -8.798e-7, -4.813e-7, 3.985e-7
0.229, -8.822e-7, -4.828e-7, 3.994e-7
0.228, -8.834e-7, -4.831e-7, 4.003e-7
0.227, -8.837e-7, -4.849e-7, 3.988e-7
0.226, -8.856e-7, -4.859e-7, 3.997e-7
0.225, -8.840e-7, -4.837e-7, 4.003e-7
0.224, -8.868e-7, -4.859e-7, 4.009e-7
0.223, -8.877e-7, -4.871e-7, 4.006e-7
0.222, -8.889e-7, -4.868e-7, 4.021e-7
0.221, -8.914e-7, -4.901e-7, 4.012e-7
0.220, -8.898e-7, -4.865e-7, 4.034e-7
0.219, -8.898e-7, -4.877e-7, 4.021e-7
0.218, -8.908e-7, -4.889e-7, 4.018e-7
0.217, -8.917e-7, -4.883e-7, 4.034e-7
0.216, -8.923e-7, -4.892e-7, 4.031e-7
0.215, -8.959e-7, -4.914e-7, 4.046e-7
0.214, -8.920e-7, -4.892e-7, 4.028e-7
0.213, -8.972e-7, -4.920e-7, 4.052e-7
0.212, -8.969e-7, -4.929e-7, 4.040e-7
0.211, -8.981e-7, -4.929e-7, 4.052e-7
0.210, -8.984e-7, -4.926e-7, 4.058e-7
0.209, -9.002e-7, -4.944e-7, 4.058e-7
0.208, -8.984e-7, -4.938e-7, 4.046e-7
0.207, -9.027e-7, -4.965e-7, 4.061e-7
0.206, -9.030e-7, -4.969e-7, 4.061e-7
0.205, -9.011e-7, -4.947e-7, 4.064e-7
0.204, -9.045e-7, -4.984e-7, 4.061e-7
0.203, -9.069e-7, -4.987e-7, 4.082e-7
0.202, -9.054e-7, -4.975e-7, 4.079e-7
0.201, -9.075e-7, -4.999e-7, 4.076e-7
0.200, -9.109e-7, -5.017e-7, 4.092e-7
0.199, -9.085e-7, -4.993e-7, 4.092e-7
0.198, -9.106e-7, -5.033e-7, 4.073e-7
0.197, -9.149e-7, -5.033e-7, 4.116e-7
0.196, -9.124e-7, -5.017e-7, 4.107e-7
0.195, -9.143e-7, -5.054e-7, 4.089e-7
0.194, -9.164e-7, -5.036e-7, 4.128e-7
0.193, -9.161e-7, -5.042e-7, 4.119e-7
0.192, -9.167e-7, -5.069e-7, 4.098e-7
0.191, -9.204e-7, -5.084e-7, 4.119e-7
0.190, -9.176e-7, -5.066e-7, 4.110e-7
0.189, -9.219e-7, -5.100e-7, 4.119e-7
0.188, -9.197e-7, -5.081e-7, 4.116e-7
0.187, -9.228e-7, -5.091e-7, 4.137e-7
0.186, -9.228e-7, -5.103e-7, 4.125e-7
0.185, -9.252e-7, -5.124e-7, 4.128e-7
0.184, -9.292e-7, -5.142e-7, 4.150e-7
0.183, -9.292e-7, -5.139e-7, 4.153e-7
0.182, -9.265e-7, -5.115e-7, 4.150e-7
0.181, -9.301e-7, -5.155e-7, 4.147e-7
0.180, -9.310e-7, -5.145e-7, 4.165e-7
0.179, -9.341e-7, -5.170e-7, 4.171e-7
0.178, -9.353e-7, -5.182e-7, 4.171e-7
0.177, -9.371e-7, -5.179e-7, 4.192e-7
0.176, -9.359e-7, -5.185e-7, 4.174e-7
0.175, -9.393e-7, -5.203e-7, 4.189e-7
0.174, -9.405e-7, -5.216e-7, 4.189e-7
0.173, -9.396e-7, -5.222e-7, 4.174e-7
0.172, -9.429e-7, -5.228e-7, 4.201e-7
0.171, -9.432e-7, -5.225e-7, 4.208e-7
0.170, -9.435e-7, -5.237e-7, 4.198e-7
0.169, -9.475e-7, -5.246e-7, 4.229e-7
0.168, -9.497e-7, -5.252e-7, 4.244e-7
0.167, -9.497e-7, -5.265e-7, 4.232e-7
0.166, -9.515e-7, -5.283e-7, 4.232e-7
0.165, -9.530e-7, -5.283e-7, 4.247e-7
0.164, -9.545e-7, -5.304e-7, 4.241e-7
0.163, -9.555e-7, -5.304e-7, 4.250e-7
0.162, -9.555e-7, -5.310e-7, 4.244e-7
0.161, -9.573e-7, -5.322e-7, 4.250e-7
0.160, -9.600e-7, -5.338e-7, 4.263e-7
0.159, -9.609e-7, -5.335e-7, 4.275e-7
0.158, -9.606e-7, -5.353e-7, 4.253e-7
0.157, -9.646e-7, -5.368e-7, 4.278e-7
0.156, -9.625e-7, -5.347e-7, 4.278e-7
0.155, -9.680e-7, -5.387e-7, 4.293e-7
0.154, -9.695e-7, -5.396e-7, 4.299e-7
0.153, -9.689e-7, -5.390e-7, 4.299e-7
0.152, -9.731e-7, -5.438e-7, 4.293e-7
0.151, -9.744e-7, -5.414e-7, 4.330e-7
0.150, -9.713e-7, -5.417e-7, 4.296e-7
0.149, -9.771e-7, -5.448e-7, 4.324e-7
0.148, -9.786e-7, -5.454e-7, 4.333e-7
0.147, -9.759e-7, -5.460e-7, 4.299e-7
0.146, -9.793e-7, -5.472e-7, 4.321e-7
0.145, -9.808e-7, -5.466e-7, 4.342e-7
0.144, -9.808e-7, -5.478e-7, 4.330e-7
0.143, -9.838e-7, -5.503e-7, 4.336e-7
0.142, -9.884e-7, -5.515e-7, 4.369e-7
0.141, -9.863e-7, -5.524e-7, 4.339e-7
0.140, -9.890e-7, -5.530e-7, 4.360e-7
0.139, -9.890e-7, -5.518e-7, 4.372e-7
0.138, -9.918e-7, -5.548e-7, 4.369e-7
0.137, -9.957e-7, -5.567e-7, 4.391e-7
0.136, -9.960e-7, -5.570e-7, 4.391e-7
0.135, -9.930e-7, -5.570e-7, 4.360e-7
0.134, -9.991e-7, -5.606e-7, 4.385e-7
0.133, -1.001e-6, -5.600e-7, 4.412e-7
0.132, -1.001e-6, -5.603e-7, 4.406e-7
0.131, -1.004e-6, -5.628e-7, 4.409e-7
0.130, -1.006e-6, -5.625e-7, 4.436e-7
0.129, -1.007e-6, -5.646e-7, 4.421e-7
0.128, -1.010e-6, -5.680e-7, 4.421e-7
0.127, -1.012e-6, -5.670e-7, 4.452e-7
0.126, -1.012e-6, -5.676e-7, 4.446e-7
0.125, -1.013e-6, -5.673e-7, 4.452e-7
0.124, -1.016e-6, -5.698e-7, 4.464e-7
0.123, -1.017e-6, -5.713e-7, 4.458e-7
0.122, -1.019e-6, -5.719e-7, 4.467e-7
0.121, -1.017e-6, -5.725e-7, 4.449e-7
0.120, -1.024e-6, -5.753e-7, 4.488e-7
0.119, -1.023e-6, -5.756e-7, 4.473e-7
0.118, -1.025e-6, -5.762e-7, 4.485e-7
0.117, -1.028e-6, -5.780e-7, 4.497e-7
0.116, -1.030e-6, -5.789e-7, 4.513e-7
0.115, -1.033e-6, -5.814e-7, 4.516e-7
0.114, -1.036e-6, -5.826e-7, 4.534e-7
0.113, -1.037e-6, -5.841e-7, 4.525e-7
0.112, -1.040e-6, -5.863e-7, 4.534e-7
0.111, -1.041e-6, -5.857e-7, 4.552e-7
0.110, -1.042e-6, -5.860e-7, 4.555e-7
0.109, -1.042e-6, -5.872e-7, 4.552e-7
0.108, -1.046e-6, -5.902e-7, 4.559e-7
0.107, -1.045e-6, -5.878e-7, 4.574e-7
0.106, -1.048e-6, -5.911e-7, 4.565e-7
0.105, -1.051e-6, -5.918e-7, 4.592e-7
0.104, -1.052e-6, -5.933e-7, 4.586e-7
0.103, -1.056e-6, -5.954e-7, 4.604e-7
0.102, -1.058e-6, -5.957e-7, 4.623e-7
0.101, -1.059e-6, -5.976e-7, 4.613e-7
0.100, -1.062e-6, -5.994e-7, 4.626e-7
0.099, -1.064e-6, -5.994e-7, 4.647e-7
0.098, -1.065e-6, -6.012e-7, 4.641e-7
0.097, -1.068e-6, -6.040e-7, 4.641e-7
0.096, -1.070e-6, -6.030e-7, 4.665e-7
0.095, -1.072e-6, -6.049e-7, 4.668e-7
0.094, -1.075e-6, -6.082e-7, 4.668e-7
0.093, -1.073e-6, -6.061e-7, 4.671e-7
0.092, -1.079e-6, -6.104e-7, 4.687e-7
0.091, -1.079e-6, -6.082e-7, 4.708e-7
0.090, -1.082e-6, -6.107e-7, 4.717e-7
0.089, -1.084e-6, -6.128e-7, 4.714e-7
0.088, -1.088e-6, -6.137e-7, 4.739e-7
0.087, -1.090e-6, -6.143e-7, 4.757e-7
0.086, -1.092e-6, -6.183e-7, 4.732e-7
0.085, -1.094e-6, -6.180e-7, 4.763e-7
0.084, -1.095e-6, -6.177e-7, 4.775e-7
0.083, -1.100e-6, -6.223e-7, 4.775e-7
0.082, -1.100e-6, -6.211e-7, 4.790e-7
0.081, -1.102e-6, -6.223e-7, 4.800e-7
0.080, -1.104e-6, -6.253e-7, 4.787e-7
0.079, -1.111e-6, -6.272e-7, 4.842e-7
0.078, -1.113e-6, -6.287e-7, 4.842e-7
0.077, -1.110e-6, -6.287e-7, 4.815e-7
0.076, -1.116e-6, -6.296e-7, 4.864e-7
0.075, -1.117e-6, -6.317e-7, 4.858e-7
0.074, -1.118e-6, -6.330e-7, 4.855e-7
0.073, -1.123e-6, -6.339e-7, 4.894e-7
0.072, -1.124e-6, -6.354e-7, 4.885e-7
0.071, -1.128e-6, -6.391e-7, 4.894e-7
0.070, -1.129e-6, -6.378e-7, 4.916e-7
0.069, -1.130e-6, -6.381e-7, 4.922e-7
0.068, -1.134e-6, -6.415e-7, 4.928e-7
0.067, -1.138e-6, -6.421e-7, 4.955e-7
0.066, -1.140e-6, -6.442e-7, 4.958e-7
0.065, -1.143e-6, -6.464e-7, 4.964e-7
0.064, -1.143e-6, -6.467e-7, 4.967e-7
0.063, -1.149e-6, -6.500e-7, 4.989e-7
0.062, -1.149e-6, -6.500e-7, 4.992e-7
0.061, -1.151e-6, -6.503e-7, 5.007e-7
0.060, -1.154e-6, -6.525e-7, 5.019e-7
0.059, -1.157e-6, -6.528e-7, 5.044e-7
0.058, -1.161e-6, -6.558e-7, 5.056e-7
0.057, -1.161e-6, -6.561e-7, 5.053e-7
0.056, -1.163e-6, -6.555e-7, 5.074e-7
0.055, -1.164e-6, -6.571e-7, 5.074e-7
0.054, -1.168e-6, -6.598e-7, 5.080e-7
0.053, -1.174e-6, -6.626e-7, 5.111e-7
0.052, -1.174e-6, -6.616e-7, 5.120e-7
0.051, -1.176e-6, -6.644e-7, 5.114e-7
0.050, -1.178e-6, -6.644e-7, 5.138e-7
0.049, -1.179e-6, -6.641e-7, 5.144e-7
0.048, -1.184e-6, -6.677e-7, 5.160e-7
0.047, -1.186e-6, -6.684e-7, 5.172e-7
0.046, -1.187e-6, -6.699e-7, 5.175e-7
0.045, -1.190e-6, -6.711e-7, 5.193e-7
0.044, -1.192e-6, -6.714e-7, 5.202e-7
0.043, -1.194e-6, -6.735e-7, 5.209e-7
0.042, -1.199e-6, -6.763e-7, 5.230e-7
0.041, -1.199e-6, -6.748e-7, 5.245e-7
0.040, -1.200e-6, -6.754e-7, 5.245e-7
0.039, -1.206e-6, -6.799e-7, 5.260e-7
0.038, -1.204e-6, -6.769e-7, 5.270e-7
0.037, -1.210e-6, -6.815e-7, 5.285e-7
0.036, -1.214e-6, -6.821e-7, 5.315e-7
0.035, -1.212e-6, -6.809e-7, 5.312e-7
0.034, -1.217e-6, -6.839e-7, 5.334e-7
0.033, -1.216e-6, -6.830e-7, 5.331e-7
0.032, -1.219e-6, -6.845e-7, 5.343e-7
0.031, -1.223e-6, -6.873e-7, 5.358e-7
0.030, -1.225e-6, -6.870e-7, 5.376e-7
0.029, -1.224e-6, -6.870e-7, 5.370e-7
0.028, -1.226e-6, -6.888e-7, 5.373e-7
0.027, -1.230e-6, -6.888e-7, 5.410e-7
0.026, -1.230e-6, -6.912e-7, 5.389e-7
0.025, -1.237e-6, -6.925e-7, 5.450e-7
0.024, -1.237e-6, -6.918e-7, 5.447e-7
0.023, -1.239e-6, -6.940e-7, 5.453e-7
0.022, -1.239e-6, -6.934e-7, 5.456e-7
0.021, -1.244e-6, -6.955e-7, 5.480e-7
0.020, -1.244e-6, -6.964e-7, 5.474e-7
0.019, -1.246e-6, -6.964e-7, 5.495e-7
0.018, -1.246e-6, -6.961e-7, 5.501e-7
0.017, -1.250e-6, -6.983e-7, 5.514e-7
0.016, -1.254e-6, -7.007e-7, 5.529e-7
0.015, -1.254e-6, -6.989e-7, 5.553e-7
0.014, -1.255e-6, -6.998e-7, 5.553e-7
0.013, -1.258e-6, -7.022e-7, 5.559e-7
0.012, -1.261e-6, -7.022e-7, 5.584e-7
0.011, -1.262e-6, -7.044e-7, 5.575e-7
0.010, -1.265e-6, -7.044e-7, 5.602e-7
0.009, -1.266e-6, -7.041e-7, 5.620e-7
0.008, -1.267e-6, -7.062e-7, 5.608e-7
0.007, -1.270e-6, -7.062e-7, 5.639e-7
0.006, -1.271e-6, -7.056e-7, 5.657e-7
0.005, -1.271e-6, -7.056e-7, 5.654e-7
0.004, -1.274e-6, -7.071e-7, 5.672e-7
0.003, -1.276e-6, -7.077e-7, 5.678e-7
0.002, -1.277e-6, -7.080e-7, 5.688e-7
0.001, -1.279e-6, -7.092e-7, 5.700e-7
0.000, -1.280e-6, -7.086e-7, 5.709e-7
-0.001, -1.282e-6, -7.095e-7, 5.727e-7
-0.002, -1.283e-6, -7.099e-7, 5.736e-7
-0.003, -1.282e-6, -7.102e-7, 5.721e-7
-0.004, -1.286e-6, -7.105e-7, 5.752e-7
-0.005, -1.286e-6, -7.105e-7, 5.758e-7
-0.006, -1.286e-6, -7.099e-7, 5.764e-7
-0.007, -1.289e-6, -7.105e-7, 5.785e-7
-0.008, -1.291e-6, -7.114e-7, 5.794e-7
-0.009, -1.291e-6, -7.129e-7, 5.785e-7
-0.010, -1.293e-6, -7.120e-7, 5.813e-7
-0.011, -1.294e-6, -7.129e-7, 5.813e-7
-0.012, -1.298e-6, -7.138e-7, 5.837e-7
-0.013, -1.299e-6, -7.144e-7, 5.843e-7
-0.014, -1.300e-6, -7.144e-7, 5.858e-7
-0.015, -1.301e-6, -7.150e-7, 5.855e-7
-0.016, -1.300e-6, -7.141e-7, 5.858e-7
-0.017, -1.301e-6, -7.129e-7, 5.886e-7
-0.018, -1.303e-6, -7.153e-7, 5.874e-7
-0.019, -1.303e-6, -7.129e-7, 5.904e-7
-0.020, -1.305e-6, -7.153e-7, 5.901e-7
-0.021, -1.307e-6, -7.172e-7, 5.901e-7
-0.022, -1.309e-6, -7.150e-7, 5.941e-7
-0.023, -1.307e-6, -7.150e-7, 5.923e-7
-0.024, -1.310e-6, -7.160e-7, 5.941e-7
-0.025, -1.311e-6, -7.150e-7, 5.956e-7
-0.026, -1.312e-6, -7.163e-7, 5.956e-7
-0.027, -1.315e-6, -7.163e-7, 5.984e-7
-0.028, -1.312e-6, -7.141e-7, 5.981e-7
-0.029, -1.313e-6, -7.157e-7, 5.974e-7
-0.030, -1.316e-6, -7.144e-7, 6.014e-7
-0.031, -1.317e-6, -7.153e-7, 6.017e-7
-0.032, -1.316e-6, -7.163e-7, 5.996e-7
-0.033, -1.320e-6, -7.172e-7, 6.029e-7
-0.034, -1.318e-6, -7.135e-7, 6.042e-7
-0.035, -1.320e-6, -7.153e-7, 6.042e-7
-0.036, -1.320e-6, -7.144e-7, 6.060e-7
-0.037, -1.321e-6, -7.147e-7, 6.060e-7
-0.038, -1.321e-6, -7.153e-7, 6.057e-7
-0.039, -1.321e-6, -7.138e-7, 6.072e-7
-0.040, -1.320e-6, -7.129e-7, 6.069e-7
-0.041, -1.323e-6, -7.150e-7, 6.081e-7
-0.042, -1.323e-6, -7.147e-7, 6.084e-7
-0.043, -1.322e-6, -7.117e-7, 6.103e-7
-0.044, -1.324e-6, -7.141e-7, 6.100e-7
-0.045, -1.325e-6, -7.138e-7, 6.112e-7
-0.046, -1.325e-6, -7.123e-7, 6.124e-7
-0.047, -1.325e-6, -7.138e-7, 6.112e-7
-0.048, -1.325e-6, -7.117e-7, 6.130e-7
-0.049, -1.326e-6, -7.117e-7, 6.142e-7
-0.050, -1.324e-6, -7.102e-7, 6.142e-7
-0.051, -1.327e-6, -7.117e-7, 6.151e-7
-0.052, -1.325e-6, -7.102e-7, 6.148e-7
-0.053, -1.327e-6, -7.117e-7, 6.158e-7
-0.054, -1.327e-6, -7.092e-7, 6.176e-7
-0.055, -1.328e-6, -7.105e-7, 6.179e-7
-0.056, -1.330e-6, -7.102e-7, 6.203e-7
-0.057, -1.326e-6, -7.080e-7, 6.179e-7
-0.058, -1.327e-6, -7.089e-7, 6.179e-7
-0.059, -1.328e-6, -7.074e-7, 6.203e-7
-0.060, -1.328e-6, -7.062e-7, 6.216e-7
-0.061, -1.328e-6, -7.074e-7, 6.203e-7
-0.062, -1.329e-6, -7.071e-7, 6.222e-7
-0.063, -1.327e-6, -7.047e-7, 6.219e-7
-0.064, -1.327e-6, -7.053e-7, 6.212e-7
-0.065, -1.329e-6, -7.050e-7, 6.237e-7
-0.066, -1.327e-6, -7.034e-7, 6.240e-7
-0.067, -1.330e-6, -7.044e-7, 6.255e-7
-0.068, -1.328e-6, -7.034e-7, 6.249e-7
-0.069, -1.325e-6, -7.019e-7, 6.228e-7
-0.070, -1.327e-6, -7.019e-7, 6.252e-7
-0.071, -1.327e-6, -7.007e-7, 6.261e-7
-0.072, -1.326e-6, -7.013e-7, 6.243e-7
-0.073, -1.328e-6, -7.010e-7, 6.267e-7
-0.074, -1.325e-6, -6.992e-7, 6.255e-7
-0.075, -1.325e-6, -6.989e-7, 6.264e-7
-0.076, -1.323e-6, -6.970e-7, 6.261e-7
-0.077, -1.324e-6, -6.958e-7, 6.286e-7
-0.078, -1.324e-6, -6.967e-7, 6.273e-7
-0.079, -1.326e-6, -6.973e-7, 6.289e-7
-0.080, -1.320e-6, -6.934e-7, 6.270e-7
-0.081, -1.323e-6, -6.955e-7, 6.277e-7
-0.082, -1.322e-6, -6.943e-7, 6.280e-7
-0.083, -1.322e-6, -6.928e-7, 6.289e-7
-0.084, -1.320e-6, -6.922e-7, 6.273e-7
-0.085, -1.320e-6, -6.909e-7, 6.289e-7
-0.086, -1.317e-6, -6.894e-7, 6.273e-7
-0.087, -1.318e-6, -6.900e-7, 6.280e-7
-0.088, -1.319e-6, -6.891e-7, 6.301e-7
-0.089, -1.316e-6, -6.870e-7, 6.286e-7
-0.090, -1.316e-6, -6.882e-7, 6.280e-7
-0.091, -1.316e-6, -6.854e-7, 6.301e-7
-0.092, -1.312e-6, -6.845e-7, 6.270e-7
-0.093, -1.312e-6, -6.861e-7, 6.261e-7
-0.094, -1.312e-6, -6.815e-7, 6.301e-7
-0.095, -1.310e-6, -6.821e-7, 6.280e-7
-0.096, -1.310e-6, -6.824e-7, 6.280e-7
-0.097, -1.309e-6, -6.793e-7, 6.292e-7
-0.098, -1.308e-6, -6.809e-7, 6.273e-7
-0.099, -1.308e-6, -6.790e-7, 6.286e-7
-0.100, -1.313e-6, -6.781e-7, 6.350e-7
-0.101, -1.304e-6, -6.778e-7, 6.264e-7
-0.102, -1.306e-6, -6.784e-7, 6.277e-7
-0.103, -1.305e-6, -6.757e-7, 6.298e-7
-0.104, -1.301e-6, -6.751e-7, 6.258e-7
-0.105, -1.301e-6, -6.751e-7, 6.261e-7
-0.106, -1.299e-6, -6.717e-7, 6.273e-7
-0.107, -1.298e-6, -6.729e-7, 6.252e-7
-0.108, -1.297e-6, -6.702e-7, 6.264e-7
-0.109, -1.297e-6, -6.708e-7, 6.264e-7
-0.110, -1.295e-6, -6.702e-7, 6.249e-7
-0.111, -1.296e-6, -6.690e-7, 6.270e-7
-0.112, -1.292e-6, -6.665e-7, 6.255e-7
-0.113, -1.292e-6, -6.668e-7, 6.249e-7
-0.114, -1.293e-6, -6.665e-7, 6.264e-7
-0.115, -1.288e-6, -6.622e-7, 6.258e-7
-0.116, -1.288e-6, -6.635e-7, 6.243e-7
-0.117, -1.288e-6, -6.616e-7, 6.264e-7
-0.118, -1.287e-6, -6.622e-7, 6.246e-7
-0.119, -1.283e-6, -6.610e-7, 6.222e-7
-0.120, -1.284e-6, -6.601e-7, 6.240e-7
-0.121, -1.282e-6, -6.586e-7, 6.231e-7
-0.122, -1.280e-6, -6.565e-7, 6.234e-7
-0.123, -1.279e-6, -6.574e-7, 6.212e-7
-0.124, -1.278e-6, -6.574e-7, 6.206e-7
-0.125, -1.276e-6, -6.543e-7, 6.219e-7
-0.126, -1.274e-6, -6.537e-7, 6.203e-7
-0.127, -1.275e-6, -6.534e-7, 6.212e-7
-0.128, -1.273e-6, -6.525e-7, 6.203e-7
-0.129, -1.271e-6, -6.510e-7, 6.197e-7
-0.130, -1.273e-6, -6.531e-7, 6.194e-7
-0.131, -1.271e-6, -6.503e-7, 6.206e-7
-0.132, -1.268e-6, -6.488e-7, 6.191e-7
-0.133, -1.268e-6, -6.497e-7, 6.179e-7
-0.134, -1.268e-6, -6.479e-7, 6.200e-7
-0.135, -1.264e-6, -6.461e-7, 6.182e-7
-0.136, -1.263e-6, -6.470e-7, 6.164e-7
-0.137, -1.262e-6, -6.452e-7, 6.170e-7
-0.138, -1.259e-6, -6.445e-7, 6.145e-7
-0.139, -1.263e-6, -6.458e-7, 6.173e-7
-0.140, -1.257e-6, -6.424e-7, 6.145e-7
-0.141, -1.257e-6, -6.427e-7, 6.142e-7
-0.142, -1.255e-6, -6.412e-7, 6.142e-7
-0.143, -1.257e-6, -6.409e-7, 6.158e-7
-0.144, -1.252e-6, -6.400e-7, 6.118e-7
-0.145, -1.255e-6, -6.409e-7, 6.139e-7
-0.146, -1.251e-6, -6.381e-7, 6.130e-7
-0.147, -1.251e-6, -6.403e-7, 6.106e-7
-0.148, -1.251e-6, -6.381e-7, 6.130e-7
-0.149, -1.251e-6, -6.378e-7, 6.133e-7
-0.150, -1.248e-6, -6.369e-7, 6.109e-7
-0.151, -1.248e-6, -6.366e-7, 6.112e-7
-0.152, -1.242e-6, -6.326e-7, 6.093e-7
-0.153, -1.240e-6, -6.326e-7, 6.075e-7
-0.154, -1.244e-6, -6.348e-7, 6.087e-7
-0.155, -1.240e-6, -6.320e-7, 6.078e-7
-0.156, -1.241e-6, -6.336e-7, 6.075e-7
-0.157, -1.240e-6, -6.323e-7, 6.078e-7
-0.158, -1.235e-6, -6.287e-7, 6.060e-7
-0.159, -1.234e-6, -6.293e-7, 6.045e-7
-0.160, -1.236e-6, -6.308e-7, 6.051e-7
-0.161, -1.234e-6, -6.296e-7, 6.045e-7
-0.162, -1.232e-6, -6.287e-7, 6.029e-7
-0.163, -1.231e-6, -6.265e-7, 6.048e-7
-0.164, -1.233e-6, -6.290e-7, 6.042e-7
-0.165, -1.230e-6, -6.269e-7, 6.032e-7
-0.166, -1.229e-6, -6.265e-7, 6.029e-7
-0.167, -1.227e-6, -6.250e-7, 6.017e-7
-0.168, -1.229e-6, -6.278e-7, 6.008e-7
-0.169, -1.225e-6, -6.235e-7, 6.014e-7
-0.170, -1.225e-6, -6.247e-7, 6.002e-7
-0.171, -1.223e-6, -6.241e-7, 5.993e-7
-0.172, -1.223e-6, -6.220e-7, 6.008e-7
-0.173, -1.220e-6, -6.232e-7, 5.971e-7
-0.174, -1.222e-6, -6.238e-7, 5.981e-7
-0.175, -1.219e-6, -6.217e-7, 5.977e-7
-0.176, -1.222e-6, -6.244e-7, 5.981e-7
-0.177, -1.219e-6, -6.223e-7, 5.965e-7
-0.178, -1.218e-6, -6.207e-7, 5.971e-7
-0.179, -1.217e-6, -6.220e-7, 5.953e-7
-0.180, -1.212e-6, -6.177e-7, 5.947e-7
-0.181, -1.211e-6, -6.180e-7, 5.935e-7
-0.182, -1.213e-6, -6.192e-7, 5.935e-7
-0.183, -1.214e-6, -6.207e-7, 5.935e-7
-0.184, -1.215e-6, -6.226e-7, 5.926e-7
-0.185, -1.211e-6, -6.183e-7, 5.923e-7
-0.186, -1.211e-6, -6.180e-7, 5.926e-7
-0.187, -1.207e-6, -6.165e-7, 5.907e-7
-0.188, -1.208e-6, -6.186e-7, 5.898e-7
-0.189, -1.205e-6, -6.143e-7, 5.907e-7
-0.190, -1.210e-6, -6.207e-7, 5.889e-7
-0.191, -1.205e-6, -6.153e-7, 5.898e-7
-0.192, -1.203e-6, -6.137e-7, 5.892e-7
-0.193, -1.206e-6, -6.180e-7, 5.877e-7
-0.194, -1.206e-6, -6.177e-7, 5.880e-7
-0.195, -1.203e-6, -6.137e-7, 5.889e-7
-0.196, -1.200e-6, -6.131e-7, 5.865e-7
-0.197, -1.201e-6, -6.150e-7, 5.865e-7
-0.198, -1.199e-6, -6.131e-7, 5.862e-7
-0.199, -1.198e-6, -6.137e-7, 5.840e-7
-0.200, -1.200e-6, -6.137e-7, 5.862e-7
-0.201, -1.194e-6, -6.110e-7, 5.831e-7
-0.202, -1.194e-6, -6.122e-7, 5.819e-7
-0.203, -1.198e-6, -6.143e-7, 5.837e-7
-0.204, -1.195e-6, -6.128e-7, 5.825e-7
-0.205, -1.196e-6, -6.137e-7, 5.819e-7
-0.206, -1.193e-6, -6.104e-7, 5.825e-7
-0.207, -1.192e-6, -6.125e-7, 5.791e-7
-0.208, -1.192e-6, -6.122e-7, 5.794e-7
-0.209, -1.190e-6, -6.092e-7, 5.813e-7
-0.210, -1.192e-6, -6.107e-7, 5.810e-7
-0.211, -1.194e-6, -6.153e-7, 5.788e-7
-0.212, -1.194e-6, -6.153e-7, 5.788e-7
-0.213, -1.190e-6, -6.128e-7, 5.770e-7
-0.214, -1.186e-6, -6.095e-7, 5.767e-7
-0.215, -1.185e-6, -6.076e-7, 5.773e-7
-0.216, -1.185e-6, -6.088e-7, 5.758e-7
-0.217, -1.183e-6, -6.085e-7, 5.746e-7
-0.218, -1.187e-6, -6.073e-7, 5.794e-7
-0.219, -1.184e-6, -6.110e-7, 5.727e-7
-0.220, -1.182e-6, -6.079e-7, 5.743e-7
-0.221, -1.180e-6, -6.049e-7, 5.755e-7
-0.222, -1.179e-6, -6.073e-7, 5.718e-7
-0.223, -1.179e-6, -6.076e-7, 5.718e-7
-0.224, -1.179e-6, -6.073e-7, 5.721e-7
-0.225, -1.179e-6, -6.076e-7, 5.709e-7
-0.226, -1.176e-6, -6.052e-7, 5.709e-7
-0.227, -1.176e-6, -6.058e-7, 5.703e-7
-0.228, -1.175e-6, -6.058e-7, 5.697e-7
-0.229, -1.175e-6, -6.040e-7, 5.709e-7
-0.230, -1.174e-6, -6.055e-7, 5.685e-7
-0.231, -1.168e-6, -6.030e-7, 5.651e-7
-0.232, -1.174e-6, -6.067e-7, 5.672e-7
-0.233, -1.172e-6, -6.034e-7, 5.681e-7
-0.234, -1.171e-6, -6.034e-7, 5.672e-7
-0.235, -1.170e-6, -6.043e-7, 5.657e-7
-0.236, -1.166e-6, -6.021e-7, 5.642e-7
-0.237, -1.169e-6, -6.037e-7, 5.657e-7
-0.238, -1.167e-6, -6.003e-7, 5.663e-7
-0.239, -1.167e-6, -6.040e-7, 5.633e-7
-0.240, -1.168e-6, -6.037e-7, 5.642e-7
-0.241, -1.166e-6, -6.015e-7, 5.648e-7
-0.242, -1.165e-6, -6.027e-7, 5.627e-7
-0.243, -1.167e-6, -6.027e-7, 5.639e-7
-0.244, -1.164e-6, -6.012e-7, 5.633e-7
-0.245, -1.167e-6, -6.043e-7, 5.623e-7
-0.246, -1.163e-6, -6.018e-7, 5.614e-7
-0.247, -1.162e-6, -6.000e-7, 5.617e-7
-0.248, -1.165e-6, -6.037e-7, 5.611e-7
-0.249, -1.159e-6, -5.979e-7, 5.608e-7
-0.250, -1.161e-6, -5.997e-7, 5.611e-7
-0.251, -1.166e-6, -6.043e-7, 5.617e-7
-0.252, -1.164e-6, -6.027e-7, 5.608e-7
-0.253, -1.160e-6, -6.000e-7, 5.602e-7
-0.254, -1.159e-6, -6.006e-7, 5.587e-7
-0.255, -1.157e-6, -5.985e-7, 5.590e-7
-0.256, -1.157e-6, -5.979e-7, 5.593e-7
-0.257, -1.161e-6, -6.018e-7, 5.587e-7
-0.258, -1.157e-6, -5.979e-7, 5.587e-7
-0.259, -1.153e-6, -5.969e-7, 5.556e-7
-0.260, -1.156e-6, -5.985e-7, 5.572e-7
-0.261, -1.155e-6, -5.985e-7, 5.566e-7
-0.262, -1.160e-6, -6.034e-7, 5.562e-7
-0.263, -1.154e-6, -5.985e-7, 5.553e-7
-0.264, -1.153e-6, -5.973e-7, 5.559e-7
-0.265, -1.152e-6, -5.969e-7, 5.553e-7
-0.266, -1.154e-6, -5.982e-7, 5.556e-7
-0.267, -1.151e-6, -5.951e-7, 5.562e-7
-0.268, -1.149e-6, -5.960e-7, 5.532e-7
-0.269, -1.153e-6, -5.973e-7, 5.556e-7
-0.270, -1.152e-6, -5.969e-7, 5.550e-7
-0.271, -1.149e-6, -5.966e-7, 5.526e-7
-0.272, -1.150e-6, -5.948e-7, 5.550e-7
-0.273, -1.150e-6, -5.960e-7, 5.544e-7
-0.274, -1.151e-6, -5.988e-7, 5.526e-7
-0.275, -1.151e-6, -5.982e-7, 5.529e-7
-0.276, -1.145e-6, -5.933e-7, 5.514e-7
-0.277, -1.147e-6, -5.966e-7, 5.508e-7
-0.278, -1.151e-6, -5.969e-7, 5.544e-7
-0.279, -1.148e-6, -5.966e-7, 5.517e-7
-0.280, -1.145e-6, -5.948e-7, 5.504e-7
-0.281, -1.150e-6, -5.960e-7, 5.541e-7
-0.282, -1.148e-6, -5.973e-7, 5.508e-7
-0.283, -1.145e-6, -5.945e-7, 5.504e-7
-0.284, -1.148e-6, -5.966e-7, 5.511e-7
-0.285, -1.145e-6, -5.942e-7, 5.508e-7
-0.286, -1.148e-6, -5.969e-7, 5.511e-7
-0.287, -1.143e-6, -5.927e-7, 5.501e-7
-0.288, -1.146e-6, -5.966e-7, 5.498e-7
-0.289, -1.144e-6, -5.933e-7, 5.504e-7
-0.290, -1.150e-6, -5.991e-7, 5.511e-7
-0.291, -1.145e-6, -5.966e-7, 5.483e-7
-0.292, -1.147e-6, -5.979e-7, 5.495e-7
-0.293, -1.143e-6, -5.939e-7, 5.492e-7
-0.294, -1.146e-6, -5.982e-7, 5.480e-7
-0.295, -1.145e-6, -5.957e-7, 5.489e-7
-0.296, -1.138e-6, -5.915e-7, 5.468e-7
-0.297, -1.142e-6, -5.942e-7, 5.477e-7
-0.298, -1.141e-6, -5.921e-7, 5.492e-7
-0.299, -1.143e-6, -5.957e-7, 5.474e-7
-0.300, -1.137e-6, -5.908e-7, 5.465e-7
-0.301, -1.144e-6, -5.960e-7, 5.477e-7
-0.302, -1.143e-6, -5.957e-7, 5.471e-7
-0.303, -1.142e-6, -5.936e-7, 5.480e-7
-0.304, -1.139e-6, -5.930e-7, 5.465e-7
-0.305, -1.139e-6, -5.927e-7, 5.465e-7
-0.306, -1.139e-6, -5.927e-7, 5.462e-7
-0.307, -1.138e-6, -5.915e-7, 5.468e-7
-0.308, -1.139e-6, -5.930e-7, 5.459e-7
-0.309, -1.139e-6, -5.927e-7, 5.462e-7
-0.310, -1.140e-6, -5.942e-7, 5.459e-7
-0.311, -1.138e-6, -5.927e-7, 5.453e-7
-0.312, -1.138e-6, -5.936e-7, 5.446e-7
-0.313, -1.140e-6, -5.948e-7, 5.450e-7
-0.314, -1.135e-6, -5.915e-7, 5.440e-7
-0.315, -1.137e-6, -5.918e-7, 5.453e-7
-0.316, -1.136e-6, -5.927e-7, 5.434e-7
-0.317, -1.136e-6, -5.927e-7, 5.437e-7
-0.318, -1.135e-6, -5.908e-7, 5.446e-7
-0.319, -1.134e-6, -5.902e-7, 5.440e-7
-0.320, -1.134e-6, -5.908e-7, 5.428e-7
-0.321, -1.137e-6, -5.939e-7, 5.434e-7
-0.322, -1.134e-6, -5.908e-7, 5.431e-7
-0.323, -1.134e-6, -5.927e-7, 5.413e-7
-0.324, -1.133e-6, -5.911e-7, 5.416e-7
-0.325, -1.130e-6, -5.890e-7, 5.407e-7
-0.326, -1.130e-6, -5.902e-7, 5.401e-7
-0.327, -1.132e-6, -5.899e-7, 5.416e-7
-0.328, -1.128e-6, -5.887e-7, 5.395e-7
-0.329, -1.132e-6, -5.930e-7, 5.395e-7
-0.330, -1.129e-6, -5.887e-7, 5.407e-7
-0.331, -1.126e-6, -5.878e-7, 5.385e-7
-0.332, -1.132e-6, -5.918e-7, 5.404e-7
-0.333, -1.129e-6, -5.893e-7, 5.398e-7
-0.334, -1.127e-6, -5.878e-7, 5.389e-7
-0.335, -1.127e-6, -5.890e-7, 5.382e-7
-0.336, -1.125e-6, -5.872e-7, 5.376e-7
-0.337, -1.127e-6, -5.902e-7, 5.367e-7
-0.338, -1.129e-6, -5.915e-7, 5.376e-7
-0.339, -1.127e-6, -5.899e-7, 5.373e-7
-0.340, -1.123e-6, -5.881e-7, 5.352e-7
-0.341, -1.124e-6, -5.890e-7, 5.349e-7
-0.342, -1.125e-6, -5.887e-7, 5.364e-7
-0.343, -1.127e-6, -5.927e-7, 5.343e-7
-0.344, -1.129e-6, -5.939e-7, 5.355e-7
-0.345, -1.122e-6, -5.875e-7, 5.349e-7
-0.346, -1.121e-6, -5.881e-7, 5.324e-7
-0.347, -1.121e-6, -5.884e-7, 5.324e-7
-0.348, -1.125e-6, -5.875e-7, 5.373e-7
-0.349, -1.122e-6, -5.884e-7, 5.340e-7
-0.350, -1.121e-6, -5.878e-7, 5.334e-7
-0.351, -1.119e-6, -5.847e-7, 5.346e-7
-0.352, -1.122e-6, -5.908e-7, 5.309e-7
-0.353, -1.124e-6, -5.927e-7, 5.312e-7
-0.354, -1.120e-6, -5.887e-7, 5.309e-7
-0.355, -1.118e-6, -5.884e-7, 5.300e-7
-0.356, -1.116e-6, -5.854e-7, 5.303e-7
-0.357, -1.115e-6, -5.869e-7, 5.282e-7
-0.358, -1.118e-6, -5.893e-7, 5.291e-7
-0.359, -1.112e-6, -5.847e-7, 5.276e-7
-0.360, -1.116e-6, -5.857e-7, 5.300e-7
-0.361, -1.119e-6, -5.878e-7, 5.309e-7
-0.362, -1.115e-6, -5.887e-7, 5.263e-7
-0.363, -1.112e-6, -5.878e-7, 5.239e-7
-0.364, -1.111e-6, -5.869e-7, 5.245e-7
-0.365, -1.108e-6, -5.844e-7, 5.236e-7
-0.366, -1.111e-6, -5.884e-7, 5.230e-7
-0.367, -1.113e-6, -5.878e-7, 5.248e-7
-0.368, -1.117e-6, -5.924e-7, 5.248e-7
-0.369, -1.110e-6, -5.893e-7, 5.212e-7
-0.370, -1.112e-6, -5.887e-7, 5.236e-7
-0.371, -1.110e-6, -5.869e-7, 5.230e-7
-0.372, -1.112e-6, -5.881e-7, 5.242e-7
-0.373, -1.110e-6, -5.872e-7, 5.224e-7
-0.374, -1.109e-6, -5.850e-7, 5.239e-7
-0.375, -1.110e-6, -5.896e-7, 5.202e-7
-0.376, -1.107e-6, -5.857e-7, 5.212e-7
-0.377, -1.110e-6, -5.924e-7, 5.181e-7
-0.378, -1.115e-6, -5.933e-7, 5.218e-7
-0.379, -1.108e-6, -5.878e-7, 5.205e-7
-0.380, -1.109e-6, -5.911e-7, 5.175e-7
-0.381, -1.110e-6, -5.908e-7, 5.187e-7
-0.382, -1.104e-6, -5.905e-7, 5.135e-7
-0.383, -1.105e-6, -5.896e-7, 5.157e-7
-0.384, -1.105e-6, -5.890e-7, 5.163e-7
-0.385, -1.105e-6, -5.890e-7, 5.157e-7
-0.386, -1.104e-6, -5.905e-7, 5.135e-7
-0.387, -1.105e-6, -5.908e-7, 5.138e-7
-0.388, -1.104e-6, -5.887e-7, 5.157e-7
-0.389, -1.103e-6, -5.927e-7, 5.108e-7
-0.390, -1.106e-6, -5.918e-7, 5.141e-7
-0.391, -1.104e-6, -5.911e-7, 5.129e-7
-0.392, -1.108e-6, -5.966e-7, 5.111e-7
-0.393, -1.106e-6, -5.942e-7, 5.117e-7
-0.394, -1.106e-6, -5.960e-7, 5.102e-7
-0.395, -1.104e-6, -5.951e-7, 5.089e-7
-0.396, -1.105e-6, -5.951e-7, 5.096e-7
-0.397, -1.104e-6, -5.948e-7, 5.089e-7
-0.398, -1.100e-6, -5.924e-7, 5.080e-7
-0.399, -1.100e-6, -5.924e-7, 5.074e-7
-0.400, -1.102e-6, -5.951e-7, 5.068e-7
