Mar. 20, 2018   15:52:08
Square Wave Voltammetry
File: c:\users\electrochemist\desktop\2018\20032018_unbufarray_unpap\59_g0_ph9,50_2.txt
Data Source:  Experiment
Instrument Model:  CHI1040A
Header: 
Note: 

Init E (V) = 0.7
Final E (V) = -0.4
Incr E (V) = 0.001
Amplitude (V) = 0.1
Frequency (Hz) = 152
Quiet Time (sec) = 2
Sensitivity (A/V) = 1e-5

Difference:

Forward:

Reverse:
Ep = -0.142V
ip = 2.437e-9A
Ah = 3.007e-10VA

Potential/V, Diff(i/A), For(i/A), Rev(i/A)

0.699, -1.245e-6, -3.912e-7, 8.538e-7
0.698, -1.404e-6, -6.476e-7, 7.562e-7
0.697, -1.401e-6, -6.720e-7, 7.287e-7
0.696, -1.395e-6, -6.750e-7, 7.195e-7
0.695, -1.379e-6, -6.720e-7, 7.073e-7
0.694, -1.379e-6, -6.781e-7, 7.012e-7
0.693, -1.370e-6, -6.781e-7, 6.921e-7
0.692, -1.367e-6, -6.781e-7, 6.890e-7
0.691, -1.364e-6, -6.811e-7, 6.829e-7
0.690, -1.361e-6, -6.811e-7, 6.799e-7
0.689, -1.361e-6, -6.842e-7, 6.768e-7
0.688, -1.361e-6, -6.872e-7, 6.738e-7
0.687, -1.349e-6, -6.811e-7, 6.677e-7
0.686, -1.346e-6, -6.842e-7, 6.616e-7
0.685, -1.355e-6, -6.872e-7, 6.677e-7
0.684, -1.340e-6, -6.811e-7, 6.585e-7
0.683, -1.340e-6, -6.842e-7, 6.555e-7
0.682, -1.343e-6, -6.872e-7, 6.555e-7
0.681, -1.334e-6, -6.811e-7, 6.524e-7
0.680, -1.334e-6, -6.872e-7, 6.463e-7
0.679, -1.334e-6, -6.842e-7, 6.493e-7
0.678, -1.321e-6, -6.811e-7, 6.402e-7
0.677, -1.330e-6, -6.903e-7, 6.402e-7
0.676, -1.330e-6, -6.872e-7, 6.432e-7
0.675, -1.324e-6, -6.872e-7, 6.371e-7
0.674, -1.321e-6, -6.872e-7, 6.341e-7
0.673, -1.327e-6, -6.872e-7, 6.402e-7
0.672, -1.315e-6, -6.811e-7, 6.341e-7
0.671, -1.321e-6, -6.933e-7, 6.280e-7
0.670, -1.324e-6, -6.903e-7, 6.341e-7
0.669, -1.315e-6, -6.872e-7, 6.280e-7
0.668, -1.312e-6, -6.903e-7, 6.219e-7
0.667, -1.318e-6, -6.933e-7, 6.249e-7
0.666, -1.306e-6, -6.872e-7, 6.188e-7
0.665, -1.312e-6, -6.903e-7, 6.219e-7
0.664, -1.315e-6, -6.933e-7, 6.219e-7
0.663, -1.312e-6, -6.933e-7, 6.188e-7
0.662, -1.318e-6, -6.964e-7, 6.219e-7
0.661, -1.312e-6, -6.933e-7, 6.188e-7
0.660, -1.312e-6, -6.964e-7, 6.158e-7
0.659, -1.318e-6, -6.995e-7, 6.188e-7
0.658, -1.309e-6, -6.933e-7, 6.158e-7
0.657, -1.312e-6, -6.964e-7, 6.158e-7
0.656, -1.309e-6, -6.964e-7, 6.127e-7
0.655, -1.309e-6, -6.964e-7, 6.127e-7
0.654, -1.315e-6, -7.025e-7, 6.127e-7
0.653, -1.306e-6, -6.964e-7, 6.097e-7
0.652, -1.309e-6, -6.995e-7, 6.097e-7
0.651, -1.312e-6, -7.025e-7, 6.097e-7
0.650, -1.312e-6, -6.995e-7, 6.127e-7
0.649, -1.303e-6, -6.964e-7, 6.066e-7
0.648, -1.309e-6, -6.995e-7, 6.097e-7
0.647, -1.312e-6, -7.025e-7, 6.097e-7
0.646, -1.306e-6, -7.025e-7, 6.036e-7
0.645, -1.312e-6, -7.025e-7, 6.097e-7
0.644, -1.303e-6, -6.995e-7, 6.036e-7
0.643, -1.303e-6, -7.025e-7, 6.005e-7
0.642, -1.309e-6, -7.056e-7, 6.036e-7
0.641, -1.306e-6, -6.995e-7, 6.066e-7
0.640, -1.303e-6, -7.025e-7, 6.005e-7
0.639, -1.306e-6, -7.056e-7, 6.005e-7
0.638, -1.306e-6, -7.025e-7, 6.036e-7
0.637, -1.306e-6, -7.086e-7, 5.975e-7
0.636, -1.306e-6, -7.056e-7, 6.005e-7
0.635, -1.306e-6, -7.025e-7, 6.036e-7
0.634, -1.309e-6, -7.117e-7, 5.975e-7
0.633, -1.312e-6, -7.056e-7, 6.066e-7
0.632, -1.303e-6, -7.056e-7, 5.975e-7
0.631, -1.309e-6, -7.117e-7, 5.975e-7
0.630, -1.306e-6, -7.025e-7, 6.036e-7
0.629, -1.303e-6, -7.086e-7, 5.944e-7
0.628, -1.312e-6, -7.117e-7, 6.005e-7
0.627, -1.306e-6, -7.056e-7, 6.005e-7
0.626, -1.306e-6, -7.117e-7, 5.944e-7
0.625, -1.309e-6, -7.147e-7, 5.944e-7
0.624, -1.309e-6, -7.056e-7, 6.036e-7
0.623, -1.300e-6, -7.056e-7, 5.944e-7
0.622, -1.312e-6, -7.147e-7, 5.975e-7
0.621, -1.309e-6, -7.086e-7, 6.005e-7
0.620, -1.303e-6, -7.117e-7, 5.914e-7
0.619, -1.315e-6, -7.208e-7, 5.944e-7
0.618, -1.309e-6, -7.117e-7, 5.975e-7
0.617, -1.306e-6, -7.147e-7, 5.914e-7
0.616, -1.312e-6, -7.178e-7, 5.944e-7
0.615, -1.306e-6, -7.117e-7, 5.944e-7
0.614, -1.309e-6, -7.178e-7, 5.914e-7
0.613, -1.309e-6, -7.178e-7, 5.914e-7
0.612, -1.309e-6, -7.147e-7, 5.944e-7
0.611, -1.303e-6, -7.147e-7, 5.883e-7
0.610, -1.312e-6, -7.178e-7, 5.944e-7
0.609, -1.306e-6, -7.147e-7, 5.914e-7
0.608, -1.312e-6, -7.208e-7, 5.914e-7
0.607, -1.312e-6, -7.178e-7, 5.944e-7
0.606, -1.306e-6, -7.178e-7, 5.883e-7
0.605, -1.315e-6, -7.239e-7, 5.914e-7
0.604, -1.309e-6, -7.178e-7, 5.914e-7
0.603, -1.309e-6, -7.208e-7, 5.883e-7
0.602, -1.315e-6, -7.208e-7, 5.944e-7
0.601, -1.312e-6, -7.208e-7, 5.914e-7
0.600, -1.312e-6, -7.239e-7, 5.883e-7
0.599, -1.309e-6, -7.208e-7, 5.883e-7
0.598, -1.306e-6, -7.178e-7, 5.883e-7
0.597, -1.306e-6, -7.208e-7, 5.853e-7
0.596, -1.312e-6, -7.208e-7, 5.914e-7
0.595, -1.303e-6, -7.178e-7, 5.853e-7
0.594, -1.312e-6, -7.239e-7, 5.883e-7
0.593, -1.315e-6, -7.269e-7, 5.883e-7
0.592, -1.312e-6, -7.239e-7, 5.883e-7
0.591, -1.315e-6, -7.300e-7, 5.853e-7
0.590, -1.315e-6, -7.239e-7, 5.914e-7
0.589, -1.315e-6, -7.269e-7, 5.883e-7
0.588, -1.321e-6, -7.300e-7, 5.914e-7
0.587, -1.318e-6, -7.269e-7, 5.914e-7
0.586, -1.315e-6, -7.269e-7, 5.883e-7
0.585, -1.321e-6, -7.330e-7, 5.883e-7
0.584, -1.318e-6, -7.269e-7, 5.914e-7
0.583, -1.318e-6, -7.300e-7, 5.883e-7
0.582, -1.324e-6, -7.361e-7, 5.883e-7
0.581, -1.318e-6, -7.269e-7, 5.914e-7
0.580, -1.321e-6, -7.361e-7, 5.853e-7
0.579, -1.321e-6, -7.330e-7, 5.883e-7
0.578, -1.321e-6, -7.330e-7, 5.883e-7
0.577, -1.324e-6, -7.361e-7, 5.883e-7
0.576, -1.327e-6, -7.330e-7, 5.944e-7
0.575, -1.321e-6, -7.330e-7, 5.883e-7
0.574, -1.327e-6, -7.391e-7, 5.883e-7
0.573, -1.327e-6, -7.361e-7, 5.914e-7
0.572, -1.327e-6, -7.361e-7, 5.914e-7
0.571, -1.334e-6, -7.422e-7, 5.914e-7
0.570, -1.343e-6, -7.422e-7, 6.005e-7
0.569, -1.327e-6, -7.361e-7, 5.914e-7
0.568, -1.330e-6, -7.422e-7, 5.883e-7
0.567, -1.340e-6, -7.422e-7, 5.975e-7
0.566, -1.334e-6, -7.391e-7, 5.944e-7
0.565, -1.334e-6, -7.452e-7, 5.883e-7
0.564, -1.343e-6, -7.452e-7, 5.975e-7
0.563, -1.340e-6, -7.422e-7, 5.975e-7
0.562, -1.340e-6, -7.483e-7, 5.914e-7
0.561, -1.346e-6, -7.513e-7, 5.944e-7
0.560, -1.343e-6, -7.483e-7, 5.944e-7
0.559, -1.349e-6, -7.544e-7, 5.944e-7
0.558, -1.349e-6, -7.483e-7, 6.005e-7
0.557, -1.349e-6, -7.513e-7, 5.975e-7
0.556, -1.355e-6, -7.574e-7, 5.975e-7
0.555, -1.349e-6, -7.513e-7, 5.975e-7
0.554, -1.355e-6, -7.574e-7, 5.975e-7
0.553, -1.358e-6, -7.544e-7, 6.036e-7
0.552, -1.352e-6, -7.544e-7, 5.975e-7
0.551, -1.358e-6, -7.605e-7, 5.975e-7
0.550, -1.358e-6, -7.574e-7, 6.005e-7
0.549, -1.361e-6, -7.574e-7, 6.036e-7
0.548, -1.361e-6, -7.605e-7, 6.005e-7
0.547, -1.361e-6, -7.574e-7, 6.036e-7
0.546, -1.361e-6, -7.605e-7, 6.005e-7
0.545, -1.367e-6, -7.666e-7, 6.005e-7
0.544, -1.367e-6, -7.635e-7, 6.036e-7
0.543, -1.367e-6, -7.635e-7, 6.036e-7
0.542, -1.367e-6, -7.635e-7, 6.036e-7
0.541, -1.370e-6, -7.666e-7, 6.036e-7
0.540, -1.370e-6, -7.666e-7, 6.036e-7
0.539, -1.379e-6, -7.727e-7, 6.066e-7
0.538, -1.373e-6, -7.666e-7, 6.066e-7
0.537, -1.373e-6, -7.696e-7, 6.036e-7
0.536, -1.382e-6, -7.727e-7, 6.097e-7
0.535, -1.382e-6, -7.696e-7, 6.127e-7
0.534, -1.379e-6, -7.757e-7, 6.036e-7
0.533, -1.385e-6, -7.757e-7, 6.097e-7
0.532, -1.379e-6, -7.727e-7, 6.066e-7
0.531, -1.382e-6, -7.757e-7, 6.066e-7
0.530, -1.385e-6, -7.788e-7, 6.066e-7
0.529, -1.382e-6, -7.757e-7, 6.066e-7
0.528, -1.392e-6, -7.818e-7, 6.097e-7
0.527, -1.388e-6, -7.757e-7, 6.127e-7
0.526, -1.388e-6, -7.849e-7, 6.036e-7
0.525, -1.398e-6, -7.849e-7, 6.127e-7
0.524, -1.388e-6, -7.788e-7, 6.097e-7
0.523, -1.395e-6, -7.818e-7, 6.127e-7
0.522, -1.398e-6, -7.879e-7, 6.097e-7
0.521, -1.398e-6, -7.818e-7, 6.158e-7
0.520, -1.395e-6, -7.849e-7, 6.097e-7
0.519, -1.404e-6, -7.910e-7, 6.127e-7
0.518, -1.404e-6, -7.849e-7, 6.188e-7
0.517, -1.407e-6, -7.910e-7, 6.158e-7
0.516, -1.413e-6, -7.971e-7, 6.158e-7
0.515, -1.407e-6, -7.879e-7, 6.188e-7
0.514, -1.407e-6, -7.941e-7, 6.127e-7
0.513, -1.410e-6, -7.941e-7, 6.158e-7
0.512, -1.410e-6, -7.910e-7, 6.188e-7
0.511, -1.410e-6, -7.971e-7, 6.127e-7
0.510, -1.419e-6, -7.971e-7, 6.219e-7
0.509, -1.413e-6, -7.941e-7, 6.188e-7
0.508, -1.416e-6, -7.971e-7, 6.188e-7
0.507, -1.419e-6, -7.971e-7, 6.219e-7
0.506, -1.413e-6, -7.941e-7, 6.188e-7
0.505, -1.422e-6, -8.002e-7, 6.219e-7
0.504, -1.422e-6, -8.002e-7, 6.219e-7
0.503, -1.422e-6, -8.032e-7, 6.188e-7
0.502, -1.416e-6, -8.002e-7, 6.158e-7
0.501, -1.422e-6, -8.002e-7, 6.219e-7
0.500, -1.422e-6, -8.032e-7, 6.188e-7
0.499, -1.425e-6, -8.063e-7, 6.188e-7
0.498, -1.428e-6, -8.063e-7, 6.219e-7
0.497, -1.422e-6, -8.032e-7, 6.188e-7
0.496, -1.428e-6, -8.063e-7, 6.219e-7
0.495, -1.428e-6, -8.063e-7, 6.219e-7
0.494, -1.428e-6, -8.063e-7, 6.219e-7
0.493, -1.434e-6, -8.124e-7, 6.219e-7
0.492, -1.431e-6, -8.063e-7, 6.249e-7
0.491, -1.437e-6, -8.154e-7, 6.219e-7
0.490, -1.437e-6, -8.124e-7, 6.249e-7
0.489, -1.437e-6, -8.124e-7, 6.249e-7
0.488, -1.440e-6, -8.185e-7, 6.219e-7
0.487, -1.443e-6, -8.154e-7, 6.280e-7
0.486, -1.443e-6, -8.185e-7, 6.249e-7
0.485, -1.446e-6, -8.185e-7, 6.280e-7
0.484, -1.449e-6, -8.185e-7, 6.310e-7
0.483, -1.446e-6, -8.185e-7, 6.280e-7
0.482, -1.450e-6, -8.215e-7, 6.280e-7
0.481, -1.453e-6, -8.215e-7, 6.310e-7
0.480, -1.450e-6, -8.215e-7, 6.280e-7
0.479, -1.453e-6, -8.246e-7, 6.280e-7
0.478, -1.459e-6, -8.246e-7, 6.341e-7
0.477, -1.453e-6, -8.276e-7, 6.249e-7
0.476, -1.465e-6, -8.337e-7, 6.310e-7
0.475, -1.459e-6, -8.246e-7, 6.341e-7
0.474, -1.465e-6, -8.337e-7, 6.310e-7
0.473, -1.468e-6, -8.307e-7, 6.371e-7
0.472, -1.465e-6, -8.276e-7, 6.371e-7
0.471, -1.471e-6, -8.368e-7, 6.341e-7
0.470, -1.480e-6, -8.368e-7, 6.432e-7
0.469, -1.471e-6, -8.337e-7, 6.371e-7
0.468, -1.480e-6, -8.429e-7, 6.371e-7
0.467, -1.483e-6, -8.398e-7, 6.432e-7
0.466, -1.480e-6, -8.398e-7, 6.402e-7
0.465, -1.483e-6, -8.459e-7, 6.371e-7
0.464, -1.483e-6, -8.429e-7, 6.402e-7
0.463, -1.480e-6, -8.398e-7, 6.402e-7
0.462, -1.486e-6, -8.459e-7, 6.402e-7
0.461, -1.489e-6, -8.459e-7, 6.432e-7
0.460, -1.489e-6, -8.429e-7, 6.463e-7
0.459, -1.495e-6, -8.520e-7, 6.432e-7
0.458, -1.501e-6, -8.520e-7, 6.493e-7
0.457, -1.492e-6, -8.490e-7, 6.432e-7
0.456, -1.501e-6, -8.551e-7, 6.463e-7
0.455, -1.501e-6, -8.551e-7, 6.463e-7
0.454, -1.504e-6, -8.581e-7, 6.463e-7
0.453, -1.511e-6, -8.581e-7, 6.524e-7
0.452, -1.504e-6, -8.551e-7, 6.493e-7
0.451, -1.511e-6, -8.581e-7, 6.524e-7
0.450, -1.520e-6, -8.673e-7, 6.524e-7
0.449, -1.520e-6, -8.642e-7, 6.554e-7
0.448, -1.523e-6, -8.673e-7, 6.554e-7
0.447, -1.526e-6, -8.673e-7, 6.585e-7
0.446, -1.523e-6, -8.673e-7, 6.554e-7
0.445, -1.526e-6, -8.703e-7, 6.554e-7
0.444, -1.532e-6, -8.734e-7, 6.585e-7
0.443, -1.532e-6, -8.734e-7, 6.585e-7
0.442, -1.529e-6, -8.734e-7, 6.554e-7
0.441, -1.541e-6, -8.764e-7, 6.646e-7
0.440, -1.535e-6, -8.764e-7, 6.585e-7
0.439, -1.541e-6, -8.795e-7, 6.616e-7
0.438, -1.544e-6, -8.795e-7, 6.646e-7
0.437, -1.547e-6, -8.825e-7, 6.646e-7
0.436, -1.550e-6, -8.825e-7, 6.677e-7
0.435, -1.553e-6, -8.825e-7, 6.707e-7
0.434, -1.553e-6, -8.856e-7, 6.677e-7
0.433, -1.559e-6, -8.917e-7, 6.677e-7
0.432, -1.559e-6, -8.887e-7, 6.707e-7
0.431, -1.559e-6, -8.917e-7, 6.677e-7
0.430, -1.562e-6, -8.948e-7, 6.677e-7
0.429, -1.562e-6, -8.917e-7, 6.707e-7
0.428, -1.565e-6, -8.978e-7, 6.677e-7
0.427, -1.572e-6, -8.978e-7, 6.738e-7
0.426, -1.575e-6, -9.009e-7, 6.738e-7
0.425, -1.575e-6, -9.009e-7, 6.738e-7
0.424, -1.581e-6, -9.039e-7, 6.768e-7
0.423, -1.578e-6, -9.009e-7, 6.768e-7
0.422, -1.584e-6, -9.100e-7, 6.738e-7
0.421, -1.587e-6, -9.039e-7, 6.829e-7
0.420, -1.584e-6, -9.070e-7, 6.768e-7
0.419, -1.590e-6, -9.100e-7, 6.799e-7
0.418, -1.593e-6, -9.100e-7, 6.829e-7
0.417, -1.590e-6, -9.131e-7, 6.768e-7
0.416, -1.599e-6, -9.161e-7, 6.829e-7
0.415, -1.596e-6, -9.100e-7, 6.860e-7
0.414, -1.599e-6, -9.192e-7, 6.799e-7
0.413, -1.605e-6, -9.192e-7, 6.860e-7
0.412, -1.608e-6, -9.161e-7, 6.921e-7
0.411, -1.599e-6, -9.192e-7, 6.799e-7
0.410, -1.611e-6, -9.253e-7, 6.860e-7
0.409, -1.614e-6, -9.222e-7, 6.921e-7
0.408, -1.611e-6, -9.253e-7, 6.860e-7
0.407, -1.617e-6, -9.283e-7, 6.890e-7
0.406, -1.617e-6, -9.253e-7, 6.921e-7
0.405, -1.617e-6, -9.283e-7, 6.890e-7
0.404, -1.623e-6, -9.314e-7, 6.921e-7
0.403, -1.623e-6, -9.283e-7, 6.951e-7
0.402, -1.630e-6, -9.375e-7, 6.921e-7
0.401, -1.633e-6, -9.375e-7, 6.951e-7
0.400, -1.633e-6, -9.344e-7, 6.982e-7
0.399, -1.636e-6, -9.405e-7, 6.951e-7
0.398, -1.633e-6, -9.344e-7, 6.982e-7
0.397, -1.639e-6, -9.436e-7, 6.951e-7
0.396, -1.645e-6, -9.466e-7, 6.982e-7
0.395, -1.642e-6, -9.436e-7, 6.982e-7
0.394, -1.645e-6, -9.436e-7, 7.012e-7
0.393, -1.651e-6, -9.497e-7, 7.012e-7
0.392, -1.651e-6, -9.466e-7, 7.043e-7
0.391, -1.648e-6, -9.497e-7, 6.982e-7
0.390, -1.657e-6, -9.497e-7, 7.073e-7
0.389, -1.657e-6, -9.527e-7, 7.043e-7
0.388, -1.663e-6, -9.588e-7, 7.043e-7
0.387, -1.666e-6, -9.588e-7, 7.073e-7
0.386, -1.663e-6, -9.558e-7, 7.073e-7
0.385, -1.666e-6, -9.588e-7, 7.073e-7
0.384, -1.669e-6, -9.619e-7, 7.073e-7
0.383, -1.672e-6, -9.619e-7, 7.104e-7
0.382, -1.675e-6, -9.649e-7, 7.104e-7
0.381, -1.678e-6, -9.680e-7, 7.104e-7
0.380, -1.681e-6, -9.680e-7, 7.134e-7
0.379, -1.684e-6, -9.710e-7, 7.134e-7
0.378, -1.688e-6, -9.680e-7, 7.195e-7
0.377, -1.684e-6, -9.710e-7, 7.134e-7
0.376, -1.694e-6, -9.771e-7, 7.165e-7
0.375, -1.697e-6, -9.771e-7, 7.195e-7
0.374, -1.700e-6, -9.802e-7, 7.195e-7
0.373, -1.703e-6, -9.832e-7, 7.195e-7
0.372, -1.706e-6, -9.802e-7, 7.256e-7
0.371, -1.706e-6, -9.863e-7, 7.195e-7
0.370, -1.712e-6, -9.863e-7, 7.256e-7
0.369, -1.712e-6, -9.863e-7, 7.256e-7
0.368, -1.712e-6, -9.924e-7, 7.195e-7
0.367, -1.721e-6, -9.894e-7, 7.317e-7
0.366, -1.718e-6, -9.894e-7, 7.287e-7
0.365, -1.727e-6, -9.985e-7, 7.287e-7
0.364, -1.730e-6, -9.955e-7, 7.348e-7
0.363, -1.727e-6, -9.955e-7, 7.317e-7
0.362, -1.733e-6, -1.005e-6, 7.287e-7
0.361, -1.742e-6, -1.005e-6, 7.378e-7
0.360, -1.736e-6, -1.002e-6, 7.348e-7
0.359, -1.749e-6, -1.014e-6, 7.348e-7
0.358, -1.755e-6, -1.011e-6, 7.439e-7
0.357, -1.746e-6, -1.008e-6, 7.378e-7
0.356, -1.755e-6, -1.017e-6, 7.378e-7
0.355, -1.758e-6, -1.014e-6, 7.439e-7
0.354, -1.755e-6, -1.014e-6, 7.409e-7
0.353, -1.761e-6, -1.023e-6, 7.378e-7
0.352, -1.767e-6, -1.023e-6, 7.439e-7
0.351, -1.767e-6, -1.023e-6, 7.439e-7
0.350, -1.773e-6, -1.026e-6, 7.470e-7
0.349, -1.779e-6, -1.029e-6, 7.500e-7
0.348, -1.779e-6, -1.032e-6, 7.470e-7
0.347, -1.785e-6, -1.035e-6, 7.500e-7
0.346, -1.791e-6, -1.038e-6, 7.531e-7
0.345, -1.791e-6, -1.035e-6, 7.561e-7
0.344, -1.794e-6, -1.041e-6, 7.531e-7
0.343, -1.803e-6, -1.044e-6, 7.592e-7
0.342, -1.810e-6, -1.047e-6, 7.623e-7
0.341, -1.810e-6, -1.047e-6, 7.623e-7
0.340, -1.810e-6, -1.047e-6, 7.623e-7
0.339, -1.816e-6, -1.050e-6, 7.653e-7
0.338, -1.819e-6, -1.053e-6, 7.653e-7
0.337, -1.822e-6, -1.056e-6, 7.653e-7
0.336, -1.828e-6, -1.060e-6, 7.684e-7
0.335, -1.831e-6, -1.060e-6, 7.714e-7
0.334, -1.834e-6, -1.063e-6, 7.714e-7
0.333, -1.846e-6, -1.069e-6, 7.775e-7
0.332, -1.840e-6, -1.066e-6, 7.745e-7
0.331, -1.843e-6, -1.069e-6, 7.745e-7
0.330, -1.852e-6, -1.072e-6, 7.806e-7
0.329, -1.855e-6, -1.075e-6, 7.806e-7
0.328, -1.858e-6, -1.078e-6, 7.806e-7
0.327, -1.858e-6, -1.078e-6, 7.806e-7
0.326, -1.861e-6, -1.075e-6, 7.867e-7
0.325, -1.868e-6, -1.084e-6, 7.836e-7
0.324, -1.874e-6, -1.087e-6, 7.867e-7
0.323, -1.874e-6, -1.084e-6, 7.897e-7
0.322, -1.880e-6, -1.093e-6, 7.867e-7
0.321, -1.892e-6, -1.096e-6, 7.958e-7
0.320, -1.886e-6, -1.093e-6, 7.928e-7
0.319, -1.892e-6, -1.099e-6, 7.928e-7
0.318, -1.892e-6, -1.096e-6, 7.958e-7
0.317, -1.895e-6, -1.102e-6, 7.928e-7
0.316, -1.904e-6, -1.105e-6, 7.989e-7
0.315, -1.904e-6, -1.105e-6, 7.989e-7
0.314, -1.907e-6, -1.108e-6, 7.989e-7
0.313, -1.916e-6, -1.114e-6, 8.019e-7
0.312, -1.913e-6, -1.108e-6, 8.050e-7
0.311, -1.916e-6, -1.114e-6, 8.019e-7
0.310, -1.926e-6, -1.121e-6, 8.050e-7
0.309, -1.926e-6, -1.114e-6, 8.111e-7
0.308, -1.922e-6, -1.121e-6, 8.019e-7
0.307, -1.935e-6, -1.127e-6, 8.080e-7
0.306, -1.941e-6, -1.124e-6, 8.172e-7
0.305, -1.941e-6, -1.130e-6, 8.111e-7
0.304, -1.947e-6, -1.133e-6, 8.141e-7
0.303, -1.950e-6, -1.130e-6, 8.202e-7
0.302, -1.950e-6, -1.136e-6, 8.141e-7
0.301, -1.959e-6, -1.139e-6, 8.202e-7
0.300, -1.962e-6, -1.139e-6, 8.233e-7
0.299, -1.962e-6, -1.142e-6, 8.202e-7
0.298, -1.971e-6, -1.145e-6, 8.263e-7
0.297, -1.971e-6, -1.145e-6, 8.263e-7
0.296, -1.977e-6, -1.148e-6, 8.294e-7
0.295, -1.977e-6, -1.148e-6, 8.294e-7
0.294, -1.980e-6, -1.151e-6, 8.294e-7
0.293, -1.987e-6, -1.157e-6, 8.294e-7
0.292, -1.990e-6, -1.154e-6, 8.355e-7
0.291, -1.996e-6, -1.160e-6, 8.355e-7
0.290, -1.999e-6, -1.163e-6, 8.355e-7
0.289, -2.005e-6, -1.166e-6, 8.385e-7
0.288, -2.005e-6, -1.169e-6, 8.355e-7
0.287, -2.005e-6, -1.169e-6, 8.355e-7
0.286, -2.011e-6, -1.166e-6, 8.446e-7
0.285, -2.011e-6, -1.172e-6, 8.385e-7
0.284, -2.020e-6, -1.175e-6, 8.446e-7
0.283, -2.023e-6, -1.179e-6, 8.446e-7
0.282, -2.029e-6, -1.182e-6, 8.477e-7
0.281, -2.032e-6, -1.185e-6, 8.477e-7
0.280, -2.035e-6, -1.185e-6, 8.507e-7
0.279, -2.035e-6, -1.188e-6, 8.477e-7
0.278, -2.051e-6, -1.194e-6, 8.569e-7
0.277, -2.045e-6, -1.191e-6, 8.538e-7
0.276, -2.054e-6, -1.197e-6, 8.569e-7
0.275, -2.057e-6, -1.197e-6, 8.599e-7
0.274, -2.054e-6, -1.197e-6, 8.569e-7
0.273, -2.063e-6, -1.203e-6, 8.599e-7
0.272, -2.075e-6, -1.206e-6, 8.691e-7
0.271, -2.075e-6, -1.212e-6, 8.630e-7
0.270, -2.081e-6, -1.212e-6, 8.691e-7
0.269, -2.078e-6, -1.209e-6, 8.691e-7
0.268, -2.090e-6, -1.218e-6, 8.721e-7
0.267, -2.093e-6, -1.221e-6, 8.721e-7
0.266, -2.093e-6, -1.218e-6, 8.752e-7
0.265, -2.106e-6, -1.227e-6, 8.782e-7
0.264, -2.106e-6, -1.227e-6, 8.782e-7
0.263, -2.109e-6, -1.227e-6, 8.813e-7
0.262, -2.118e-6, -1.237e-6, 8.813e-7
0.261, -2.121e-6, -1.237e-6, 8.843e-7
0.260, -2.124e-6, -1.237e-6, 8.874e-7
0.259, -2.133e-6, -1.246e-6, 8.874e-7
0.258, -2.136e-6, -1.243e-6, 8.935e-7
0.257, -2.133e-6, -1.243e-6, 8.904e-7
0.256, -2.142e-6, -1.252e-6, 8.904e-7
0.255, -2.151e-6, -1.252e-6, 8.996e-7
0.254, -2.154e-6, -1.255e-6, 8.996e-7
0.253, -2.157e-6, -1.261e-6, 8.965e-7
0.252, -2.167e-6, -1.261e-6, 9.057e-7
0.251, -2.164e-6, -1.261e-6, 9.026e-7
0.250, -2.173e-6, -1.270e-6, 9.026e-7
0.249, -2.182e-6, -1.270e-6, 9.118e-7
0.248, -2.179e-6, -1.270e-6, 9.087e-7
0.247, -2.191e-6, -1.279e-6, 9.118e-7
0.246, -2.197e-6, -1.279e-6, 9.179e-7
0.245, -2.194e-6, -1.279e-6, 9.148e-7
0.244, -2.203e-6, -1.288e-6, 9.148e-7
0.243, -2.215e-6, -1.291e-6, 9.240e-7
0.242, -2.212e-6, -1.291e-6, 9.209e-7
0.241, -2.225e-6, -1.298e-6, 9.270e-7
0.240, -2.228e-6, -1.298e-6, 9.301e-7
0.239, -2.234e-6, -1.304e-6, 9.301e-7
0.238, -2.243e-6, -1.307e-6, 9.362e-7
0.237, -2.240e-6, -1.304e-6, 9.362e-7
0.236, -2.252e-6, -1.316e-6, 9.362e-7
0.235, -2.255e-6, -1.313e-6, 9.423e-7
0.234, -2.255e-6, -1.313e-6, 9.423e-7
0.233, -2.270e-6, -1.325e-6, 9.453e-7
0.232, -2.270e-6, -1.322e-6, 9.484e-7
0.231, -2.276e-6, -1.328e-6, 9.484e-7
0.230, -2.286e-6, -1.331e-6, 9.545e-7
0.229, -2.289e-6, -1.334e-6, 9.545e-7
0.228, -2.295e-6, -1.337e-6, 9.576e-7
0.227, -2.301e-6, -1.340e-6, 9.606e-7
0.226, -2.304e-6, -1.343e-6, 9.606e-7
0.225, -2.310e-6, -1.349e-6, 9.606e-7
0.224, -2.319e-6, -1.352e-6, 9.667e-7
0.223, -2.319e-6, -1.352e-6, 9.667e-7
0.222, -2.328e-6, -1.359e-6, 9.698e-7
0.221, -2.338e-6, -1.362e-6, 9.759e-7
0.220, -2.338e-6, -1.362e-6, 9.759e-7
0.219, -2.341e-6, -1.365e-6, 9.759e-7
0.218, -2.359e-6, -1.374e-6, 9.850e-7
0.217, -2.353e-6, -1.371e-6, 9.820e-7
0.216, -2.362e-6, -1.377e-6, 9.850e-7
0.215, -2.368e-6, -1.380e-6, 9.881e-7
0.214, -2.368e-6, -1.380e-6, 9.881e-7
0.213, -2.380e-6, -1.389e-6, 9.911e-7
0.212, -2.386e-6, -1.389e-6, 9.972e-7
0.211, -2.392e-6, -1.395e-6, 9.972e-7
0.210, -2.395e-6, -1.398e-6, 9.972e-7
0.209, -2.399e-6, -1.395e-6, 1.003e-6
0.208, -2.405e-6, -1.401e-6, 1.003e-6
0.207, -2.420e-6, -1.410e-6, 1.009e-6
0.206, -2.426e-6, -1.407e-6, 1.019e-6
0.205, -2.423e-6, -1.414e-6, 1.009e-6
0.204, -2.432e-6, -1.420e-6, 1.012e-6
0.203, -2.441e-6, -1.420e-6, 1.022e-6
0.202, -2.441e-6, -1.426e-6, 1.016e-6
0.201, -2.450e-6, -1.429e-6, 1.022e-6
0.200, -2.453e-6, -1.429e-6, 1.025e-6
0.199, -2.457e-6, -1.435e-6, 1.022e-6
0.198, -2.469e-6, -1.438e-6, 1.031e-6
0.197, -2.475e-6, -1.438e-6, 1.037e-6
0.196, -2.481e-6, -1.447e-6, 1.034e-6
0.195, -2.490e-6, -1.453e-6, 1.037e-6
0.194, -2.493e-6, -1.453e-6, 1.040e-6
0.193, -2.499e-6, -1.459e-6, 1.040e-6
0.192, -2.511e-6, -1.465e-6, 1.046e-6
0.191, -2.511e-6, -1.462e-6, 1.049e-6
0.190, -2.511e-6, -1.465e-6, 1.046e-6
0.189, -2.527e-6, -1.472e-6, 1.055e-6
0.188, -2.524e-6, -1.468e-6, 1.055e-6
0.187, -2.533e-6, -1.478e-6, 1.055e-6
0.186, -2.542e-6, -1.481e-6, 1.061e-6
0.185, -2.545e-6, -1.484e-6, 1.061e-6
0.184, -2.557e-6, -1.490e-6, 1.067e-6
0.183, -2.560e-6, -1.493e-6, 1.067e-6
0.182, -2.566e-6, -1.496e-6, 1.070e-6
0.181, -2.569e-6, -1.499e-6, 1.070e-6
0.180, -2.576e-6, -1.502e-6, 1.074e-6
0.179, -2.585e-6, -1.508e-6, 1.077e-6
0.178, -2.594e-6, -1.514e-6, 1.080e-6
0.177, -2.603e-6, -1.517e-6, 1.086e-6
0.176, -2.603e-6, -1.520e-6, 1.083e-6
0.175, -2.612e-6, -1.523e-6, 1.089e-6
0.174, -2.618e-6, -1.526e-6, 1.092e-6
0.173, -2.621e-6, -1.529e-6, 1.092e-6
0.172, -2.634e-6, -1.536e-6, 1.098e-6
0.171, -2.637e-6, -1.539e-6, 1.098e-6
0.170, -2.649e-6, -1.548e-6, 1.101e-6
0.169, -2.655e-6, -1.548e-6, 1.107e-6
0.168, -2.661e-6, -1.551e-6, 1.110e-6
0.167, -2.667e-6, -1.560e-6, 1.107e-6
0.166, -2.673e-6, -1.557e-6, 1.116e-6
0.165, -2.682e-6, -1.566e-6, 1.116e-6
0.164, -2.691e-6, -1.569e-6, 1.122e-6
0.163, -2.698e-6, -1.572e-6, 1.125e-6
0.162, -2.704e-6, -1.578e-6, 1.125e-6
0.161, -2.716e-6, -1.581e-6, 1.135e-6
0.160, -2.722e-6, -1.584e-6, 1.138e-6
0.159, -2.731e-6, -1.594e-6, 1.138e-6
0.158, -2.740e-6, -1.600e-6, 1.141e-6
0.157, -2.740e-6, -1.600e-6, 1.141e-6
0.156, -2.746e-6, -1.606e-6, 1.141e-6
0.155, -2.762e-6, -1.609e-6, 1.153e-6
0.154, -2.765e-6, -1.612e-6, 1.153e-6
0.153, -2.774e-6, -1.621e-6, 1.153e-6
0.152, -2.780e-6, -1.621e-6, 1.159e-6
0.151, -2.789e-6, -1.624e-6, 1.165e-6
0.150, -2.798e-6, -1.636e-6, 1.162e-6
0.149, -2.811e-6, -1.639e-6, 1.171e-6
0.148, -2.814e-6, -1.642e-6, 1.171e-6
0.147, -2.823e-6, -1.648e-6, 1.174e-6
0.146, -2.832e-6, -1.652e-6, 1.180e-6
0.145, -2.835e-6, -1.652e-6, 1.183e-6
0.144, -2.850e-6, -1.664e-6, 1.186e-6
0.143, -2.859e-6, -1.667e-6, 1.193e-6
0.142, -2.868e-6, -1.673e-6, 1.196e-6
0.141, -2.875e-6, -1.679e-6, 1.196e-6
0.140, -2.887e-6, -1.682e-6, 1.205e-6
0.139, -2.890e-6, -1.685e-6, 1.205e-6
0.138, -2.902e-6, -1.691e-6, 1.211e-6
0.137, -2.911e-6, -1.697e-6, 1.214e-6
0.136, -2.920e-6, -1.700e-6, 1.220e-6
0.135, -2.926e-6, -1.706e-6, 1.220e-6
0.134, -2.939e-6, -1.713e-6, 1.226e-6
0.133, -2.948e-6, -1.719e-6, 1.229e-6
0.132, -2.960e-6, -1.725e-6, 1.235e-6
0.131, -2.966e-6, -1.728e-6, 1.238e-6
0.130, -2.972e-6, -1.734e-6, 1.238e-6
0.129, -2.987e-6, -1.740e-6, 1.247e-6
0.128, -2.994e-6, -1.746e-6, 1.247e-6
0.127, -3.003e-6, -1.752e-6, 1.251e-6
0.126, -3.015e-6, -1.755e-6, 1.260e-6
0.125, -3.021e-6, -1.761e-6, 1.260e-6
0.124, -3.033e-6, -1.768e-6, 1.266e-6
0.123, -3.042e-6, -1.771e-6, 1.272e-6
0.122, -3.045e-6, -1.774e-6, 1.272e-6
0.121, -3.061e-6, -1.786e-6, 1.275e-6
0.120, -3.064e-6, -1.786e-6, 1.278e-6
0.119, -3.079e-6, -1.795e-6, 1.284e-6
0.118, -3.088e-6, -1.798e-6, 1.290e-6
0.117, -3.100e-6, -1.804e-6, 1.296e-6
0.116, -3.103e-6, -1.810e-6, 1.293e-6
0.115, -3.122e-6, -1.816e-6, 1.305e-6
0.114, -3.122e-6, -1.816e-6, 1.305e-6
0.113, -3.137e-6, -1.829e-6, 1.308e-6
0.112, -3.146e-6, -1.832e-6, 1.315e-6
0.111, -3.155e-6, -1.838e-6, 1.318e-6
0.110, -3.164e-6, -1.844e-6, 1.321e-6
0.109, -3.174e-6, -1.847e-6, 1.327e-6
0.108, -3.186e-6, -1.853e-6, 1.333e-6
0.107, -3.189e-6, -1.859e-6, 1.330e-6
0.106, -3.201e-6, -1.862e-6, 1.339e-6
0.105, -3.210e-6, -1.868e-6, 1.342e-6
0.104, -3.226e-6, -1.877e-6, 1.348e-6
0.103, -3.232e-6, -1.877e-6, 1.354e-6
0.102, -3.235e-6, -1.883e-6, 1.351e-6
0.101, -3.256e-6, -1.896e-6, 1.360e-6
0.100, -3.265e-6, -1.896e-6, 1.370e-6
0.099, -3.268e-6, -1.905e-6, 1.363e-6
0.098, -3.290e-6, -1.914e-6, 1.376e-6
0.097, -3.296e-6, -1.914e-6, 1.382e-6
0.096, -3.302e-6, -1.923e-6, 1.379e-6
0.095, -3.317e-6, -1.926e-6, 1.391e-6
0.094, -3.323e-6, -1.929e-6, 1.394e-6
0.093, -3.332e-6, -1.938e-6, 1.394e-6
0.092, -3.345e-6, -1.944e-6, 1.400e-6
0.091, -3.354e-6, -1.948e-6, 1.406e-6
0.090, -3.360e-6, -1.951e-6, 1.409e-6
0.089, -3.375e-6, -1.960e-6, 1.415e-6
0.088, -3.384e-6, -1.963e-6, 1.421e-6
0.087, -3.393e-6, -1.972e-6, 1.421e-6
0.086, -3.406e-6, -1.975e-6, 1.431e-6
0.085, -3.415e-6, -1.981e-6, 1.434e-6
0.084, -3.427e-6, -1.990e-6, 1.437e-6
0.083, -3.433e-6, -1.993e-6, 1.440e-6
0.082, -3.445e-6, -1.999e-6, 1.446e-6
0.081, -3.451e-6, -2.002e-6, 1.449e-6
0.080, -3.467e-6, -2.009e-6, 1.458e-6
0.079, -3.473e-6, -2.015e-6, 1.458e-6
0.078, -3.485e-6, -2.021e-6, 1.464e-6
0.077, -3.497e-6, -2.027e-6, 1.470e-6
0.076, -3.506e-6, -2.033e-6, 1.473e-6
0.075, -3.518e-6, -2.039e-6, 1.479e-6
0.074, -3.528e-6, -2.042e-6, 1.485e-6
0.073, -3.543e-6, -2.051e-6, 1.492e-6
0.072, -3.549e-6, -2.054e-6, 1.495e-6
0.071, -3.558e-6, -2.057e-6, 1.501e-6
0.070, -3.567e-6, -2.067e-6, 1.501e-6
0.069, -3.586e-6, -2.073e-6, 1.513e-6
0.068, -3.589e-6, -2.076e-6, 1.513e-6
0.067, -3.601e-6, -2.082e-6, 1.519e-6
0.066, -3.613e-6, -2.088e-6, 1.525e-6
0.065, -3.622e-6, -2.094e-6, 1.528e-6
0.064, -3.634e-6, -2.100e-6, 1.534e-6
0.063, -3.647e-6, -2.103e-6, 1.543e-6
0.062, -3.659e-6, -2.112e-6, 1.547e-6
0.061, -3.668e-6, -2.118e-6, 1.550e-6
0.060, -3.674e-6, -2.118e-6, 1.556e-6
0.059, -3.683e-6, -2.128e-6, 1.556e-6
0.058, -3.702e-6, -2.137e-6, 1.565e-6
0.057, -3.708e-6, -2.137e-6, 1.571e-6
0.056, -3.720e-6, -2.146e-6, 1.574e-6
0.055, -3.735e-6, -2.152e-6, 1.583e-6
0.054, -3.744e-6, -2.155e-6, 1.589e-6
0.053, -3.756e-6, -2.164e-6, 1.592e-6
0.052, -3.772e-6, -2.170e-6, 1.601e-6
0.051, -3.775e-6, -2.167e-6, 1.608e-6
0.050, -3.787e-6, -2.183e-6, 1.604e-6
0.049, -3.799e-6, -2.183e-6, 1.617e-6
0.048, -3.805e-6, -2.186e-6, 1.620e-6
0.047, -3.821e-6, -2.198e-6, 1.623e-6
0.046, -3.836e-6, -2.201e-6, 1.635e-6
0.045, -3.842e-6, -2.204e-6, 1.638e-6
0.044, -3.854e-6, -2.216e-6, 1.638e-6
0.043, -3.866e-6, -2.216e-6, 1.650e-6
0.042, -3.872e-6, -2.219e-6, 1.653e-6
0.041, -3.888e-6, -2.231e-6, 1.656e-6
0.040, -3.900e-6, -2.231e-6, 1.669e-6
0.039, -3.909e-6, -2.234e-6, 1.675e-6
0.038, -3.915e-6, -2.244e-6, 1.672e-6
0.037, -3.933e-6, -2.247e-6, 1.687e-6
0.036, -3.940e-6, -2.250e-6, 1.690e-6
0.035, -3.952e-6, -2.259e-6, 1.693e-6
0.034, -3.964e-6, -2.262e-6, 1.702e-6
0.033, -3.976e-6, -2.271e-6, 1.705e-6
0.032, -3.985e-6, -2.274e-6, 1.711e-6
0.031, -3.995e-6, -2.277e-6, 1.717e-6
0.030, -4.010e-6, -2.286e-6, 1.723e-6
0.029, -4.019e-6, -2.289e-6, 1.730e-6
0.028, -4.028e-6, -2.295e-6, 1.733e-6
0.027, -4.034e-6, -2.295e-6, 1.739e-6
0.026, -4.046e-6, -2.298e-6, 1.748e-6
0.025, -4.056e-6, -2.305e-6, 1.751e-6
0.024, -4.071e-6, -2.314e-6, 1.757e-6
0.023, -4.077e-6, -2.311e-6, 1.766e-6
0.022, -4.092e-6, -2.320e-6, 1.772e-6
0.021, -4.098e-6, -2.323e-6, 1.775e-6
0.020, -4.110e-6, -2.329e-6, 1.781e-6
0.019, -4.120e-6, -2.332e-6, 1.788e-6
0.018, -4.135e-6, -2.338e-6, 1.797e-6
0.017, -4.138e-6, -2.338e-6, 1.800e-6
0.016, -4.150e-6, -2.347e-6, 1.803e-6
0.015, -4.159e-6, -2.350e-6, 1.809e-6
0.014, -4.168e-6, -2.353e-6, 1.815e-6
0.013, -4.178e-6, -2.360e-6, 1.818e-6
0.012, -4.193e-6, -2.363e-6, 1.830e-6
0.011, -4.196e-6, -2.363e-6, 1.833e-6
0.010, -4.211e-6, -2.372e-6, 1.839e-6
0.009, -4.220e-6, -2.375e-6, 1.846e-6
0.008, -4.220e-6, -2.372e-6, 1.849e-6
0.007, -4.239e-6, -2.384e-6, 1.855e-6
0.006, -4.245e-6, -2.381e-6, 1.864e-6
0.005, -4.254e-6, -2.384e-6, 1.870e-6
0.004, -4.266e-6, -2.396e-6, 1.870e-6
0.003, -4.275e-6, -2.393e-6, 1.882e-6
0.002, -4.275e-6, -2.393e-6, 1.882e-6
0.001, -4.294e-6, -2.405e-6, 1.888e-6
0.000, -4.300e-6, -2.402e-6, 1.897e-6
-0.001, -4.303e-6, -2.405e-6, 1.897e-6
-0.002, -4.318e-6, -2.411e-6, 1.907e-6
-0.003, -4.321e-6, -2.411e-6, 1.910e-6
-0.004, -4.324e-6, -2.411e-6, 1.913e-6
-0.005, -4.342e-6, -2.417e-6, 1.925e-6
-0.006, -4.342e-6, -2.414e-6, 1.928e-6
-0.007, -4.355e-6, -2.424e-6, 1.931e-6
-0.008, -4.361e-6, -2.427e-6, 1.934e-6
-0.009, -4.370e-6, -2.424e-6, 1.946e-6
-0.010, -4.370e-6, -2.430e-6, 1.940e-6
-0.011, -4.388e-6, -2.439e-6, 1.949e-6
-0.012, -4.394e-6, -2.436e-6, 1.958e-6
-0.013, -4.394e-6, -2.436e-6, 1.958e-6
-0.014, -4.403e-6, -2.439e-6, 1.965e-6
-0.015, -4.416e-6, -2.439e-6, 1.977e-6
-0.016, -4.416e-6, -2.439e-6, 1.977e-6
-0.017, -4.425e-6, -2.445e-6, 1.980e-6
-0.018, -4.431e-6, -2.445e-6, 1.986e-6
-0.019, -4.431e-6, -2.445e-6, 1.986e-6
-0.020, -4.443e-6, -2.448e-6, 1.995e-6
-0.021, -4.449e-6, -2.445e-6, 2.004e-6
-0.022, -4.452e-6, -2.448e-6, 2.004e-6
-0.023, -4.458e-6, -2.448e-6, 2.010e-6
-0.024, -4.464e-6, -2.451e-6, 2.013e-6
-0.025, -4.474e-6, -2.454e-6, 2.019e-6
-0.026, -4.480e-6, -2.454e-6, 2.026e-6
-0.027, -4.483e-6, -2.457e-6, 2.026e-6
-0.028, -4.492e-6, -2.457e-6, 2.035e-6
-0.029, -4.495e-6, -2.454e-6, 2.041e-6
-0.030, -4.501e-6, -2.460e-6, 2.041e-6
-0.031, -4.507e-6, -2.460e-6, 2.047e-6
-0.032, -4.504e-6, -2.454e-6, 2.050e-6
-0.033, -4.516e-6, -2.460e-6, 2.056e-6
-0.034, -4.522e-6, -2.460e-6, 2.062e-6
-0.035, -4.519e-6, -2.454e-6, 2.065e-6
-0.036, -4.532e-6, -2.466e-6, 2.065e-6
-0.037, -4.538e-6, -2.460e-6, 2.077e-6
-0.038, -4.535e-6, -2.460e-6, 2.074e-6
-0.039, -4.544e-6, -2.463e-6, 2.081e-6
-0.040, -4.553e-6, -2.463e-6, 2.090e-6
-0.041, -4.547e-6, -2.460e-6, 2.087e-6
-0.042, -4.553e-6, -2.460e-6, 2.093e-6
-0.043, -4.553e-6, -2.457e-6, 2.096e-6
-0.044, -4.559e-6, -2.460e-6, 2.099e-6
-0.045, -4.568e-6, -2.463e-6, 2.105e-6
-0.046, -4.568e-6, -2.457e-6, 2.111e-6
-0.047, -4.571e-6, -2.460e-6, 2.111e-6
-0.048, -4.580e-6, -2.463e-6, 2.117e-6
-0.049, -4.577e-6, -2.454e-6, 2.123e-6
-0.050, -4.583e-6, -2.460e-6, 2.123e-6
-0.051, -4.590e-6, -2.460e-6, 2.129e-6
-0.052, -4.580e-6, -2.451e-6, 2.129e-6
-0.053, -4.590e-6, -2.460e-6, 2.129e-6
-0.054, -4.596e-6, -2.454e-6, 2.142e-6
-0.055, -4.593e-6, -2.451e-6, 2.142e-6
-0.056, -4.602e-6, -2.457e-6, 2.145e-6
-0.057, -4.605e-6, -2.451e-6, 2.154e-6
-0.058, -4.599e-6, -2.445e-6, 2.154e-6
-0.059, -4.611e-6, -2.454e-6, 2.157e-6
-0.060, -4.608e-6, -2.448e-6, 2.160e-6
-0.061, -4.608e-6, -2.445e-6, 2.163e-6
-0.062, -4.614e-6, -2.448e-6, 2.166e-6
-0.063, -4.617e-6, -2.445e-6, 2.172e-6
-0.064, -4.617e-6, -2.442e-6, 2.175e-6
-0.065, -4.626e-6, -2.448e-6, 2.178e-6
-0.066, -4.620e-6, -2.442e-6, 2.178e-6
-0.067, -4.620e-6, -2.439e-6, 2.181e-6
-0.068, -4.620e-6, -2.439e-6, 2.181e-6
-0.069, -4.626e-6, -2.436e-6, 2.190e-6
-0.070, -4.620e-6, -2.430e-6, 2.190e-6
-0.071, -4.626e-6, -2.433e-6, 2.193e-6
-0.072, -4.626e-6, -2.430e-6, 2.196e-6
-0.073, -4.623e-6, -2.427e-6, 2.196e-6
-0.074, -4.626e-6, -2.427e-6, 2.200e-6
-0.075, -4.629e-6, -2.424e-6, 2.206e-6
-0.076, -4.629e-6, -2.424e-6, 2.206e-6
-0.077, -4.629e-6, -2.421e-6, 2.209e-6
-0.078, -4.629e-6, -2.417e-6, 2.212e-6
-0.079, -4.629e-6, -2.417e-6, 2.212e-6
-0.080, -4.632e-6, -2.414e-6, 2.218e-6
-0.081, -4.629e-6, -2.411e-6, 2.218e-6
-0.082, -4.623e-6, -2.408e-6, 2.215e-6
-0.083, -4.626e-6, -2.405e-6, 2.221e-6
-0.084, -4.623e-6, -2.399e-6, 2.224e-6
-0.085, -4.629e-6, -2.405e-6, 2.224e-6
-0.086, -4.629e-6, -2.399e-6, 2.230e-6
-0.087, -4.623e-6, -2.396e-6, 2.227e-6
-0.088, -4.632e-6, -2.399e-6, 2.233e-6
-0.089, -4.623e-6, -2.393e-6, 2.230e-6
-0.090, -4.620e-6, -2.390e-6, 2.230e-6
-0.091, -4.623e-6, -2.387e-6, 2.236e-6
-0.092, -4.617e-6, -2.381e-6, 2.236e-6
-0.093, -4.620e-6, -2.381e-6, 2.239e-6
-0.094, -4.620e-6, -2.378e-6, 2.242e-6
-0.095, -4.605e-6, -2.366e-6, 2.239e-6
-0.096, -4.611e-6, -2.372e-6, 2.239e-6
-0.097, -4.614e-6, -2.369e-6, 2.245e-6
-0.098, -4.605e-6, -2.363e-6, 2.242e-6
-0.099, -4.605e-6, -2.363e-6, 2.242e-6
-0.100, -4.605e-6, -2.356e-6, 2.248e-6
-0.101, -4.599e-6, -2.353e-6, 2.245e-6
-0.102, -4.599e-6, -2.353e-6, 2.245e-6
-0.103, -4.596e-6, -2.344e-6, 2.251e-6
-0.104, -4.593e-6, -2.344e-6, 2.248e-6
-0.105, -4.593e-6, -2.344e-6, 2.248e-6
-0.106, -4.590e-6, -2.335e-6, 2.254e-6
-0.107, -4.577e-6, -2.332e-6, 2.245e-6
-0.108, -4.583e-6, -2.332e-6, 2.251e-6
-0.109, -4.574e-6, -2.320e-6, 2.254e-6
-0.110, -4.571e-6, -2.323e-6, 2.248e-6
-0.111, -4.574e-6, -2.320e-6, 2.254e-6
-0.112, -4.565e-6, -2.311e-6, 2.254e-6
-0.113, -4.556e-6, -2.308e-6, 2.248e-6
-0.114, -4.562e-6, -2.311e-6, 2.251e-6
-0.115, -4.553e-6, -2.298e-6, 2.254e-6
-0.116, -4.547e-6, -2.298e-6, 2.248e-6
-0.117, -4.550e-6, -2.295e-6, 2.254e-6
-0.118, -4.544e-6, -2.289e-6, 2.254e-6
-0.119, -4.538e-6, -2.289e-6, 2.248e-6
-0.120, -4.538e-6, -2.289e-6, 2.248e-6
-0.121, -4.535e-6, -2.283e-6, 2.251e-6
-0.122, -4.525e-6, -2.277e-6, 2.248e-6
-0.123, -4.519e-6, -2.271e-6, 2.248e-6
-0.124, -4.510e-6, -2.262e-6, 2.248e-6
-0.125, -4.516e-6, -2.268e-6, 2.248e-6
-0.126, -4.507e-6, -2.259e-6, 2.248e-6
-0.127, -4.504e-6, -2.256e-6, 2.248e-6
-0.128, -4.501e-6, -2.253e-6, 2.248e-6
-0.129, -4.492e-6, -2.244e-6, 2.248e-6
-0.130, -4.489e-6, -2.244e-6, 2.245e-6
-0.131, -4.486e-6, -2.241e-6, 2.245e-6
-0.132, -4.480e-6, -2.234e-6, 2.245e-6
-0.133, -4.471e-6, -2.228e-6, 2.242e-6
-0.134, -4.471e-6, -2.228e-6, 2.242e-6
-0.135, -4.464e-6, -2.222e-6, 2.242e-6
-0.136, -4.458e-6, -2.219e-6, 2.239e-6
-0.137, -4.452e-6, -2.213e-6, 2.239e-6
-0.138, -4.455e-6, -2.216e-6, 2.239e-6
-0.139, -4.446e-6, -2.210e-6, 2.236e-6
-0.140, -4.437e-6, -2.201e-6, 2.236e-6
-0.141, -4.434e-6, -2.201e-6, 2.233e-6
-0.142, -4.434e-6, -2.198e-6, 2.236e-6
-0.143, -4.425e-6, -2.192e-6, 2.233e-6
-0.144, -4.416e-6, -2.186e-6, 2.230e-6
-0.145, -4.413e-6, -2.186e-6, 2.227e-6
-0.146, -4.406e-6, -2.179e-6, 2.227e-6
-0.147, -4.400e-6, -2.173e-6, 2.227e-6
-0.148, -4.400e-6, -2.173e-6, 2.227e-6
-0.149, -4.394e-6, -2.167e-6, 2.227e-6
-0.150, -4.385e-6, -2.164e-6, 2.221e-6
-0.151, -4.385e-6, -2.164e-6, 2.221e-6
-0.152, -4.373e-6, -2.155e-6, 2.218e-6
-0.153, -4.370e-6, -2.155e-6, 2.215e-6
-0.154, -4.367e-6, -2.152e-6, 2.215e-6
-0.155, -4.364e-6, -2.146e-6, 2.218e-6
-0.156, -4.355e-6, -2.143e-6, 2.212e-6
-0.157, -4.355e-6, -2.140e-6, 2.215e-6
-0.158, -4.342e-6, -2.131e-6, 2.212e-6
-0.159, -4.336e-6, -2.131e-6, 2.206e-6
-0.160, -4.336e-6, -2.131e-6, 2.206e-6
-0.161, -4.324e-6, -2.118e-6, 2.206e-6
-0.162, -4.330e-6, -2.131e-6, 2.200e-6
-0.163, -4.321e-6, -2.115e-6, 2.206e-6
-0.164, -4.312e-6, -2.112e-6, 2.200e-6
-0.165, -4.318e-6, -2.121e-6, 2.196e-6
-0.166, -4.306e-6, -2.106e-6, 2.200e-6
-0.167, -4.297e-6, -2.100e-6, 2.196e-6
-0.168, -4.294e-6, -2.103e-6, 2.190e-6
-0.169, -4.297e-6, -2.100e-6, 2.196e-6
-0.170, -4.275e-6, -2.085e-6, 2.190e-6
-0.171, -4.272e-6, -2.088e-6, 2.184e-6
-0.172, -4.269e-6, -2.085e-6, 2.184e-6
-0.173, -4.263e-6, -2.079e-6, 2.184e-6
-0.174, -4.266e-6, -2.085e-6, 2.181e-6
-0.175, -4.260e-6, -2.076e-6, 2.184e-6
-0.176, -4.254e-6, -2.076e-6, 2.178e-6
-0.177, -4.248e-6, -2.070e-6, 2.178e-6
-0.178, -4.245e-6, -2.070e-6, 2.175e-6
-0.179, -4.239e-6, -2.067e-6, 2.172e-6
-0.180, -4.239e-6, -2.070e-6, 2.169e-6
-0.181, -4.226e-6, -2.057e-6, 2.169e-6
-0.182, -4.226e-6, -2.060e-6, 2.166e-6
-0.183, -4.220e-6, -2.054e-6, 2.166e-6
-0.184, -4.211e-6, -2.048e-6, 2.163e-6
-0.185, -4.214e-6, -2.051e-6, 2.163e-6
-0.186, -4.205e-6, -2.045e-6, 2.160e-6
-0.187, -4.205e-6, -2.045e-6, 2.160e-6
-0.188, -4.199e-6, -2.045e-6, 2.154e-6
-0.189, -4.190e-6, -2.036e-6, 2.154e-6
-0.190, -4.181e-6, -2.033e-6, 2.148e-6
-0.191, -4.184e-6, -2.036e-6, 2.148e-6
-0.192, -4.172e-6, -2.024e-6, 2.148e-6
-0.193, -4.168e-6, -2.027e-6, 2.142e-6
-0.194, -4.172e-6, -2.030e-6, 2.142e-6
-0.195, -4.156e-6, -2.018e-6, 2.139e-6
-0.196, -4.159e-6, -2.024e-6, 2.135e-6
-0.197, -4.156e-6, -2.018e-6, 2.139e-6
-0.198, -4.144e-6, -2.012e-6, 2.132e-6
-0.199, -4.141e-6, -2.012e-6, 2.129e-6
-0.200, -4.135e-6, -2.006e-6, 2.129e-6
-0.201, -4.126e-6, -2.002e-6, 2.123e-6
-0.202, -4.126e-6, -2.006e-6, 2.120e-6
-0.203, -4.123e-6, -1.996e-6, 2.126e-6
-0.204, -4.120e-6, -2.002e-6, 2.117e-6
-0.205, -4.110e-6, -1.996e-6, 2.114e-6
-0.206, -4.107e-6, -1.990e-6, 2.117e-6
-0.207, -4.095e-6, -1.987e-6, 2.108e-6
-0.208, -4.101e-6, -1.993e-6, 2.108e-6
-0.209, -4.089e-6, -1.981e-6, 2.108e-6
-0.210, -4.086e-6, -1.984e-6, 2.102e-6
-0.211, -4.083e-6, -1.984e-6, 2.099e-6
-0.212, -4.074e-6, -1.975e-6, 2.099e-6
-0.213, -4.065e-6, -1.972e-6, 2.093e-6
-0.214, -4.071e-6, -1.978e-6, 2.093e-6
-0.215, -4.065e-6, -1.969e-6, 2.096e-6
-0.216, -4.056e-6, -1.969e-6, 2.087e-6
-0.217, -4.059e-6, -1.972e-6, 2.087e-6
-0.218, -4.052e-6, -1.966e-6, 2.087e-6
-0.219, -4.040e-6, -1.963e-6, 2.077e-6
-0.220, -4.040e-6, -1.960e-6, 2.081e-6
-0.221, -4.037e-6, -1.957e-6, 2.081e-6
-0.222, -4.034e-6, -1.960e-6, 2.074e-6
-0.223, -4.028e-6, -1.957e-6, 2.071e-6
-0.224, -4.025e-6, -1.951e-6, 2.074e-6
-0.225, -4.013e-6, -1.948e-6, 2.065e-6
-0.226, -4.016e-6, -1.951e-6, 2.065e-6
-0.227, -4.007e-6, -1.945e-6, 2.062e-6
-0.228, -4.001e-6, -1.941e-6, 2.059e-6
-0.229, -3.991e-6, -1.938e-6, 2.053e-6
-0.230, -3.991e-6, -1.935e-6, 2.056e-6
-0.231, -3.985e-6, -1.935e-6, 2.050e-6
-0.232, -3.988e-6, -1.935e-6, 2.053e-6
-0.233, -3.982e-6, -1.935e-6, 2.047e-6
-0.234, -3.979e-6, -1.932e-6, 2.047e-6
-0.235, -3.970e-6, -1.926e-6, 2.044e-6
-0.236, -3.964e-6, -1.926e-6, 2.038e-6
-0.237, -3.961e-6, -1.926e-6, 2.035e-6
-0.238, -3.952e-6, -1.920e-6, 2.032e-6
-0.239, -3.952e-6, -1.920e-6, 2.032e-6
-0.240, -3.949e-6, -1.917e-6, 2.032e-6
-0.241, -3.943e-6, -1.914e-6, 2.029e-6
-0.242, -3.940e-6, -1.920e-6, 2.019e-6
-0.243, -3.937e-6, -1.917e-6, 2.019e-6
-0.244, -3.930e-6, -1.908e-6, 2.023e-6
-0.245, -3.930e-6, -1.914e-6, 2.016e-6
-0.246, -3.924e-6, -1.908e-6, 2.016e-6
-0.247, -3.921e-6, -1.908e-6, 2.013e-6
-0.248, -3.915e-6, -1.908e-6, 2.007e-6
-0.249, -3.915e-6, -1.902e-6, 2.013e-6
-0.250, -3.906e-6, -1.899e-6, 2.007e-6
-0.251, -3.909e-6, -1.905e-6, 2.004e-6
-0.252, -3.903e-6, -1.899e-6, 2.004e-6
-0.253, -3.894e-6, -1.899e-6, 1.995e-6
-0.254, -3.900e-6, -1.902e-6, 1.998e-6
-0.255, -3.891e-6, -1.893e-6, 1.998e-6
-0.256, -3.885e-6, -1.893e-6, 1.992e-6
-0.257, -3.888e-6, -1.896e-6, 1.992e-6
-0.258, -3.882e-6, -1.893e-6, 1.989e-6
-0.259, -3.879e-6, -1.896e-6, 1.983e-6
-0.260, -3.882e-6, -1.896e-6, 1.986e-6
-0.261, -3.869e-6, -1.887e-6, 1.983e-6
-0.262, -3.872e-6, -1.893e-6, 1.980e-6
-0.263, -3.872e-6, -1.890e-6, 1.983e-6
-0.264, -3.863e-6, -1.887e-6, 1.977e-6
-0.265, -3.857e-6, -1.887e-6, 1.971e-6
-0.266, -3.857e-6, -1.883e-6, 1.974e-6
-0.267, -3.857e-6, -1.883e-6, 1.974e-6
-0.268, -3.854e-6, -1.887e-6, 1.968e-6
-0.269, -3.851e-6, -1.877e-6, 1.974e-6
-0.270, -3.842e-6, -1.874e-6, 1.968e-6
-0.271, -3.845e-6, -1.880e-6, 1.965e-6
-0.272, -3.836e-6, -1.871e-6, 1.965e-6
-0.273, -3.827e-6, -1.868e-6, 1.958e-6
-0.274, -3.836e-6, -1.877e-6, 1.958e-6
-0.275, -3.836e-6, -1.877e-6, 1.958e-6
-0.276, -3.830e-6, -1.874e-6, 1.955e-6
-0.277, -3.833e-6, -1.880e-6, 1.952e-6
-0.278, -3.830e-6, -1.877e-6, 1.952e-6
-0.279, -3.811e-6, -1.862e-6, 1.949e-6
-0.280, -3.811e-6, -1.865e-6, 1.946e-6
-0.281, -3.811e-6, -1.865e-6, 1.946e-6
-0.282, -3.814e-6, -1.868e-6, 1.946e-6
-0.283, -3.814e-6, -1.868e-6, 1.946e-6
-0.284, -3.811e-6, -1.868e-6, 1.943e-6
-0.285, -3.808e-6, -1.868e-6, 1.940e-6
-0.286, -3.811e-6, -1.865e-6, 1.946e-6
-0.287, -3.796e-6, -1.859e-6, 1.937e-6
-0.288, -3.802e-6, -1.865e-6, 1.937e-6
-0.289, -3.805e-6, -1.868e-6, 1.937e-6
-0.290, -3.799e-6, -1.865e-6, 1.934e-6
-0.291, -3.802e-6, -1.868e-6, 1.934e-6
-0.292, -3.796e-6, -1.862e-6, 1.934e-6
-0.293, -3.793e-6, -1.865e-6, 1.928e-6
-0.294, -3.784e-6, -1.856e-6, 1.928e-6
-0.295, -3.784e-6, -1.853e-6, 1.931e-6
-0.296, -3.784e-6, -1.856e-6, 1.928e-6
-0.297, -3.784e-6, -1.859e-6, 1.925e-6
-0.298, -3.781e-6, -1.859e-6, 1.922e-6
-0.299, -3.775e-6, -1.856e-6, 1.919e-6
-0.300, -3.781e-6, -1.859e-6, 1.922e-6
-0.301, -3.778e-6, -1.856e-6, 1.922e-6
-0.302, -3.778e-6, -1.862e-6, 1.916e-6
-0.303, -3.766e-6, -1.850e-6, 1.916e-6
-0.304, -3.766e-6, -1.850e-6, 1.916e-6
-0.305, -3.769e-6, -1.853e-6, 1.916e-6
-0.306, -3.769e-6, -1.853e-6, 1.916e-6
-0.307, -3.756e-6, -1.847e-6, 1.910e-6
-0.308, -3.766e-6, -1.856e-6, 1.910e-6
-0.309, -3.760e-6, -1.847e-6, 1.913e-6
-0.310, -3.756e-6, -1.850e-6, 1.907e-6
-0.311, -3.766e-6, -1.859e-6, 1.907e-6
-0.312, -3.756e-6, -1.850e-6, 1.907e-6
-0.313, -3.750e-6, -1.847e-6, 1.904e-6
-0.314, -3.750e-6, -1.847e-6, 1.904e-6
-0.315, -3.744e-6, -1.844e-6, 1.900e-6
-0.316, -3.744e-6, -1.847e-6, 1.897e-6
-0.317, -3.744e-6, -1.847e-6, 1.897e-6
-0.318, -3.738e-6, -1.841e-6, 1.897e-6
-0.319, -3.738e-6, -1.847e-6, 1.891e-6
-0.320, -3.735e-6, -1.841e-6, 1.894e-6
-0.321, -3.738e-6, -1.841e-6, 1.897e-6
-0.322, -3.729e-6, -1.841e-6, 1.888e-6
-0.323, -3.738e-6, -1.847e-6, 1.891e-6
-0.324, -3.729e-6, -1.838e-6, 1.891e-6
-0.325, -3.726e-6, -1.841e-6, 1.885e-6
-0.326, -3.723e-6, -1.841e-6, 1.882e-6
-0.327, -3.723e-6, -1.838e-6, 1.885e-6
-0.328, -3.726e-6, -1.844e-6, 1.882e-6
-0.329, -3.726e-6, -1.844e-6, 1.882e-6
-0.330, -3.717e-6, -1.835e-6, 1.882e-6
-0.331, -3.714e-6, -1.838e-6, 1.876e-6
-0.332, -3.720e-6, -1.841e-6, 1.879e-6
-0.333, -3.714e-6, -1.838e-6, 1.876e-6
-0.334, -3.714e-6, -1.841e-6, 1.873e-6
-0.335, -3.711e-6, -1.835e-6, 1.876e-6
-0.336, -3.708e-6, -1.835e-6, 1.873e-6
-0.337, -3.714e-6, -1.844e-6, 1.870e-6
-0.338, -3.702e-6, -1.835e-6, 1.867e-6
-0.339, -3.705e-6, -1.838e-6, 1.867e-6
-0.340, -3.702e-6, -1.838e-6, 1.864e-6
-0.341, -3.699e-6, -1.835e-6, 1.864e-6
-0.342, -3.692e-6, -1.835e-6, 1.858e-6
-0.343, -3.695e-6, -1.835e-6, 1.861e-6
-0.344, -3.692e-6, -1.835e-6, 1.858e-6
-0.345, -3.686e-6, -1.832e-6, 1.855e-6
-0.346, -3.692e-6, -1.835e-6, 1.858e-6
-0.347, -3.683e-6, -1.829e-6, 1.855e-6
-0.348, -3.683e-6, -1.829e-6, 1.855e-6
-0.349, -3.686e-6, -1.832e-6, 1.855e-6
-0.350, -3.680e-6, -1.829e-6, 1.852e-6
-0.351, -3.680e-6, -1.832e-6, 1.849e-6
-0.352, -3.689e-6, -1.835e-6, 1.855e-6
-0.353, -3.674e-6, -1.832e-6, 1.843e-6
-0.354, -3.677e-6, -1.832e-6, 1.846e-6
-0.355, -3.677e-6, -1.829e-6, 1.849e-6
-0.356, -3.677e-6, -1.835e-6, 1.843e-6
-0.357, -3.680e-6, -1.835e-6, 1.846e-6
-0.358, -3.668e-6, -1.825e-6, 1.843e-6
-0.359, -3.668e-6, -1.829e-6, 1.839e-6
-0.360, -3.671e-6, -1.835e-6, 1.836e-6
-0.361, -3.668e-6, -1.829e-6, 1.839e-6
-0.362, -3.665e-6, -1.832e-6, 1.833e-6
-0.363, -3.680e-6, -1.841e-6, 1.839e-6
-0.364, -3.659e-6, -1.825e-6, 1.833e-6
-0.365, -3.665e-6, -1.832e-6, 1.833e-6
-0.366, -3.665e-6, -1.832e-6, 1.833e-6
-0.367, -3.665e-6, -1.835e-6, 1.830e-6
-0.368, -3.659e-6, -1.832e-6, 1.827e-6
-0.369, -3.668e-6, -1.838e-6, 1.830e-6
-0.370, -3.656e-6, -1.832e-6, 1.824e-6
-0.371, -3.665e-6, -1.841e-6, 1.824e-6
-0.372, -3.671e-6, -1.841e-6, 1.830e-6
-0.373, -3.656e-6, -1.832e-6, 1.824e-6
-0.374, -3.665e-6, -1.844e-6, 1.821e-6
-0.375, -3.665e-6, -1.841e-6, 1.824e-6
-0.376, -3.650e-6, -1.832e-6, 1.818e-6
-0.377, -3.662e-6, -1.844e-6, 1.818e-6
-0.378, -3.662e-6, -1.844e-6, 1.818e-6
-0.379, -3.656e-6, -1.838e-6, 1.818e-6
-0.380, -3.662e-6, -1.847e-6, 1.815e-6
-0.381, -3.659e-6, -1.844e-6, 1.815e-6
-0.382, -3.659e-6, -1.847e-6, 1.812e-6
-0.383, -3.653e-6, -1.844e-6, 1.809e-6
-0.384, -3.656e-6, -1.844e-6, 1.812e-6
-0.385, -3.653e-6, -1.844e-6, 1.809e-6
-0.386, -3.656e-6, -1.847e-6, 1.809e-6
-0.387, -3.656e-6, -1.850e-6, 1.806e-6
-0.388, -3.665e-6, -1.856e-6, 1.809e-6
-0.389, -3.656e-6, -1.850e-6, 1.806e-6
-0.390, -3.665e-6, -1.859e-6, 1.806e-6
-0.391, -3.656e-6, -1.853e-6, 1.803e-6
-0.392, -3.665e-6, -1.859e-6, 1.806e-6
-0.393, -3.650e-6, -1.853e-6, 1.797e-6
-0.394, -3.656e-6, -1.856e-6, 1.800e-6
-0.395, -3.659e-6, -1.862e-6, 1.797e-6
-0.396, -3.650e-6, -1.856e-6, 1.794e-6
-0.397, -3.662e-6, -1.862e-6, 1.800e-6
-0.398, -3.659e-6, -1.862e-6, 1.797e-6
-0.399, -3.659e-6, -1.868e-6, 1.791e-6
-0.400, -3.656e-6, -1.865e-6, 1.791e-6
