Feb. 28, 2018   11:17:58
Square Wave Voltammetry
File: c:\users\electrochemist\desktop\2018\28022018_unbuffered_9,2\5_e1_9,2_0118_ph4,47_2.txt
Data Source:  Experiment
Instrument Model:  CHI1040A
Header: 
Note: 

Init E (V) = 0.5
Final E (V) = -0.05
Incr E (V) = 0.001
Amplitude (V) = 0.1
Frequency (Hz) = 150
Quiet Time (sec) = 0
Sensitivity (A/V) = 1e-6

Difference:

Forward:

Reverse:
Ep = 0.210V
ip = 8.233e-8A
Ah = 9.000e-9VA

Potential/V, Diff(i/A), For(i/A), Rev(i/A)

0.499, -6.552e-7, -1.697e-7, 4.855e-7
0.498, -8.035e-7, -3.751e-7, 4.284e-7
0.497, -7.965e-7, -3.888e-7, 4.076e-7
0.496, -7.888e-7, -3.919e-7, 3.970e-7
0.495, -7.849e-7, -3.974e-7, 3.875e-7
0.494, -7.809e-7, -3.989e-7, 3.820e-7
0.493, -7.772e-7, -4.001e-7, 3.771e-7
0.492, -7.745e-7, -4.016e-7, 3.729e-7
0.491, -7.733e-7, -4.038e-7, 3.695e-7
0.490, -7.702e-7, -4.038e-7, 3.664e-7
0.489, -7.708e-7, -4.062e-7, 3.646e-7
0.488, -7.681e-7, -4.056e-7, 3.625e-7
0.487, -7.669e-7, -4.071e-7, 3.597e-7
0.486, -7.666e-7, -4.068e-7, 3.597e-7
0.485, -7.666e-7, -4.084e-7, 3.582e-7
0.484, -7.666e-7, -4.093e-7, 3.573e-7
0.483, -7.666e-7, -4.105e-7, 3.561e-7
0.482, -7.672e-7, -4.117e-7, 3.555e-7
0.481, -7.656e-7, -4.111e-7, 3.545e-7
0.480, -7.650e-7, -4.132e-7, 3.518e-7
0.479, -7.666e-7, -4.138e-7, 3.527e-7
0.478, -7.656e-7, -4.138e-7, 3.518e-7
0.477, -7.669e-7, -4.157e-7, 3.512e-7
0.476, -7.693e-7, -4.172e-7, 3.521e-7
0.475, -7.663e-7, -4.163e-7, 3.500e-7
0.474, -7.684e-7, -4.187e-7, 3.497e-7
0.473, -7.702e-7, -4.190e-7, 3.512e-7
0.472, -7.681e-7, -4.175e-7, 3.506e-7
0.471, -7.702e-7, -4.193e-7, 3.509e-7
0.470, -7.690e-7, -4.193e-7, 3.497e-7
0.469, -7.717e-7, -4.221e-7, 3.497e-7
0.468, -7.711e-7, -4.212e-7, 3.500e-7
0.467, -7.724e-7, -4.227e-7, 3.497e-7
0.466, -7.724e-7, -4.236e-7, 3.487e-7
0.465, -7.717e-7, -4.233e-7, 3.484e-7
0.464, -7.757e-7, -4.261e-7, 3.497e-7
0.463, -7.736e-7, -4.264e-7, 3.472e-7
0.462, -7.754e-7, -4.276e-7, 3.478e-7
0.461, -7.748e-7, -4.264e-7, 3.484e-7
0.460, -7.745e-7, -4.279e-7, 3.466e-7
0.459, -7.785e-7, -4.291e-7, 3.494e-7
0.458, -7.782e-7, -4.288e-7, 3.494e-7
0.457, -7.791e-7, -4.318e-7, 3.472e-7
0.456, -7.809e-7, -4.325e-7, 3.484e-7
0.455, -7.824e-7, -4.328e-7, 3.497e-7
0.454, -7.827e-7, -4.340e-7, 3.487e-7
0.453, -7.809e-7, -4.328e-7, 3.481e-7
0.452, -7.855e-7, -4.361e-7, 3.494e-7
0.451, -7.852e-7, -4.367e-7, 3.484e-7
0.450, -7.846e-7, -4.367e-7, 3.478e-7
0.449, -7.885e-7, -4.376e-7, 3.509e-7
0.448, -7.864e-7, -4.389e-7, 3.475e-7
0.447, -7.879e-7, -4.401e-7, 3.478e-7
0.446, -7.894e-7, -4.395e-7, 3.500e-7
0.445, -7.894e-7, -4.419e-7, 3.475e-7
0.444, -7.913e-7, -4.422e-7, 3.491e-7
0.443, -7.931e-7, -4.425e-7, 3.506e-7
0.442, -7.943e-7, -4.444e-7, 3.500e-7
0.441, -7.955e-7, -4.462e-7, 3.494e-7
0.440, -7.977e-7, -4.465e-7, 3.512e-7
0.439, -7.986e-7, -4.483e-7, 3.503e-7
0.438, -8.013e-7, -4.495e-7, 3.518e-7
0.437, -8.020e-7, -4.499e-7, 3.521e-7
0.436, -7.989e-7, -4.486e-7, 3.503e-7
0.435, -8.038e-7, -4.517e-7, 3.521e-7
0.434, -8.050e-7, -4.517e-7, 3.533e-7
0.433, -8.038e-7, -4.520e-7, 3.518e-7
0.432, -8.074e-7, -4.544e-7, 3.530e-7
0.431, -8.096e-7, -4.557e-7, 3.539e-7
0.430, -8.096e-7, -4.569e-7, 3.527e-7
0.429, -8.108e-7, -4.572e-7, 3.536e-7
0.428, -8.123e-7, -4.581e-7, 3.542e-7
0.427, -8.111e-7, -4.587e-7, 3.524e-7
0.426, -8.145e-7, -4.602e-7, 3.542e-7
0.425, -8.160e-7, -4.608e-7, 3.552e-7
0.424, -8.157e-7, -4.608e-7, 3.548e-7
0.423, -8.218e-7, -4.654e-7, 3.564e-7
0.422, -8.212e-7, -4.636e-7, 3.576e-7
0.421, -8.184e-7, -4.648e-7, 3.536e-7
0.420, -8.227e-7, -4.669e-7, 3.558e-7
0.419, -8.230e-7, -4.669e-7, 3.561e-7
0.418, -8.245e-7, -4.691e-7, 3.555e-7
0.417, -8.276e-7, -4.700e-7, 3.576e-7
0.416, -8.288e-7, -4.703e-7, 3.585e-7
0.415, -8.291e-7, -4.712e-7, 3.579e-7
0.414, -8.309e-7, -4.734e-7, 3.576e-7
0.413, -8.334e-7, -4.737e-7, 3.597e-7
0.412, -8.322e-7, -4.740e-7, 3.582e-7
0.411, -8.377e-7, -4.770e-7, 3.606e-7
0.410, -8.377e-7, -4.761e-7, 3.616e-7
0.409, -8.374e-7, -4.776e-7, 3.597e-7
0.408, -8.428e-7, -4.813e-7, 3.616e-7
0.407, -8.413e-7, -4.791e-7, 3.622e-7
0.406, -8.422e-7, -4.807e-7, 3.616e-7
0.405, -8.459e-7, -4.834e-7, 3.625e-7
0.404, -8.459e-7, -4.825e-7, 3.634e-7
0.403, -8.462e-7, -4.849e-7, 3.613e-7
0.402, -8.502e-7, -4.868e-7, 3.634e-7
0.401, -8.490e-7, -4.849e-7, 3.640e-7
0.400, -8.544e-7, -4.901e-7, 3.643e-7
0.399, -8.544e-7, -4.901e-7, 3.643e-7
0.398, -8.560e-7, -4.901e-7, 3.658e-7
0.397, -8.560e-7, -4.907e-7, 3.652e-7
0.396, -8.612e-7, -4.944e-7, 3.667e-7
0.395, -8.596e-7, -4.926e-7, 3.671e-7
0.394, -8.615e-7, -4.950e-7, 3.664e-7
0.393, -8.660e-7, -4.981e-7, 3.680e-7
0.392, -8.657e-7, -4.965e-7, 3.692e-7
0.391, -8.673e-7, -4.990e-7, 3.683e-7
0.390, -8.709e-7, -5.017e-7, 3.692e-7
0.389, -8.697e-7, -4.996e-7, 3.701e-7
0.388, -8.697e-7, -5.011e-7, 3.686e-7
0.387, -8.749e-7, -5.030e-7, 3.719e-7
0.386, -8.734e-7, -5.030e-7, 3.704e-7
0.385, -8.743e-7, -5.051e-7, 3.692e-7
0.384, -8.789e-7, -5.069e-7, 3.719e-7
0.383, -8.792e-7, -5.063e-7, 3.729e-7
0.382, -8.825e-7, -5.100e-7, 3.725e-7
0.381, -8.840e-7, -5.100e-7, 3.741e-7
0.380, -8.853e-7, -5.103e-7, 3.750e-7
0.379, -8.865e-7, -5.127e-7, 3.738e-7
0.378, -8.883e-7, -5.130e-7, 3.753e-7
0.377, -8.895e-7, -5.130e-7, 3.765e-7
0.376, -8.892e-7, -5.152e-7, 3.741e-7
0.375, -8.947e-7, -5.182e-7, 3.765e-7
0.374, -8.959e-7, -5.170e-7, 3.790e-7
0.373, -8.959e-7, -5.182e-7, 3.777e-7
0.372, -9.005e-7, -5.219e-7, 3.787e-7
0.371, -8.990e-7, -5.197e-7, 3.793e-7
0.370, -9.005e-7, -5.231e-7, 3.774e-7
0.369, -9.051e-7, -5.249e-7, 3.802e-7
0.368, -9.045e-7, -5.234e-7, 3.811e-7
0.367, -9.063e-7, -5.271e-7, 3.793e-7
0.366, -9.106e-7, -5.283e-7, 3.823e-7
0.365, -9.115e-7, -5.280e-7, 3.835e-7
0.364, -9.118e-7, -5.292e-7, 3.826e-7
0.363, -9.149e-7, -5.313e-7, 3.835e-7
0.362, -9.139e-7, -5.292e-7, 3.848e-7
0.361, -9.167e-7, -5.329e-7, 3.838e-7
0.360, -9.191e-7, -5.341e-7, 3.851e-7
0.359, -9.207e-7, -5.347e-7, 3.860e-7
0.358, -9.219e-7, -5.356e-7, 3.863e-7
0.357, -9.243e-7, -5.374e-7, 3.869e-7
0.356, -9.249e-7, -5.374e-7, 3.875e-7
0.355, -9.280e-7, -5.396e-7, 3.884e-7
0.354, -9.304e-7, -5.411e-7, 3.893e-7
0.353, -9.307e-7, -5.402e-7, 3.906e-7
0.352, -9.320e-7, -5.420e-7, 3.899e-7
0.351, -9.347e-7, -5.429e-7, 3.918e-7
0.350, -9.378e-7, -5.451e-7, 3.927e-7
0.349, -9.374e-7, -5.448e-7, 3.927e-7
0.348, -9.399e-7, -5.475e-7, 3.924e-7
0.347, -9.390e-7, -5.457e-7, 3.933e-7
0.346, -9.429e-7, -5.490e-7, 3.939e-7
0.345, -9.463e-7, -5.509e-7, 3.954e-7
0.344, -9.463e-7, -5.490e-7, 3.973e-7
0.343, -9.469e-7, -5.515e-7, 3.954e-7
0.342, -9.515e-7, -5.536e-7, 3.979e-7
0.341, -9.506e-7, -5.521e-7, 3.985e-7
0.340, -9.527e-7, -5.554e-7, 3.973e-7
0.339, -9.558e-7, -5.560e-7, 3.997e-7
0.338, -9.555e-7, -5.557e-7, 3.997e-7
0.337, -9.567e-7, -5.573e-7, 3.994e-7
0.336, -9.622e-7, -5.606e-7, 4.015e-7
0.335, -9.603e-7, -5.582e-7, 4.021e-7
0.334, -9.600e-7, -5.600e-7, 4.000e-7
0.333, -9.643e-7, -5.606e-7, 4.037e-7
0.332, -9.640e-7, -5.609e-7, 4.031e-7
0.331, -9.646e-7, -5.618e-7, 4.028e-7
0.330, -9.677e-7, -5.634e-7, 4.043e-7
0.329, -9.701e-7, -5.643e-7, 4.058e-7
0.328, -9.719e-7, -5.661e-7, 4.058e-7
0.327, -9.738e-7, -5.667e-7, 4.070e-7
0.326, -9.735e-7, -5.646e-7, 4.089e-7
0.325, -9.753e-7, -5.676e-7, 4.076e-7
0.324, -9.777e-7, -5.686e-7, 4.092e-7
0.323, -9.783e-7, -5.680e-7, 4.104e-7
0.322, -9.799e-7, -5.704e-7, 4.095e-7
0.321, -9.832e-7, -5.707e-7, 4.125e-7
0.320, -9.829e-7, -5.701e-7, 4.128e-7
0.319, -9.838e-7, -5.722e-7, 4.116e-7
0.318, -9.844e-7, -5.728e-7, 4.116e-7
0.317, -9.866e-7, -5.719e-7, 4.147e-7
0.316, -9.869e-7, -5.731e-7, 4.137e-7
0.315, -9.878e-7, -5.741e-7, 4.137e-7
0.314, -9.902e-7, -5.737e-7, 4.165e-7
0.313, -9.915e-7, -5.765e-7, 4.150e-7
0.312, -9.954e-7, -5.771e-7, 4.183e-7
0.311, -9.945e-7, -5.762e-7, 4.183e-7
0.310, -9.948e-7, -5.780e-7, 4.168e-7
0.309, -9.963e-7, -5.777e-7, 4.186e-7
0.308, -9.966e-7, -5.765e-7, 4.202e-7
0.307, -9.985e-7, -5.789e-7, 4.195e-7
0.306, -1.002e-6, -5.799e-7, 4.220e-7
0.305, -1.000e-6, -5.792e-7, 4.208e-7
0.304, -1.003e-6, -5.814e-7, 4.217e-7
0.303, -1.005e-6, -5.817e-7, 4.235e-7
0.302, -1.002e-6, -5.786e-7, 4.238e-7
0.301, -1.004e-6, -5.820e-7, 4.223e-7
0.300, -1.007e-6, -5.817e-7, 4.256e-7
0.299, -1.009e-6, -5.817e-7, 4.275e-7
0.298, -1.007e-6, -5.823e-7, 4.244e-7
0.297, -1.011e-6, -5.841e-7, 4.272e-7
0.296, -1.009e-6, -5.820e-7, 4.266e-7
0.295, -1.012e-6, -5.841e-7, 4.275e-7
0.294, -1.014e-6, -5.847e-7, 4.296e-7
0.293, -1.013e-6, -5.832e-7, 4.302e-7
0.292, -1.016e-6, -5.860e-7, 4.299e-7
0.291, -1.019e-6, -5.853e-7, 4.333e-7
0.290, -1.016e-6, -5.835e-7, 4.327e-7
0.289, -1.016e-6, -5.863e-7, 4.302e-7
0.288, -1.018e-6, -5.857e-7, 4.321e-7
0.287, -1.018e-6, -5.841e-7, 4.336e-7
0.286, -1.019e-6, -5.860e-7, 4.333e-7
0.285, -1.021e-6, -5.860e-7, 4.354e-7
0.284, -1.020e-6, -5.847e-7, 4.357e-7
0.283, -1.022e-6, -5.866e-7, 4.354e-7
0.282, -1.021e-6, -5.844e-7, 4.369e-7
0.281, -1.024e-6, -5.850e-7, 4.391e-7
0.280, -1.025e-6, -5.881e-7, 4.369e-7
0.279, -1.025e-6, -5.866e-7, 4.388e-7
0.278, -1.025e-6, -5.853e-7, 4.400e-7
0.277, -1.025e-6, -5.860e-7, 4.388e-7
0.276, -1.028e-6, -5.875e-7, 4.406e-7
0.275, -1.025e-6, -5.838e-7, 4.409e-7
0.274, -1.028e-6, -5.875e-7, 4.409e-7
0.273, -1.027e-6, -5.866e-7, 4.403e-7
0.272, -1.028e-6, -5.832e-7, 4.446e-7
0.271, -1.027e-6, -5.860e-7, 4.409e-7
0.270, -1.030e-6, -5.857e-7, 4.440e-7
0.269, -1.029e-6, -5.844e-7, 4.449e-7
0.268, -1.031e-6, -5.863e-7, 4.446e-7
0.267, -1.031e-6, -5.853e-7, 4.452e-7
0.266, -1.032e-6, -5.850e-7, 4.473e-7
0.265, -1.031e-6, -5.850e-7, 4.455e-7
0.264, -1.031e-6, -5.829e-7, 4.479e-7
0.263, -1.031e-6, -5.829e-7, 4.485e-7
0.262, -1.029e-6, -5.832e-7, 4.458e-7
0.261, -1.033e-6, -5.841e-7, 4.485e-7
0.260, -1.032e-6, -5.823e-7, 4.494e-7
0.259, -1.030e-6, -5.820e-7, 4.479e-7
0.258, -1.033e-6, -5.835e-7, 4.491e-7
0.257, -1.033e-6, -5.808e-7, 4.525e-7
0.256, -1.031e-6, -5.823e-7, 4.488e-7
0.255, -1.033e-6, -5.814e-7, 4.513e-7
0.254, -1.031e-6, -5.799e-7, 4.516e-7
0.253, -1.031e-6, -5.808e-7, 4.501e-7
0.252, -1.035e-6, -5.814e-7, 4.537e-7
0.251, -1.032e-6, -5.780e-7, 4.540e-7
0.250, -1.030e-6, -5.786e-7, 4.516e-7
0.249, -1.033e-6, -5.780e-7, 4.546e-7
0.248, -1.031e-6, -5.765e-7, 4.549e-7
0.247, -1.029e-6, -5.777e-7, 4.516e-7
0.246, -1.032e-6, -5.771e-7, 4.549e-7
0.245, -1.032e-6, -5.750e-7, 4.571e-7
0.244, -1.031e-6, -5.768e-7, 4.546e-7
0.243, -1.031e-6, -5.759e-7, 4.555e-7
0.242, -1.033e-6, -5.747e-7, 4.580e-7
0.241, -1.030e-6, -5.747e-7, 4.555e-7
0.240, -1.031e-6, -5.744e-7, 4.568e-7
0.239, -1.031e-6, -5.722e-7, 4.583e-7
0.238, -1.030e-6, -5.734e-7, 4.565e-7
0.237, -1.028e-6, -5.704e-7, 4.580e-7
0.236, -1.028e-6, -5.686e-7, 4.595e-7
0.235, -1.027e-6, -5.698e-7, 4.571e-7
0.234, -1.029e-6, -5.701e-7, 4.589e-7
0.233, -1.026e-6, -5.667e-7, 4.589e-7
0.232, -1.026e-6, -5.673e-7, 4.583e-7
0.231, -1.027e-6, -5.673e-7, 4.592e-7
0.230, -1.026e-6, -5.652e-7, 4.604e-7
0.229, -1.024e-6, -5.658e-7, 4.583e-7
0.228, -1.024e-6, -5.649e-7, 4.592e-7
0.227, -1.022e-6, -5.622e-7, 4.601e-7
0.226, -1.023e-6, -5.628e-7, 4.601e-7
0.225, -1.023e-6, -5.625e-7, 4.601e-7
0.224, -1.022e-6, -5.606e-7, 4.617e-7
0.223, -1.021e-6, -5.609e-7, 4.598e-7
0.222, -1.021e-6, -5.597e-7, 4.613e-7
0.221, -1.019e-6, -5.576e-7, 4.617e-7
0.220, -1.019e-6, -5.588e-7, 4.601e-7
0.219, -1.018e-6, -5.576e-7, 4.604e-7
0.218, -1.018e-6, -5.554e-7, 4.629e-7
0.217, -1.017e-6, -5.570e-7, 4.604e-7
0.216, -1.017e-6, -5.548e-7, 4.626e-7
0.215, -1.012e-6, -5.518e-7, 4.604e-7
0.214, -1.013e-6, -5.533e-7, 4.598e-7
0.213, -1.015e-6, -5.527e-7, 4.620e-7
0.212, -1.013e-6, -5.506e-7, 4.620e-7
0.211, -1.010e-6, -5.499e-7, 4.601e-7
0.210, -1.013e-6, -5.496e-7, 4.632e-7
0.209, -1.008e-6, -5.466e-7, 4.613e-7
0.208, -1.007e-6, -5.472e-7, 4.595e-7
0.207, -1.008e-6, -5.463e-7, 4.613e-7
0.206, -1.006e-6, -5.445e-7, 4.620e-7
0.205, -1.005e-6, -5.457e-7, 4.592e-7
0.204, -1.005e-6, -5.441e-7, 4.613e-7
0.203, -1.002e-6, -5.405e-7, 4.620e-7
0.202, -1.004e-6, -5.423e-7, 4.613e-7
0.201, -1.001e-6, -5.402e-7, 4.607e-7
0.200, -9.982e-7, -5.390e-7, 4.592e-7
0.199, -9.982e-7, -5.387e-7, 4.595e-7
0.198, -9.970e-7, -5.371e-7, 4.598e-7
0.197, -9.966e-7, -5.362e-7, 4.604e-7
0.196, -9.933e-7, -5.347e-7, 4.586e-7
0.195, -9.951e-7, -5.350e-7, 4.601e-7
0.194, -9.945e-7, -5.338e-7, 4.607e-7
0.193, -9.936e-7, -5.341e-7, 4.595e-7
0.192, -9.921e-7, -5.326e-7, 4.595e-7
0.191, -9.890e-7, -5.298e-7, 4.592e-7
0.190, -9.872e-7, -5.292e-7, 4.580e-7
0.189, -9.863e-7, -5.277e-7, 4.586e-7
0.188, -9.847e-7, -5.255e-7, 4.592e-7
0.187, -9.841e-7, -5.274e-7, 4.568e-7
0.186, -9.823e-7, -5.252e-7, 4.571e-7
0.185, -9.808e-7, -5.234e-7, 4.574e-7
0.184, -9.802e-7, -5.240e-7, 4.562e-7
0.183, -9.789e-7, -5.213e-7, 4.577e-7
0.182, -9.762e-7, -5.200e-7, 4.562e-7
0.181, -9.762e-7, -5.213e-7, 4.549e-7
0.180, -9.759e-7, -5.197e-7, 4.562e-7
0.179, -9.713e-7, -5.179e-7, 4.534e-7
0.178, -9.710e-7, -5.176e-7, 4.534e-7
0.177, -9.701e-7, -5.158e-7, 4.543e-7
0.176, -9.670e-7, -5.139e-7, 4.531e-7
0.175, -9.661e-7, -5.145e-7, 4.516e-7
0.174, -9.652e-7, -5.124e-7, 4.528e-7
0.173, -9.628e-7, -5.109e-7, 4.519e-7
0.172, -9.609e-7, -5.103e-7, 4.507e-7
0.171, -9.625e-7, -5.109e-7, 4.516e-7
0.170, -9.591e-7, -5.088e-7, 4.504e-7
0.169, -9.570e-7, -5.072e-7, 4.497e-7
0.168, -9.555e-7, -5.072e-7, 4.482e-7
0.167, -9.536e-7, -5.051e-7, 4.485e-7
0.166, -9.512e-7, -5.054e-7, 4.458e-7
0.165, -9.497e-7, -5.033e-7, 4.464e-7
0.164, -9.506e-7, -5.033e-7, 4.473e-7
0.163, -9.478e-7, -5.017e-7, 4.461e-7
0.162, -9.481e-7, -5.023e-7, 4.458e-7
0.161, -9.442e-7, -4.996e-7, 4.446e-7
0.160, -9.448e-7, -4.999e-7, 4.449e-7
0.159, -9.435e-7, -4.993e-7, 4.443e-7
0.158, -9.393e-7, -4.965e-7, 4.427e-7
0.157, -9.378e-7, -4.969e-7, 4.409e-7
0.156, -9.378e-7, -4.959e-7, 4.418e-7
0.155, -9.359e-7, -4.944e-7, 4.415e-7
0.154, -9.341e-7, -4.932e-7, 4.409e-7
0.153, -9.323e-7, -4.929e-7, 4.394e-7
0.152, -9.286e-7, -4.904e-7, 4.382e-7
0.151, -9.289e-7, -4.907e-7, 4.382e-7
0.150, -9.277e-7, -4.901e-7, 4.375e-7
0.149, -9.255e-7, -4.886e-7, 4.369e-7
0.148, -9.243e-7, -4.880e-7, 4.363e-7
0.147, -9.246e-7, -4.883e-7, 4.363e-7
0.146, -9.213e-7, -4.856e-7, 4.357e-7
0.145, -9.191e-7, -4.856e-7, 4.336e-7
0.144, -9.194e-7, -4.846e-7, 4.348e-7
0.143, -9.158e-7, -4.831e-7, 4.327e-7
0.142, -9.152e-7, -4.828e-7, 4.324e-7
0.141, -9.139e-7, -4.837e-7, 4.302e-7
0.140, -9.112e-7, -4.798e-7, 4.314e-7
0.139, -9.109e-7, -4.810e-7, 4.299e-7
0.138, -9.091e-7, -4.801e-7, 4.290e-7
0.137, -9.072e-7, -4.779e-7, 4.293e-7
0.136, -9.045e-7, -4.776e-7, 4.269e-7
0.135, -9.033e-7, -4.767e-7, 4.266e-7
0.134, -9.027e-7, -4.761e-7, 4.266e-7
0.133, -9.002e-7, -4.749e-7, 4.253e-7
0.132, -8.984e-7, -4.740e-7, 4.244e-7
0.131, -8.959e-7, -4.730e-7, 4.229e-7
0.130, -8.923e-7, -4.709e-7, 4.214e-7
0.129, -8.935e-7, -4.706e-7, 4.229e-7
0.128, -8.920e-7, -4.706e-7, 4.214e-7
0.127, -8.917e-7, -4.712e-7, 4.205e-7
0.126, -8.905e-7, -4.706e-7, 4.198e-7
0.125, -8.883e-7, -4.688e-7, 4.195e-7
0.124, -8.862e-7, -4.685e-7, 4.177e-7
0.123, -8.847e-7, -4.673e-7, 4.174e-7
0.122, -8.816e-7, -4.660e-7, 4.156e-7
0.121, -8.801e-7, -4.657e-7, 4.144e-7
0.120, -8.804e-7, -4.648e-7, 4.156e-7
0.119, -8.770e-7, -4.627e-7, 4.144e-7
0.118, -8.773e-7, -4.639e-7, 4.134e-7
0.117, -8.761e-7, -4.630e-7, 4.131e-7
0.116, -8.734e-7, -4.624e-7, 4.110e-7
0.115, -8.706e-7, -4.605e-7, 4.101e-7
0.114, -8.700e-7, -4.611e-7, 4.089e-7
0.113, -8.688e-7, -4.584e-7, 4.104e-7
0.112, -8.691e-7, -4.608e-7, 4.082e-7
0.111, -8.663e-7, -4.584e-7, 4.079e-7
0.110, -8.639e-7, -4.575e-7, 4.064e-7
0.109, -8.624e-7, -4.566e-7, 4.058e-7
0.108, -8.618e-7, -4.563e-7, 4.055e-7
0.107, -8.593e-7, -4.547e-7, 4.046e-7
0.106, -8.590e-7, -4.557e-7, 4.034e-7
0.105, -8.563e-7, -4.529e-7, 4.034e-7
0.104, -8.547e-7, -4.532e-7, 4.015e-7
0.103, -8.541e-7, -4.526e-7, 4.015e-7
0.102, -8.514e-7, -4.514e-7, 4.000e-7
0.101, -8.502e-7, -4.505e-7, 3.997e-7
0.100, -8.499e-7, -4.511e-7, 3.988e-7
0.099, -8.471e-7, -4.499e-7, 3.973e-7
0.098, -8.465e-7, -4.483e-7, 3.982e-7
0.097, -8.447e-7, -4.483e-7, 3.963e-7
0.096, -8.444e-7, -4.486e-7, 3.957e-7
0.095, -8.404e-7, -4.465e-7, 3.939e-7
0.094, -8.413e-7, -4.471e-7, 3.942e-7
0.093, -8.389e-7, -4.453e-7, 3.936e-7
0.092, -8.377e-7, -4.441e-7, 3.936e-7
0.091, -8.361e-7, -4.434e-7, 3.927e-7
0.090, -8.358e-7, -4.447e-7, 3.912e-7
0.089, -8.337e-7, -4.431e-7, 3.905e-7
0.088, -8.331e-7, -4.438e-7, 3.893e-7
0.087, -8.316e-7, -4.410e-7, 3.905e-7
0.086, -8.294e-7, -4.410e-7, 3.884e-7
0.085, -8.297e-7, -4.422e-7, 3.875e-7
0.084, -8.276e-7, -4.404e-7, 3.872e-7
0.083, -8.264e-7, -4.401e-7, 3.863e-7
0.082, -8.248e-7, -4.395e-7, 3.854e-7
0.081, -8.239e-7, -4.389e-7, 3.851e-7
0.080, -8.209e-7, -4.386e-7, 3.823e-7
0.079, -8.212e-7, -4.380e-7, 3.832e-7
0.078, -8.187e-7, -4.364e-7, 3.823e-7
0.077, -8.190e-7, -4.352e-7, 3.838e-7
0.076, -8.163e-7, -4.361e-7, 3.802e-7
0.075, -8.160e-7, -4.346e-7, 3.814e-7
0.074, -8.148e-7, -4.343e-7, 3.805e-7
0.073, -8.132e-7, -4.343e-7, 3.790e-7
0.072, -8.117e-7, -4.337e-7, 3.780e-7
0.071, -8.102e-7, -4.328e-7, 3.774e-7
0.070, -8.108e-7, -4.334e-7, 3.774e-7
0.069, -8.108e-7, -4.325e-7, 3.783e-7
0.068, -8.074e-7, -4.322e-7, 3.753e-7
0.067, -8.068e-7, -4.309e-7, 3.759e-7
0.066, -8.038e-7, -4.297e-7, 3.741e-7
0.065, -8.035e-7, -4.300e-7, 3.735e-7
0.064, -8.026e-7, -4.291e-7, 3.735e-7
0.063, -8.023e-7, -4.285e-7, 3.738e-7
0.062, -8.001e-7, -4.282e-7, 3.719e-7
0.061, -7.995e-7, -4.276e-7, 3.719e-7
0.060, -7.980e-7, -4.264e-7, 3.716e-7
0.059, -7.971e-7, -4.261e-7, 3.710e-7
0.058, -7.962e-7, -4.261e-7, 3.701e-7
0.057, -7.955e-7, -4.251e-7, 3.704e-7
0.056, -7.946e-7, -4.245e-7, 3.701e-7
0.055, -7.925e-7, -4.245e-7, 3.680e-7
0.054, -7.919e-7, -4.239e-7, 3.680e-7
0.053, -7.913e-7, -4.236e-7, 3.677e-7
0.052, -7.882e-7, -4.221e-7, 3.661e-7
0.051, -7.867e-7, -4.209e-7, 3.658e-7
0.050, -7.858e-7, -4.209e-7, 3.649e-7
0.049, -7.864e-7, -4.215e-7, 3.649e-7
0.048, -7.833e-7, -4.193e-7, 3.640e-7
0.047, -7.840e-7, -4.196e-7, 3.643e-7
0.046, -7.830e-7, -4.200e-7, 3.631e-7
0.045, -7.824e-7, -4.190e-7, 3.634e-7
0.044, -7.797e-7, -4.184e-7, 3.613e-7
0.043, -7.782e-7, -4.169e-7, 3.613e-7
0.042, -7.766e-7, -4.160e-7, 3.606e-7
0.041, -7.778e-7, -4.172e-7, 3.606e-7
0.040, -7.772e-7, -4.163e-7, 3.609e-7
0.039, -7.748e-7, -4.148e-7, 3.600e-7
0.038, -7.745e-7, -4.160e-7, 3.585e-7
0.037, -7.730e-7, -4.145e-7, 3.585e-7
0.036, -7.724e-7, -4.142e-7, 3.582e-7
0.035, -7.714e-7, -4.129e-7, 3.585e-7
0.034, -7.702e-7, -4.129e-7, 3.573e-7
0.033, -7.705e-7, -4.129e-7, 3.576e-7
0.032, -7.699e-7, -4.132e-7, 3.567e-7
0.031, -7.690e-7, -4.126e-7, 3.564e-7
0.030, -7.669e-7, -4.114e-7, 3.555e-7
0.029, -7.663e-7, -4.114e-7, 3.548e-7
0.028, -7.666e-7, -4.108e-7, 3.558e-7
0.027, -7.641e-7, -4.096e-7, 3.545e-7
0.026, -7.629e-7, -4.093e-7, 3.536e-7
0.025, -7.623e-7, -4.084e-7, 3.539e-7
0.024, -7.611e-7, -4.077e-7, 3.533e-7
0.023, -7.601e-7, -4.074e-7, 3.527e-7
0.022, -7.598e-7, -4.068e-7, 3.530e-7
0.021, -7.580e-7, -4.059e-7, 3.521e-7
0.020, -7.565e-7, -4.053e-7, 3.512e-7
0.019, -7.562e-7, -4.053e-7, 3.509e-7
0.018, -7.544e-7, -4.038e-7, 3.506e-7
0.017, -7.553e-7, -4.050e-7, 3.503e-7
0.016, -7.550e-7, -4.044e-7, 3.506e-7
0.015, -7.525e-7, -4.032e-7, 3.494e-7
0.014, -7.531e-7, -4.035e-7, 3.497e-7
0.013, -7.522e-7, -4.032e-7, 3.490e-7
0.012, -7.516e-7, -4.026e-7, 3.490e-7
0.011, -7.498e-7, -4.016e-7, 3.481e-7
0.010, -7.486e-7, -4.010e-7, 3.475e-7
0.009, -7.473e-7, -3.995e-7, 3.478e-7
0.008, -7.482e-7, -4.007e-7, 3.475e-7
0.007, -7.467e-7, -4.001e-7, 3.466e-7
0.006, -7.455e-7, -3.992e-7, 3.463e-7
0.005, -7.455e-7, -3.995e-7, 3.460e-7
0.004, -7.458e-7, -3.983e-7, 3.475e-7
0.003, -7.421e-7, -3.974e-7, 3.448e-7
0.002, -7.415e-7, -3.968e-7, 3.448e-7
0.001, -7.412e-7, -3.965e-7, 3.448e-7
-0.000, -7.415e-7, -3.971e-7, 3.445e-7
-0.001, -7.406e-7, -3.962e-7, 3.445e-7
-0.002, -7.394e-7, -3.962e-7, 3.432e-7
-0.003, -7.382e-7, -3.943e-7, 3.439e-7
-0.004, -7.370e-7, -3.940e-7, 3.429e-7
-0.005, -7.379e-7, -3.937e-7, 3.442e-7
-0.006, -7.360e-7, -3.937e-7, 3.423e-7
-0.007, -7.354e-7, -3.928e-7, 3.426e-7
-0.008, -7.367e-7, -3.931e-7, 3.436e-7
-0.009, -7.321e-7, -3.919e-7, 3.402e-7
-0.010, -7.348e-7, -3.940e-7, 3.408e-7
-0.011, -7.321e-7, -3.907e-7, 3.414e-7
-0.012, -7.309e-7, -3.904e-7, 3.405e-7
-0.013, -7.302e-7, -3.904e-7, 3.399e-7
-0.014, -7.315e-7, -3.910e-7, 3.405e-7
-0.015, -7.290e-7, -3.885e-7, 3.405e-7
-0.016, -7.290e-7, -3.897e-7, 3.393e-7
-0.017, -7.278e-7, -3.885e-7, 3.393e-7
-0.018, -7.260e-7, -3.873e-7, 3.387e-7
-0.019, -7.272e-7, -3.873e-7, 3.399e-7
-0.020, -7.257e-7, -3.864e-7, 3.393e-7
-0.021, -7.254e-7, -3.864e-7, 3.390e-7
-0.022, -7.244e-7, -3.864e-7, 3.381e-7
-0.023, -7.223e-7, -3.858e-7, 3.365e-7
-0.024, -7.251e-7, -3.867e-7, 3.384e-7
-0.025, -7.226e-7, -3.858e-7, 3.368e-7
-0.026, -7.211e-7, -3.833e-7, 3.378e-7
-0.027, -7.196e-7, -3.836e-7, 3.359e-7
-0.028, -7.186e-7, -3.836e-7, 3.350e-7
-0.029, -7.202e-7, -3.827e-7, 3.375e-7
-0.030, -7.190e-7, -3.827e-7, 3.362e-7
-0.031, -7.171e-7, -3.815e-7, 3.356e-7
-0.032, -7.174e-7, -3.821e-7, 3.353e-7
-0.033, -7.141e-7, -3.806e-7, 3.335e-7
-0.034, -7.156e-7, -3.815e-7, 3.341e-7
-0.035, -7.138e-7, -3.788e-7, 3.350e-7
-0.036, -7.135e-7, -3.800e-7, 3.335e-7
-0.037, -7.138e-7, -3.800e-7, 3.338e-7
-0.038, -7.119e-7, -3.791e-7, 3.329e-7
-0.039, -7.132e-7, -3.791e-7, 3.341e-7
-0.040, -7.107e-7, -3.785e-7, 3.323e-7
-0.041, -7.113e-7, -3.781e-7, 3.332e-7
-0.042, -7.095e-7, -3.772e-7, 3.323e-7
-0.043, -7.104e-7, -3.766e-7, 3.338e-7
-0.044, -7.098e-7, -3.772e-7, 3.326e-7
-0.045, -7.089e-7, -3.775e-7, 3.313e-7
-0.046, -7.064e-7, -3.760e-7, 3.304e-7
-0.047, -7.055e-7, -3.751e-7, 3.304e-7
-0.048, -7.049e-7, -3.742e-7, 3.307e-7
-0.049, -7.052e-7, -3.754e-7, 3.298e-7
-0.050, -7.037e-7, -3.742e-7, 3.295e-7
