Mar. 20, 2018   15:54:33
Square Wave Voltammetry
File: c:\users\electrochemist\desktop\2018\20032018_unbufarray_unpap\61_g3_ph9,50_2.txt
Data Source:  Experiment
Instrument Model:  CHI1040A
Header: 
Note: 

Init E (V) = 0.7
Final E (V) = -0.4
Incr E (V) = 0.001
Amplitude (V) = 0.1
Frequency (Hz) = 152
Quiet Time (sec) = 2
Sensitivity (A/V) = 1e-5

Difference:

Forward:

Reverse:

Potential/V, Diff(i/A), For(i/A), Rev(i/A)

0.699, -5.523e-7, -1.441e-7, 4.083e-7
0.698, -6.073e-7, -2.387e-7, 3.686e-7
0.697, -6.073e-7, -2.509e-7, 3.564e-7
0.696, -6.012e-7, -2.509e-7, 3.503e-7
0.695, -5.951e-7, -2.509e-7, 3.442e-7
0.694, -5.890e-7, -2.539e-7, 3.350e-7
0.693, -5.890e-7, -2.539e-7, 3.350e-7
0.692, -5.798e-7, -2.509e-7, 3.289e-7
0.691, -5.798e-7, -2.539e-7, 3.259e-7
0.690, -5.798e-7, -2.539e-7, 3.259e-7
0.689, -5.737e-7, -2.539e-7, 3.198e-7
0.688, -5.706e-7, -2.539e-7, 3.167e-7
0.687, -5.645e-7, -2.509e-7, 3.137e-7
0.686, -5.645e-7, -2.539e-7, 3.106e-7
0.685, -5.615e-7, -2.539e-7, 3.076e-7
0.684, -5.615e-7, -2.539e-7, 3.076e-7
0.683, -5.584e-7, -2.539e-7, 3.045e-7
0.682, -5.584e-7, -2.539e-7, 3.045e-7
0.681, -5.554e-7, -2.539e-7, 3.015e-7
0.680, -5.493e-7, -2.539e-7, 2.954e-7
0.679, -5.523e-7, -2.539e-7, 2.984e-7
0.678, -5.462e-7, -2.509e-7, 2.954e-7
0.677, -5.493e-7, -2.539e-7, 2.954e-7
0.676, -5.432e-7, -2.539e-7, 2.893e-7
0.675, -5.401e-7, -2.509e-7, 2.893e-7
0.674, -5.401e-7, -2.509e-7, 2.893e-7
0.673, -5.432e-7, -2.539e-7, 2.893e-7
0.672, -5.401e-7, -2.539e-7, 2.862e-7
0.671, -5.401e-7, -2.539e-7, 2.862e-7
0.670, -5.371e-7, -2.539e-7, 2.832e-7
0.669, -5.340e-7, -2.539e-7, 2.801e-7
0.668, -5.340e-7, -2.539e-7, 2.801e-7
0.667, -5.310e-7, -2.509e-7, 2.801e-7
0.666, -5.310e-7, -2.509e-7, 2.801e-7
0.665, -5.310e-7, -2.539e-7, 2.771e-7
0.664, -5.279e-7, -2.509e-7, 2.771e-7
0.663, -5.249e-7, -2.509e-7, 2.740e-7
0.662, -5.279e-7, -2.509e-7, 2.771e-7
0.661, -5.249e-7, -2.539e-7, 2.710e-7
0.660, -5.249e-7, -2.539e-7, 2.710e-7
0.659, -5.249e-7, -2.539e-7, 2.710e-7
0.658, -5.188e-7, -2.509e-7, 2.679e-7
0.657, -5.249e-7, -2.539e-7, 2.710e-7
0.656, -5.218e-7, -2.539e-7, 2.679e-7
0.655, -5.157e-7, -2.509e-7, 2.648e-7
0.654, -5.218e-7, -2.539e-7, 2.679e-7
0.653, -5.188e-7, -2.509e-7, 2.679e-7
0.652, -5.127e-7, -2.509e-7, 2.618e-7
0.651, -5.157e-7, -2.539e-7, 2.618e-7
0.650, -5.127e-7, -2.509e-7, 2.618e-7
0.649, -5.096e-7, -2.509e-7, 2.587e-7
0.648, -5.157e-7, -2.539e-7, 2.618e-7
0.647, -5.096e-7, -2.478e-7, 2.618e-7
0.646, -5.066e-7, -2.509e-7, 2.557e-7
0.645, -5.096e-7, -2.509e-7, 2.587e-7
0.644, -5.127e-7, -2.509e-7, 2.618e-7
0.643, -5.066e-7, -2.509e-7, 2.557e-7
0.642, -5.066e-7, -2.509e-7, 2.557e-7
0.641, -5.066e-7, -2.509e-7, 2.557e-7
0.640, -5.035e-7, -2.509e-7, 2.526e-7
0.639, -5.066e-7, -2.509e-7, 2.557e-7
0.638, -5.066e-7, -2.509e-7, 2.557e-7
0.637, -5.035e-7, -2.509e-7, 2.526e-7
0.636, -5.035e-7, -2.509e-7, 2.526e-7
0.635, -4.974e-7, -2.478e-7, 2.496e-7
0.634, -5.005e-7, -2.509e-7, 2.496e-7
0.633, -5.005e-7, -2.509e-7, 2.496e-7
0.632, -4.974e-7, -2.478e-7, 2.496e-7
0.631, -5.005e-7, -2.509e-7, 2.496e-7
0.630, -4.974e-7, -2.478e-7, 2.496e-7
0.629, -4.974e-7, -2.509e-7, 2.465e-7
0.628, -4.944e-7, -2.478e-7, 2.465e-7
0.627, -4.944e-7, -2.478e-7, 2.465e-7
0.626, -4.913e-7, -2.478e-7, 2.435e-7
0.625, -4.944e-7, -2.509e-7, 2.435e-7
0.624, -4.944e-7, -2.478e-7, 2.465e-7
0.623, -4.913e-7, -2.478e-7, 2.435e-7
0.622, -4.944e-7, -2.478e-7, 2.465e-7
0.621, -4.944e-7, -2.509e-7, 2.435e-7
0.620, -4.913e-7, -2.478e-7, 2.435e-7
0.619, -4.913e-7, -2.478e-7, 2.435e-7
0.618, -4.883e-7, -2.478e-7, 2.404e-7
0.617, -4.883e-7, -2.478e-7, 2.404e-7
0.616, -4.883e-7, -2.478e-7, 2.404e-7
0.615, -4.883e-7, -2.478e-7, 2.404e-7
0.614, -4.883e-7, -2.478e-7, 2.404e-7
0.613, -4.883e-7, -2.478e-7, 2.404e-7
0.612, -4.883e-7, -2.509e-7, 2.374e-7
0.611, -4.883e-7, -2.478e-7, 2.404e-7
0.610, -4.852e-7, -2.478e-7, 2.374e-7
0.609, -4.883e-7, -2.509e-7, 2.374e-7
0.608, -4.883e-7, -2.478e-7, 2.404e-7
0.607, -4.852e-7, -2.478e-7, 2.374e-7
0.606, -4.852e-7, -2.509e-7, 2.343e-7
0.605, -4.852e-7, -2.478e-7, 2.374e-7
0.604, -4.822e-7, -2.478e-7, 2.343e-7
0.603, -4.822e-7, -2.478e-7, 2.343e-7
0.602, -4.852e-7, -2.478e-7, 2.374e-7
0.601, -4.822e-7, -2.448e-7, 2.374e-7
0.600, -4.852e-7, -2.509e-7, 2.343e-7
0.599, -4.852e-7, -2.478e-7, 2.374e-7
0.598, -4.822e-7, -2.478e-7, 2.343e-7
0.597, -4.822e-7, -2.509e-7, 2.313e-7
0.596, -4.822e-7, -2.478e-7, 2.343e-7
0.595, -4.822e-7, -2.478e-7, 2.343e-7
0.594, -4.852e-7, -2.509e-7, 2.343e-7
0.593, -4.852e-7, -2.478e-7, 2.374e-7
0.592, -4.822e-7, -2.478e-7, 2.343e-7
0.591, -4.791e-7, -2.478e-7, 2.313e-7
0.590, -4.822e-7, -2.478e-7, 2.343e-7
0.589, -4.791e-7, -2.478e-7, 2.313e-7
0.588, -4.852e-7, -2.509e-7, 2.343e-7
0.587, -4.822e-7, -2.478e-7, 2.343e-7
0.586, -4.822e-7, -2.509e-7, 2.313e-7
0.585, -4.852e-7, -2.509e-7, 2.343e-7
0.584, -4.791e-7, -2.478e-7, 2.313e-7
0.583, -4.822e-7, -2.509e-7, 2.313e-7
0.582, -4.822e-7, -2.509e-7, 2.313e-7
0.581, -4.822e-7, -2.478e-7, 2.343e-7
0.580, -4.822e-7, -2.509e-7, 2.313e-7
0.579, -4.852e-7, -2.509e-7, 2.343e-7
0.578, -4.852e-7, -2.509e-7, 2.343e-7
0.577, -4.822e-7, -2.509e-7, 2.313e-7
0.576, -4.852e-7, -2.509e-7, 2.343e-7
0.575, -4.822e-7, -2.509e-7, 2.313e-7
0.574, -4.822e-7, -2.509e-7, 2.313e-7
0.573, -4.822e-7, -2.509e-7, 2.313e-7
0.572, -4.822e-7, -2.509e-7, 2.313e-7
0.571, -4.822e-7, -2.509e-7, 2.313e-7
0.570, -4.852e-7, -2.539e-7, 2.313e-7
0.569, -4.822e-7, -2.509e-7, 2.313e-7
0.568, -4.852e-7, -2.539e-7, 2.313e-7
0.567, -4.822e-7, -2.509e-7, 2.313e-7
0.566, -4.822e-7, -2.509e-7, 2.313e-7
0.565, -4.822e-7, -2.509e-7, 2.313e-7
0.564, -4.852e-7, -2.539e-7, 2.313e-7
0.563, -4.791e-7, -2.509e-7, 2.282e-7
0.562, -4.822e-7, -2.509e-7, 2.313e-7
0.561, -4.791e-7, -2.509e-7, 2.282e-7
0.560, -4.822e-7, -2.539e-7, 2.282e-7
0.559, -4.822e-7, -2.509e-7, 2.313e-7
0.558, -4.822e-7, -2.539e-7, 2.282e-7
0.557, -4.822e-7, -2.539e-7, 2.282e-7
0.556, -4.822e-7, -2.509e-7, 2.313e-7
0.555, -4.822e-7, -2.509e-7, 2.313e-7
0.554, -4.852e-7, -2.539e-7, 2.313e-7
0.553, -4.822e-7, -2.509e-7, 2.313e-7
0.552, -4.822e-7, -2.539e-7, 2.282e-7
0.551, -4.822e-7, -2.509e-7, 2.313e-7
0.550, -4.822e-7, -2.509e-7, 2.313e-7
0.549, -4.822e-7, -2.539e-7, 2.282e-7
0.548, -4.822e-7, -2.539e-7, 2.282e-7
0.547, -4.791e-7, -2.509e-7, 2.282e-7
0.546, -4.791e-7, -2.539e-7, 2.252e-7
0.545, -4.852e-7, -2.570e-7, 2.282e-7
0.544, -4.822e-7, -2.509e-7, 2.313e-7
0.543, -4.791e-7, -2.539e-7, 2.252e-7
0.542, -4.822e-7, -2.539e-7, 2.282e-7
0.541, -4.822e-7, -2.539e-7, 2.282e-7
0.540, -4.791e-7, -2.539e-7, 2.252e-7
0.539, -4.822e-7, -2.539e-7, 2.282e-7
0.538, -4.822e-7, -2.539e-7, 2.282e-7
0.537, -4.791e-7, -2.539e-7, 2.252e-7
0.536, -4.822e-7, -2.539e-7, 2.282e-7
0.535, -4.822e-7, -2.539e-7, 2.282e-7
0.534, -4.791e-7, -2.539e-7, 2.252e-7
0.533, -4.822e-7, -2.539e-7, 2.282e-7
0.532, -4.822e-7, -2.539e-7, 2.282e-7
0.531, -4.822e-7, -2.539e-7, 2.282e-7
0.530, -4.822e-7, -2.539e-7, 2.282e-7
0.529, -4.791e-7, -2.539e-7, 2.252e-7
0.528, -4.791e-7, -2.539e-7, 2.252e-7
0.527, -4.791e-7, -2.539e-7, 2.252e-7
0.526, -4.791e-7, -2.539e-7, 2.252e-7
0.525, -4.791e-7, -2.539e-7, 2.252e-7
0.524, -4.791e-7, -2.539e-7, 2.252e-7
0.523, -4.822e-7, -2.570e-7, 2.252e-7
0.522, -4.791e-7, -2.539e-7, 2.252e-7
0.521, -4.791e-7, -2.539e-7, 2.252e-7
0.520, -4.822e-7, -2.570e-7, 2.252e-7
0.519, -4.791e-7, -2.539e-7, 2.252e-7
0.518, -4.822e-7, -2.570e-7, 2.252e-7
0.517, -4.822e-7, -2.570e-7, 2.252e-7
0.516, -4.791e-7, -2.539e-7, 2.252e-7
0.515, -4.822e-7, -2.570e-7, 2.252e-7
0.514, -4.822e-7, -2.570e-7, 2.252e-7
0.513, -4.822e-7, -2.570e-7, 2.252e-7
0.512, -4.822e-7, -2.570e-7, 2.252e-7
0.511, -4.852e-7, -2.570e-7, 2.282e-7
0.510, -4.791e-7, -2.539e-7, 2.252e-7
0.509, -4.822e-7, -2.570e-7, 2.252e-7
0.508, -4.822e-7, -2.570e-7, 2.252e-7
0.507, -4.822e-7, -2.570e-7, 2.252e-7
0.506, -4.822e-7, -2.600e-7, 2.221e-7
0.505, -4.791e-7, -2.539e-7, 2.252e-7
0.504, -4.822e-7, -2.570e-7, 2.252e-7
0.503, -4.822e-7, -2.600e-7, 2.221e-7
0.502, -4.822e-7, -2.570e-7, 2.252e-7
0.501, -4.822e-7, -2.570e-7, 2.252e-7
0.500, -4.822e-7, -2.600e-7, 2.221e-7
0.499, -4.822e-7, -2.570e-7, 2.252e-7
0.498, -4.791e-7, -2.570e-7, 2.221e-7
0.497, -4.822e-7, -2.600e-7, 2.221e-7
0.496, -4.852e-7, -2.600e-7, 2.252e-7
0.495, -4.852e-7, -2.600e-7, 2.252e-7
0.494, -4.822e-7, -2.600e-7, 2.221e-7
0.493, -4.822e-7, -2.570e-7, 2.252e-7
0.492, -4.822e-7, -2.600e-7, 2.221e-7
0.491, -4.822e-7, -2.600e-7, 2.221e-7
0.490, -4.852e-7, -2.600e-7, 2.252e-7
0.489, -4.822e-7, -2.600e-7, 2.221e-7
0.488, -4.883e-7, -2.631e-7, 2.252e-7
0.487, -4.852e-7, -2.600e-7, 2.252e-7
0.486, -4.883e-7, -2.631e-7, 2.252e-7
0.485, -4.852e-7, -2.600e-7, 2.252e-7
0.484, -4.852e-7, -2.600e-7, 2.252e-7
0.483, -4.883e-7, -2.631e-7, 2.252e-7
0.482, -4.852e-7, -2.600e-7, 2.252e-7
0.481, -4.852e-7, -2.600e-7, 2.252e-7
0.480, -4.883e-7, -2.631e-7, 2.252e-7
0.479, -4.913e-7, -2.661e-7, 2.252e-7
0.478, -4.883e-7, -2.631e-7, 2.252e-7
0.477, -4.883e-7, -2.631e-7, 2.252e-7
0.476, -4.883e-7, -2.631e-7, 2.252e-7
0.475, -4.883e-7, -2.631e-7, 2.252e-7
0.474, -4.883e-7, -2.631e-7, 2.252e-7
0.473, -4.944e-7, -2.661e-7, 2.282e-7
0.472, -4.944e-7, -2.661e-7, 2.282e-7
0.471, -4.913e-7, -2.661e-7, 2.252e-7
0.470, -4.913e-7, -2.661e-7, 2.252e-7
0.469, -4.913e-7, -2.661e-7, 2.252e-7
0.468, -4.944e-7, -2.661e-7, 2.282e-7
0.467, -4.944e-7, -2.661e-7, 2.282e-7
0.466, -4.913e-7, -2.661e-7, 2.252e-7
0.465, -4.913e-7, -2.661e-7, 2.252e-7
0.464, -4.913e-7, -2.661e-7, 2.252e-7
0.463, -4.944e-7, -2.692e-7, 2.252e-7
0.462, -4.944e-7, -2.661e-7, 2.282e-7
0.461, -4.913e-7, -2.661e-7, 2.252e-7
0.460, -4.974e-7, -2.692e-7, 2.282e-7
0.459, -4.944e-7, -2.661e-7, 2.282e-7
0.458, -4.944e-7, -2.692e-7, 2.252e-7
0.457, -4.944e-7, -2.692e-7, 2.252e-7
0.456, -4.944e-7, -2.661e-7, 2.282e-7
0.455, -4.974e-7, -2.692e-7, 2.282e-7
0.454, -5.005e-7, -2.722e-7, 2.282e-7
0.453, -4.974e-7, -2.692e-7, 2.282e-7
0.452, -4.974e-7, -2.722e-7, 2.252e-7
0.451, -5.005e-7, -2.722e-7, 2.282e-7
0.450, -5.005e-7, -2.692e-7, 2.313e-7
0.449, -4.974e-7, -2.722e-7, 2.252e-7
0.448, -4.974e-7, -2.692e-7, 2.282e-7
0.447, -4.974e-7, -2.692e-7, 2.282e-7
0.446, -4.974e-7, -2.722e-7, 2.252e-7
0.445, -5.005e-7, -2.722e-7, 2.282e-7
0.444, -5.005e-7, -2.722e-7, 2.282e-7
0.443, -5.005e-7, -2.722e-7, 2.282e-7
0.442, -5.005e-7, -2.722e-7, 2.282e-7
0.441, -5.005e-7, -2.722e-7, 2.282e-7
0.440, -4.974e-7, -2.722e-7, 2.252e-7
0.439, -5.005e-7, -2.722e-7, 2.282e-7
0.438, -4.974e-7, -2.722e-7, 2.252e-7
0.437, -5.005e-7, -2.722e-7, 2.282e-7
0.436, -5.005e-7, -2.722e-7, 2.282e-7
0.435, -5.035e-7, -2.753e-7, 2.282e-7
0.434, -5.035e-7, -2.753e-7, 2.282e-7
0.433, -5.005e-7, -2.722e-7, 2.282e-7
0.432, -5.005e-7, -2.753e-7, 2.252e-7
0.431, -5.035e-7, -2.753e-7, 2.282e-7
0.430, -5.005e-7, -2.722e-7, 2.282e-7
0.429, -5.035e-7, -2.753e-7, 2.282e-7
0.428, -5.005e-7, -2.753e-7, 2.252e-7
0.427, -5.035e-7, -2.753e-7, 2.282e-7
0.426, -5.035e-7, -2.753e-7, 2.282e-7
0.425, -5.035e-7, -2.753e-7, 2.282e-7
0.424, -5.005e-7, -2.753e-7, 2.252e-7
0.423, -5.035e-7, -2.753e-7, 2.282e-7
0.422, -5.035e-7, -2.753e-7, 2.282e-7
0.421, -5.035e-7, -2.753e-7, 2.282e-7
0.420, -5.035e-7, -2.753e-7, 2.282e-7
0.419, -5.035e-7, -2.753e-7, 2.282e-7
0.418, -5.035e-7, -2.783e-7, 2.252e-7
0.417, -5.066e-7, -2.783e-7, 2.282e-7
0.416, -5.035e-7, -2.753e-7, 2.282e-7
0.415, -5.066e-7, -2.783e-7, 2.282e-7
0.414, -5.096e-7, -2.783e-7, 2.313e-7
0.413, -5.066e-7, -2.783e-7, 2.282e-7
0.412, -5.066e-7, -2.783e-7, 2.282e-7
0.411, -5.066e-7, -2.783e-7, 2.282e-7
0.410, -5.066e-7, -2.783e-7, 2.282e-7
0.409, -5.127e-7, -2.844e-7, 2.282e-7
0.408, -5.127e-7, -2.814e-7, 2.313e-7
0.407, -5.096e-7, -2.814e-7, 2.282e-7
0.406, -5.096e-7, -2.814e-7, 2.282e-7
0.405, -5.127e-7, -2.814e-7, 2.313e-7
0.404, -5.066e-7, -2.783e-7, 2.282e-7
0.403, -5.096e-7, -2.814e-7, 2.282e-7
0.402, -5.127e-7, -2.814e-7, 2.313e-7
0.401, -5.096e-7, -2.814e-7, 2.282e-7
0.400, -5.127e-7, -2.844e-7, 2.282e-7
0.399, -5.127e-7, -2.814e-7, 2.313e-7
0.398, -5.157e-7, -2.844e-7, 2.313e-7
0.397, -5.188e-7, -2.875e-7, 2.313e-7
0.396, -5.157e-7, -2.844e-7, 2.313e-7
0.395, -5.157e-7, -2.844e-7, 2.313e-7
0.394, -5.157e-7, -2.844e-7, 2.313e-7
0.393, -5.188e-7, -2.844e-7, 2.343e-7
0.392, -5.188e-7, -2.875e-7, 2.313e-7
0.391, -5.188e-7, -2.875e-7, 2.313e-7
0.390, -5.188e-7, -2.875e-7, 2.313e-7
0.389, -5.188e-7, -2.875e-7, 2.313e-7
0.388, -5.188e-7, -2.875e-7, 2.313e-7
0.387, -5.218e-7, -2.875e-7, 2.343e-7
0.386, -5.218e-7, -2.905e-7, 2.313e-7
0.385, -5.249e-7, -2.905e-7, 2.343e-7
0.384, -5.249e-7, -2.905e-7, 2.343e-7
0.383, -5.249e-7, -2.905e-7, 2.343e-7
0.382, -5.249e-7, -2.905e-7, 2.343e-7
0.381, -5.249e-7, -2.905e-7, 2.343e-7
0.380, -5.249e-7, -2.905e-7, 2.343e-7
0.379, -5.279e-7, -2.905e-7, 2.374e-7
0.378, -5.279e-7, -2.936e-7, 2.343e-7
0.377, -5.279e-7, -2.936e-7, 2.343e-7
0.376, -5.279e-7, -2.936e-7, 2.343e-7
0.375, -5.279e-7, -2.936e-7, 2.343e-7
0.374, -5.340e-7, -2.966e-7, 2.374e-7
0.373, -5.310e-7, -2.936e-7, 2.374e-7
0.372, -5.340e-7, -2.966e-7, 2.374e-7
0.371, -5.340e-7, -2.966e-7, 2.374e-7
0.370, -5.340e-7, -2.966e-7, 2.374e-7
0.369, -5.310e-7, -2.966e-7, 2.343e-7
0.368, -5.340e-7, -2.966e-7, 2.374e-7
0.367, -5.340e-7, -2.966e-7, 2.374e-7
0.366, -5.371e-7, -2.997e-7, 2.374e-7
0.365, -5.371e-7, -2.966e-7, 2.404e-7
0.364, -5.371e-7, -2.997e-7, 2.374e-7
0.363, -5.371e-7, -2.997e-7, 2.374e-7
0.362, -5.401e-7, -2.997e-7, 2.404e-7
0.361, -5.401e-7, -3.027e-7, 2.374e-7
0.360, -5.432e-7, -3.027e-7, 2.404e-7
0.359, -5.401e-7, -2.997e-7, 2.404e-7
0.358, -5.371e-7, -2.997e-7, 2.374e-7
0.357, -5.401e-7, -3.027e-7, 2.374e-7
0.356, -5.432e-7, -2.997e-7, 2.435e-7
0.355, -5.401e-7, -3.027e-7, 2.374e-7
0.354, -5.462e-7, -3.058e-7, 2.404e-7
0.353, -5.432e-7, -3.027e-7, 2.404e-7
0.352, -5.462e-7, -3.058e-7, 2.404e-7
0.351, -5.432e-7, -3.027e-7, 2.404e-7
0.350, -5.462e-7, -3.058e-7, 2.404e-7
0.349, -5.462e-7, -3.058e-7, 2.404e-7
0.348, -5.493e-7, -3.089e-7, 2.404e-7
0.347, -5.493e-7, -3.058e-7, 2.435e-7
0.346, -5.462e-7, -3.058e-7, 2.404e-7
0.345, -5.493e-7, -3.058e-7, 2.435e-7
0.344, -5.523e-7, -3.089e-7, 2.435e-7
0.343, -5.493e-7, -3.089e-7, 2.404e-7
0.342, -5.523e-7, -3.089e-7, 2.435e-7
0.341, -5.523e-7, -3.089e-7, 2.435e-7
0.340, -5.523e-7, -3.089e-7, 2.435e-7
0.339, -5.523e-7, -3.089e-7, 2.435e-7
0.338, -5.493e-7, -3.089e-7, 2.404e-7
0.337, -5.523e-7, -3.119e-7, 2.404e-7
0.336, -5.554e-7, -3.119e-7, 2.435e-7
0.335, -5.554e-7, -3.119e-7, 2.435e-7
0.334, -5.554e-7, -3.119e-7, 2.435e-7
0.333, -5.554e-7, -3.119e-7, 2.435e-7
0.332, -5.584e-7, -3.119e-7, 2.465e-7
0.331, -5.554e-7, -3.119e-7, 2.435e-7
0.330, -5.584e-7, -3.150e-7, 2.435e-7
0.329, -5.584e-7, -3.150e-7, 2.435e-7
0.328, -5.584e-7, -3.150e-7, 2.435e-7
0.327, -5.615e-7, -3.150e-7, 2.465e-7
0.326, -5.645e-7, -3.180e-7, 2.465e-7
0.325, -5.615e-7, -3.150e-7, 2.465e-7
0.324, -5.584e-7, -3.150e-7, 2.435e-7
0.323, -5.645e-7, -3.180e-7, 2.465e-7
0.322, -5.615e-7, -3.150e-7, 2.465e-7
0.321, -5.645e-7, -3.180e-7, 2.465e-7
0.320, -5.645e-7, -3.180e-7, 2.465e-7
0.319, -5.645e-7, -3.180e-7, 2.465e-7
0.318, -5.645e-7, -3.180e-7, 2.465e-7
0.317, -5.676e-7, -3.211e-7, 2.465e-7
0.316, -5.676e-7, -3.180e-7, 2.496e-7
0.315, -5.676e-7, -3.211e-7, 2.465e-7
0.314, -5.706e-7, -3.211e-7, 2.496e-7
0.313, -5.706e-7, -3.211e-7, 2.496e-7
0.312, -5.706e-7, -3.241e-7, 2.465e-7
0.311, -5.706e-7, -3.211e-7, 2.496e-7
0.310, -5.676e-7, -3.211e-7, 2.465e-7
0.309, -5.737e-7, -3.241e-7, 2.496e-7
0.308, -5.737e-7, -3.211e-7, 2.526e-7
0.307, -5.737e-7, -3.241e-7, 2.496e-7
0.306, -5.737e-7, -3.241e-7, 2.496e-7
0.305, -5.767e-7, -3.241e-7, 2.526e-7
0.304, -5.767e-7, -3.241e-7, 2.526e-7
0.303, -5.767e-7, -3.272e-7, 2.496e-7
0.302, -5.829e-7, -3.272e-7, 2.557e-7
0.301, -5.737e-7, -3.241e-7, 2.496e-7
0.300, -5.829e-7, -3.302e-7, 2.526e-7
0.299, -5.829e-7, -3.272e-7, 2.557e-7
0.298, -5.798e-7, -3.272e-7, 2.526e-7
0.297, -5.859e-7, -3.333e-7, 2.526e-7
0.296, -5.829e-7, -3.302e-7, 2.526e-7
0.295, -5.829e-7, -3.302e-7, 2.526e-7
0.294, -5.859e-7, -3.302e-7, 2.557e-7
0.293, -5.890e-7, -3.333e-7, 2.557e-7
0.292, -5.890e-7, -3.333e-7, 2.557e-7
0.291, -5.890e-7, -3.333e-7, 2.557e-7
0.290, -5.920e-7, -3.333e-7, 2.587e-7
0.289, -5.920e-7, -3.333e-7, 2.587e-7
0.288, -5.951e-7, -3.363e-7, 2.587e-7
0.287, -5.951e-7, -3.363e-7, 2.587e-7
0.286, -5.951e-7, -3.394e-7, 2.557e-7
0.285, -5.951e-7, -3.363e-7, 2.587e-7
0.284, -5.951e-7, -3.363e-7, 2.587e-7
0.283, -5.951e-7, -3.363e-7, 2.587e-7
0.282, -6.012e-7, -3.394e-7, 2.618e-7
0.281, -6.012e-7, -3.394e-7, 2.618e-7
0.280, -6.042e-7, -3.424e-7, 2.618e-7
0.279, -6.012e-7, -3.394e-7, 2.618e-7
0.278, -6.042e-7, -3.424e-7, 2.618e-7
0.277, -6.042e-7, -3.424e-7, 2.618e-7
0.276, -6.073e-7, -3.424e-7, 2.648e-7
0.275, -6.073e-7, -3.455e-7, 2.618e-7
0.274, -6.073e-7, -3.455e-7, 2.618e-7
0.273, -6.042e-7, -3.424e-7, 2.618e-7
0.272, -6.073e-7, -3.455e-7, 2.618e-7
0.271, -6.103e-7, -3.455e-7, 2.648e-7
0.270, -6.134e-7, -3.485e-7, 2.648e-7
0.269, -6.134e-7, -3.485e-7, 2.648e-7
0.268, -6.134e-7, -3.455e-7, 2.679e-7
0.267, -6.134e-7, -3.485e-7, 2.648e-7
0.266, -6.134e-7, -3.485e-7, 2.648e-7
0.265, -6.164e-7, -3.485e-7, 2.679e-7
0.264, -6.164e-7, -3.516e-7, 2.648e-7
0.263, -6.164e-7, -3.516e-7, 2.648e-7
0.262, -6.164e-7, -3.485e-7, 2.679e-7
0.261, -6.195e-7, -3.516e-7, 2.679e-7
0.260, -6.225e-7, -3.546e-7, 2.679e-7
0.259, -6.195e-7, -3.516e-7, 2.679e-7
0.258, -6.225e-7, -3.546e-7, 2.679e-7
0.257, -6.256e-7, -3.546e-7, 2.709e-7
0.256, -6.256e-7, -3.546e-7, 2.709e-7
0.255, -6.225e-7, -3.546e-7, 2.679e-7
0.254, -6.317e-7, -3.607e-7, 2.709e-7
0.253, -6.286e-7, -3.546e-7, 2.740e-7
0.252, -6.286e-7, -3.577e-7, 2.709e-7
0.251, -6.347e-7, -3.607e-7, 2.740e-7
0.250, -6.317e-7, -3.577e-7, 2.740e-7
0.249, -6.286e-7, -3.577e-7, 2.709e-7
0.248, -6.347e-7, -3.607e-7, 2.740e-7
0.247, -6.347e-7, -3.607e-7, 2.740e-7
0.246, -6.317e-7, -3.607e-7, 2.709e-7
0.245, -6.378e-7, -3.638e-7, 2.740e-7
0.244, -6.347e-7, -3.607e-7, 2.740e-7
0.243, -6.378e-7, -3.638e-7, 2.740e-7
0.242, -6.378e-7, -3.638e-7, 2.740e-7
0.241, -6.408e-7, -3.638e-7, 2.771e-7
0.240, -6.378e-7, -3.638e-7, 2.740e-7
0.239, -6.408e-7, -3.638e-7, 2.771e-7
0.238, -6.439e-7, -3.668e-7, 2.771e-7
0.237, -6.439e-7, -3.668e-7, 2.771e-7
0.236, -6.439e-7, -3.668e-7, 2.771e-7
0.235, -6.439e-7, -3.668e-7, 2.771e-7
0.234, -6.469e-7, -3.699e-7, 2.771e-7
0.233, -6.500e-7, -3.699e-7, 2.801e-7
0.232, -6.469e-7, -3.699e-7, 2.771e-7
0.231, -6.500e-7, -3.699e-7, 2.801e-7
0.230, -6.500e-7, -3.699e-7, 2.801e-7
0.229, -6.530e-7, -3.729e-7, 2.801e-7
0.228, -6.530e-7, -3.729e-7, 2.801e-7
0.227, -6.530e-7, -3.729e-7, 2.801e-7
0.226, -6.530e-7, -3.729e-7, 2.801e-7
0.225, -6.561e-7, -3.729e-7, 2.832e-7
0.224, -6.591e-7, -3.760e-7, 2.832e-7
0.223, -6.591e-7, -3.760e-7, 2.832e-7
0.222, -6.591e-7, -3.760e-7, 2.832e-7
0.221, -6.591e-7, -3.760e-7, 2.832e-7
0.220, -6.652e-7, -3.790e-7, 2.862e-7
0.219, -6.622e-7, -3.790e-7, 2.832e-7
0.218, -6.652e-7, -3.821e-7, 2.832e-7
0.217, -6.683e-7, -3.821e-7, 2.862e-7
0.216, -6.652e-7, -3.790e-7, 2.862e-7
0.215, -6.652e-7, -3.821e-7, 2.832e-7
0.214, -6.683e-7, -3.821e-7, 2.862e-7
0.213, -6.683e-7, -3.821e-7, 2.862e-7
0.212, -6.713e-7, -3.851e-7, 2.862e-7
0.211, -6.805e-7, -3.882e-7, 2.923e-7
0.210, -6.744e-7, -3.851e-7, 2.893e-7
0.209, -6.775e-7, -3.882e-7, 2.893e-7
0.208, -6.775e-7, -3.882e-7, 2.893e-7
0.207, -6.775e-7, -3.882e-7, 2.893e-7
0.206, -6.805e-7, -3.912e-7, 2.893e-7
0.205, -6.805e-7, -3.882e-7, 2.923e-7
0.204, -6.836e-7, -3.912e-7, 2.923e-7
0.203, -6.836e-7, -3.912e-7, 2.923e-7
0.202, -6.866e-7, -3.912e-7, 2.954e-7
0.201, -6.836e-7, -3.912e-7, 2.923e-7
0.200, -6.866e-7, -3.943e-7, 2.923e-7
0.199, -6.897e-7, -3.943e-7, 2.954e-7
0.198, -6.897e-7, -3.943e-7, 2.954e-7
0.197, -6.897e-7, -3.943e-7, 2.954e-7
0.196, -6.958e-7, -3.973e-7, 2.984e-7
0.195, -6.927e-7, -3.973e-7, 2.954e-7
0.194, -6.988e-7, -4.004e-7, 2.984e-7
0.193, -6.988e-7, -4.004e-7, 2.984e-7
0.192, -7.019e-7, -4.035e-7, 2.984e-7
0.191, -7.019e-7, -4.035e-7, 2.984e-7
0.190, -7.049e-7, -4.035e-7, 3.015e-7
0.189, -7.080e-7, -4.065e-7, 3.015e-7
0.188, -7.080e-7, -4.065e-7, 3.015e-7
0.187, -7.110e-7, -4.065e-7, 3.045e-7
0.186, -7.080e-7, -4.065e-7, 3.015e-7
0.185, -7.141e-7, -4.096e-7, 3.045e-7
0.184, -7.141e-7, -4.096e-7, 3.045e-7
0.183, -7.141e-7, -4.096e-7, 3.045e-7
0.182, -7.171e-7, -4.096e-7, 3.076e-7
0.181, -7.171e-7, -4.126e-7, 3.045e-7
0.180, -7.202e-7, -4.126e-7, 3.076e-7
0.179, -7.202e-7, -4.126e-7, 3.076e-7
0.178, -7.232e-7, -4.157e-7, 3.076e-7
0.177, -7.232e-7, -4.157e-7, 3.076e-7
0.176, -7.263e-7, -4.157e-7, 3.106e-7
0.175, -7.232e-7, -4.157e-7, 3.076e-7
0.174, -7.293e-7, -4.187e-7, 3.106e-7
0.173, -7.324e-7, -4.218e-7, 3.106e-7
0.172, -7.324e-7, -4.218e-7, 3.106e-7
0.171, -7.354e-7, -4.218e-7, 3.137e-7
0.170, -7.385e-7, -4.248e-7, 3.137e-7
0.169, -7.385e-7, -4.248e-7, 3.137e-7
0.168, -7.385e-7, -4.218e-7, 3.167e-7
0.167, -7.385e-7, -4.248e-7, 3.137e-7
0.166, -7.415e-7, -4.279e-7, 3.137e-7
0.165, -7.446e-7, -4.279e-7, 3.167e-7
0.164, -7.415e-7, -4.279e-7, 3.137e-7
0.163, -7.476e-7, -4.309e-7, 3.167e-7
0.162, -7.476e-7, -4.279e-7, 3.198e-7
0.161, -7.507e-7, -4.309e-7, 3.198e-7
0.160, -7.537e-7, -4.340e-7, 3.198e-7
0.159, -7.537e-7, -4.340e-7, 3.198e-7
0.158, -7.568e-7, -4.370e-7, 3.198e-7
0.157, -7.598e-7, -4.370e-7, 3.228e-7
0.156, -7.629e-7, -4.370e-7, 3.259e-7
0.155, -7.629e-7, -4.401e-7, 3.228e-7
0.154, -7.659e-7, -4.401e-7, 3.259e-7
0.153, -7.659e-7, -4.401e-7, 3.259e-7
0.152, -7.659e-7, -4.431e-7, 3.228e-7
0.151, -7.690e-7, -4.431e-7, 3.259e-7
0.150, -7.690e-7, -4.431e-7, 3.259e-7
0.149, -7.721e-7, -4.462e-7, 3.259e-7
0.148, -7.751e-7, -4.462e-7, 3.289e-7
0.147, -7.751e-7, -4.462e-7, 3.289e-7
0.146, -7.782e-7, -4.492e-7, 3.289e-7
0.145, -7.812e-7, -4.492e-7, 3.320e-7
0.144, -7.812e-7, -4.492e-7, 3.320e-7
0.143, -7.843e-7, -4.523e-7, 3.320e-7
0.142, -7.843e-7, -4.523e-7, 3.320e-7
0.141, -7.873e-7, -4.553e-7, 3.320e-7
0.140, -7.934e-7, -4.584e-7, 3.350e-7
0.139, -7.904e-7, -4.553e-7, 3.350e-7
0.138, -7.934e-7, -4.584e-7, 3.350e-7
0.137, -7.965e-7, -4.614e-7, 3.350e-7
0.136, -7.965e-7, -4.584e-7, 3.381e-7
0.135, -7.995e-7, -4.614e-7, 3.381e-7
0.134, -7.995e-7, -4.614e-7, 3.381e-7
0.133, -8.026e-7, -4.645e-7, 3.381e-7
0.132, -8.056e-7, -4.645e-7, 3.411e-7
0.131, -8.056e-7, -4.645e-7, 3.411e-7
0.130, -8.087e-7, -4.675e-7, 3.411e-7
0.129, -8.117e-7, -4.675e-7, 3.442e-7
0.128, -8.148e-7, -4.706e-7, 3.442e-7
0.127, -8.148e-7, -4.706e-7, 3.442e-7
0.126, -8.178e-7, -4.736e-7, 3.442e-7
0.125, -8.209e-7, -4.736e-7, 3.472e-7
0.124, -8.239e-7, -4.767e-7, 3.472e-7
0.123, -8.239e-7, -4.767e-7, 3.472e-7
0.122, -8.239e-7, -4.767e-7, 3.472e-7
0.121, -8.300e-7, -4.797e-7, 3.503e-7
0.120, -8.300e-7, -4.797e-7, 3.503e-7
0.119, -8.331e-7, -4.797e-7, 3.533e-7
0.118, -8.361e-7, -4.858e-7, 3.503e-7
0.117, -8.392e-7, -4.858e-7, 3.533e-7
0.116, -8.422e-7, -4.858e-7, 3.564e-7
0.115, -8.422e-7, -4.889e-7, 3.533e-7
0.114, -8.453e-7, -4.889e-7, 3.564e-7
0.113, -8.453e-7, -4.889e-7, 3.564e-7
0.112, -8.514e-7, -4.950e-7, 3.564e-7
0.111, -8.544e-7, -4.950e-7, 3.594e-7
0.110, -8.544e-7, -4.950e-7, 3.594e-7
0.109, -8.575e-7, -4.981e-7, 3.594e-7
0.108, -8.575e-7, -4.950e-7, 3.625e-7
0.107, -8.575e-7, -4.981e-7, 3.594e-7
0.106, -8.636e-7, -5.011e-7, 3.625e-7
0.105, -8.666e-7, -5.011e-7, 3.655e-7
0.104, -8.697e-7, -5.042e-7, 3.655e-7
0.103, -8.728e-7, -5.042e-7, 3.686e-7
0.102, -8.789e-7, -5.072e-7, 3.716e-7
0.101, -8.758e-7, -5.072e-7, 3.686e-7
0.100, -8.819e-7, -5.103e-7, 3.716e-7
0.099, -8.850e-7, -5.103e-7, 3.747e-7
0.098, -8.880e-7, -5.164e-7, 3.716e-7
0.097, -8.911e-7, -5.164e-7, 3.747e-7
0.096, -8.941e-7, -5.164e-7, 3.778e-7
0.095, -8.941e-7, -5.164e-7, 3.778e-7
0.094, -8.972e-7, -5.194e-7, 3.778e-7
0.093, -9.033e-7, -5.225e-7, 3.808e-7
0.092, -9.063e-7, -5.255e-7, 3.808e-7
0.091, -9.094e-7, -5.255e-7, 3.839e-7
0.090, -9.094e-7, -5.286e-7, 3.808e-7
0.089, -9.124e-7, -5.286e-7, 3.839e-7
0.088, -9.185e-7, -5.316e-7, 3.869e-7
0.087, -9.185e-7, -5.316e-7, 3.869e-7
0.086, -9.216e-7, -5.347e-7, 3.869e-7
0.085, -9.246e-7, -5.347e-7, 3.900e-7
0.084, -9.246e-7, -5.347e-7, 3.900e-7
0.083, -9.277e-7, -5.377e-7, 3.900e-7
0.082, -9.338e-7, -5.408e-7, 3.930e-7
0.081, -9.338e-7, -5.408e-7, 3.930e-7
0.080, -9.399e-7, -5.438e-7, 3.961e-7
0.079, -9.399e-7, -5.438e-7, 3.961e-7
0.078, -9.490e-7, -5.499e-7, 3.991e-7
0.077, -9.460e-7, -5.469e-7, 3.991e-7
0.076, -9.521e-7, -5.499e-7, 4.022e-7
0.075, -9.551e-7, -5.530e-7, 4.022e-7
0.074, -9.582e-7, -5.530e-7, 4.052e-7
0.073, -9.582e-7, -5.560e-7, 4.022e-7
0.072, -9.643e-7, -5.591e-7, 4.052e-7
0.071, -9.643e-7, -5.560e-7, 4.083e-7
0.070, -9.674e-7, -5.591e-7, 4.083e-7
0.069, -9.735e-7, -5.621e-7, 4.113e-7
0.068, -9.735e-7, -5.621e-7, 4.113e-7
0.067, -9.765e-7, -5.652e-7, 4.113e-7
0.066, -9.826e-7, -5.682e-7, 4.144e-7
0.065, -9.857e-7, -5.682e-7, 4.174e-7
0.064, -9.887e-7, -5.713e-7, 4.174e-7
0.063, -9.948e-7, -5.743e-7, 4.205e-7
0.062, -9.948e-7, -5.713e-7, 4.235e-7
0.061, -9.948e-7, -5.743e-7, 4.205e-7
0.060, -1.001e-6, -5.774e-7, 4.235e-7
0.059, -1.004e-6, -5.774e-7, 4.266e-7
0.058, -1.004e-6, -5.804e-7, 4.235e-7
0.057, -1.010e-6, -5.835e-7, 4.266e-7
0.056, -1.010e-6, -5.804e-7, 4.296e-7
0.055, -1.016e-6, -5.865e-7, 4.296e-7
0.054, -1.019e-6, -5.865e-7, 4.327e-7
0.053, -1.019e-6, -5.865e-7, 4.327e-7
0.052, -1.022e-6, -5.896e-7, 4.327e-7
0.051, -1.025e-6, -5.896e-7, 4.357e-7
0.050, -1.031e-6, -5.927e-7, 4.388e-7
0.049, -1.031e-6, -5.927e-7, 4.388e-7
0.048, -1.038e-6, -5.957e-7, 4.418e-7
0.047, -1.038e-6, -5.957e-7, 4.418e-7
0.046, -1.041e-6, -5.988e-7, 4.418e-7
0.045, -1.044e-6, -5.988e-7, 4.449e-7
0.044, -1.050e-6, -6.018e-7, 4.479e-7
0.043, -1.050e-6, -6.018e-7, 4.479e-7
0.042, -1.053e-6, -6.018e-7, 4.510e-7
0.041, -1.056e-6, -6.049e-7, 4.510e-7
0.040, -1.056e-6, -6.049e-7, 4.510e-7
0.039, -1.062e-6, -6.079e-7, 4.540e-7
0.038, -1.062e-6, -6.079e-7, 4.540e-7
0.037, -1.068e-6, -6.110e-7, 4.571e-7
0.036, -1.071e-6, -6.110e-7, 4.601e-7
0.035, -1.077e-6, -6.140e-7, 4.632e-7
0.034, -1.077e-6, -6.140e-7, 4.632e-7
0.033, -1.080e-6, -6.171e-7, 4.632e-7
0.032, -1.083e-6, -6.171e-7, 4.662e-7
0.031, -1.083e-6, -6.171e-7, 4.662e-7
0.030, -1.086e-6, -6.201e-7, 4.662e-7
0.029, -1.089e-6, -6.201e-7, 4.693e-7
0.028, -1.092e-6, -6.201e-7, 4.723e-7
0.027, -1.096e-6, -6.232e-7, 4.723e-7
0.026, -1.102e-6, -6.262e-7, 4.754e-7
0.025, -1.102e-6, -6.262e-7, 4.754e-7
0.024, -1.105e-6, -6.293e-7, 4.754e-7
0.023, -1.111e-6, -6.293e-7, 4.815e-7
0.022, -1.111e-6, -6.293e-7, 4.815e-7
0.021, -1.117e-6, -6.354e-7, 4.815e-7
0.020, -1.120e-6, -6.323e-7, 4.876e-7
0.019, -1.120e-6, -6.354e-7, 4.846e-7
0.018, -1.126e-6, -6.384e-7, 4.876e-7
0.017, -1.129e-6, -6.384e-7, 4.907e-7
0.016, -1.129e-6, -6.384e-7, 4.907e-7
0.015, -1.132e-6, -6.415e-7, 4.907e-7
0.014, -1.138e-6, -6.415e-7, 4.968e-7
0.013, -1.135e-6, -6.384e-7, 4.968e-7
0.012, -1.138e-6, -6.415e-7, 4.968e-7
0.011, -1.147e-6, -6.476e-7, 4.998e-7
0.010, -1.144e-6, -6.415e-7, 5.029e-7
0.009, -1.150e-6, -6.476e-7, 5.029e-7
0.008, -1.153e-6, -6.476e-7, 5.059e-7
0.007, -1.153e-6, -6.476e-7, 5.059e-7
0.006, -1.157e-6, -6.506e-7, 5.059e-7
0.005, -1.163e-6, -6.506e-7, 5.120e-7
0.004, -1.163e-6, -6.506e-7, 5.120e-7
0.003, -1.166e-6, -6.537e-7, 5.120e-7
0.002, -1.169e-6, -6.537e-7, 5.151e-7
0.001, -1.169e-6, -6.537e-7, 5.151e-7
0.000, -1.178e-6, -6.567e-7, 5.212e-7
-0.001, -1.178e-6, -6.567e-7, 5.212e-7
-0.002, -1.181e-6, -6.567e-7, 5.242e-7
-0.003, -1.184e-6, -6.598e-7, 5.242e-7
-0.004, -1.184e-6, -6.598e-7, 5.242e-7
-0.005, -1.187e-6, -6.598e-7, 5.273e-7
-0.006, -1.193e-6, -6.628e-7, 5.303e-7
-0.007, -1.196e-6, -6.628e-7, 5.334e-7
-0.008, -1.196e-6, -6.628e-7, 5.334e-7
-0.009, -1.199e-6, -6.628e-7, 5.364e-7
-0.010, -1.202e-6, -6.659e-7, 5.364e-7
-0.011, -1.202e-6, -6.628e-7, 5.395e-7
-0.012, -1.208e-6, -6.659e-7, 5.425e-7
-0.013, -1.208e-6, -6.689e-7, 5.395e-7
-0.014, -1.211e-6, -6.689e-7, 5.425e-7
-0.015, -1.211e-6, -6.659e-7, 5.456e-7
-0.016, -1.215e-6, -6.689e-7, 5.456e-7
-0.017, -1.221e-6, -6.720e-7, 5.486e-7
-0.018, -1.218e-6, -6.689e-7, 5.486e-7
-0.019, -1.224e-6, -6.720e-7, 5.517e-7
-0.020, -1.224e-6, -6.689e-7, 5.547e-7
-0.021, -1.227e-6, -6.689e-7, 5.578e-7
-0.022, -1.227e-6, -6.720e-7, 5.547e-7
-0.023, -1.230e-6, -6.720e-7, 5.578e-7
-0.024, -1.230e-6, -6.720e-7, 5.578e-7
-0.025, -1.236e-6, -6.750e-7, 5.608e-7
-0.026, -1.236e-6, -6.720e-7, 5.639e-7
-0.027, -1.236e-6, -6.720e-7, 5.639e-7
-0.028, -1.242e-6, -6.750e-7, 5.669e-7
-0.029, -1.245e-6, -6.750e-7, 5.700e-7
-0.030, -1.242e-6, -6.750e-7, 5.669e-7
-0.031, -1.248e-6, -6.781e-7, 5.700e-7
-0.032, -1.242e-6, -6.720e-7, 5.700e-7
-0.033, -1.248e-6, -6.750e-7, 5.731e-7
-0.034, -1.251e-6, -6.781e-7, 5.731e-7
-0.035, -1.251e-6, -6.750e-7, 5.761e-7
-0.036, -1.251e-6, -6.750e-7, 5.761e-7
-0.037, -1.257e-6, -6.781e-7, 5.792e-7
-0.038, -1.257e-6, -6.750e-7, 5.822e-7
-0.039, -1.254e-6, -6.750e-7, 5.792e-7
-0.040, -1.257e-6, -6.750e-7, 5.822e-7
-0.041, -1.260e-6, -6.750e-7, 5.853e-7
-0.042, -1.260e-6, -6.750e-7, 5.853e-7
-0.043, -1.263e-6, -6.750e-7, 5.883e-7
-0.044, -1.263e-6, -6.750e-7, 5.883e-7
-0.045, -1.263e-6, -6.750e-7, 5.883e-7
-0.046, -1.266e-6, -6.750e-7, 5.914e-7
-0.047, -1.266e-6, -6.750e-7, 5.914e-7
-0.048, -1.266e-6, -6.750e-7, 5.914e-7
-0.049, -1.269e-6, -6.750e-7, 5.944e-7
-0.050, -1.266e-6, -6.720e-7, 5.944e-7
-0.051, -1.269e-6, -6.720e-7, 5.975e-7
-0.052, -1.269e-6, -6.720e-7, 5.975e-7
-0.053, -1.269e-6, -6.720e-7, 5.975e-7
-0.054, -1.273e-6, -6.720e-7, 6.005e-7
-0.055, -1.269e-6, -6.689e-7, 6.005e-7
-0.056, -1.269e-6, -6.689e-7, 6.005e-7
-0.057, -1.273e-6, -6.689e-7, 6.036e-7
-0.058, -1.276e-6, -6.689e-7, 6.066e-7
-0.059, -1.273e-6, -6.689e-7, 6.036e-7
-0.060, -1.279e-6, -6.720e-7, 6.066e-7
-0.061, -1.273e-6, -6.659e-7, 6.066e-7
-0.062, -1.276e-6, -6.659e-7, 6.097e-7
-0.063, -1.279e-6, -6.689e-7, 6.097e-7
-0.064, -1.276e-6, -6.659e-7, 6.097e-7
-0.065, -1.279e-6, -6.659e-7, 6.127e-7
-0.066, -1.276e-6, -6.628e-7, 6.127e-7
-0.067, -1.276e-6, -6.628e-7, 6.127e-7
-0.068, -1.279e-6, -6.659e-7, 6.127e-7
-0.069, -1.276e-6, -6.598e-7, 6.158e-7
-0.070, -1.279e-6, -6.659e-7, 6.127e-7
-0.071, -1.279e-6, -6.628e-7, 6.158e-7
-0.072, -1.276e-6, -6.598e-7, 6.158e-7
-0.073, -1.279e-6, -6.628e-7, 6.158e-7
-0.074, -1.282e-6, -6.598e-7, 6.219e-7
-0.075, -1.276e-6, -6.567e-7, 6.188e-7
-0.076, -1.276e-6, -6.567e-7, 6.188e-7
-0.077, -1.279e-6, -6.567e-7, 6.219e-7
-0.078, -1.273e-6, -6.537e-7, 6.188e-7
-0.079, -1.279e-6, -6.567e-7, 6.219e-7
-0.080, -1.279e-6, -6.537e-7, 6.249e-7
-0.081, -1.276e-6, -6.537e-7, 6.219e-7
-0.082, -1.276e-6, -6.537e-7, 6.219e-7
-0.083, -1.282e-6, -6.537e-7, 6.280e-7
-0.084, -1.273e-6, -6.506e-7, 6.219e-7
-0.085, -1.276e-6, -6.506e-7, 6.249e-7
-0.086, -1.279e-6, -6.506e-7, 6.280e-7
-0.087, -1.276e-6, -6.476e-7, 6.280e-7
-0.088, -1.276e-6, -6.476e-7, 6.280e-7
-0.089, -1.276e-6, -6.476e-7, 6.280e-7
-0.090, -1.273e-6, -6.445e-7, 6.280e-7
-0.091, -1.273e-6, -6.445e-7, 6.280e-7
-0.092, -1.276e-6, -6.445e-7, 6.310e-7
-0.093, -1.269e-6, -6.415e-7, 6.280e-7
-0.094, -1.273e-6, -6.415e-7, 6.310e-7
-0.095, -1.273e-6, -6.415e-7, 6.310e-7
-0.096, -1.269e-6, -6.384e-7, 6.310e-7
-0.097, -1.269e-6, -6.384e-7, 6.310e-7
-0.098, -1.269e-6, -6.354e-7, 6.341e-7
-0.099, -1.266e-6, -6.354e-7, 6.310e-7
-0.100, -1.269e-6, -6.354e-7, 6.341e-7
-0.101, -1.263e-6, -6.323e-7, 6.310e-7
-0.102, -1.266e-6, -6.323e-7, 6.341e-7
-0.103, -1.269e-6, -6.323e-7, 6.371e-7
-0.104, -1.263e-6, -6.293e-7, 6.341e-7
-0.105, -1.263e-6, -6.293e-7, 6.341e-7
-0.106, -1.266e-6, -6.293e-7, 6.371e-7
-0.107, -1.263e-6, -6.293e-7, 6.341e-7
-0.108, -1.260e-6, -6.262e-7, 6.341e-7
-0.109, -1.263e-6, -6.262e-7, 6.371e-7
-0.110, -1.263e-6, -6.262e-7, 6.371e-7
-0.111, -1.257e-6, -6.232e-7, 6.341e-7
-0.112, -1.260e-6, -6.232e-7, 6.371e-7
-0.113, -1.257e-6, -6.232e-7, 6.341e-7
-0.114, -1.257e-6, -6.201e-7, 6.371e-7
-0.115, -1.254e-6, -6.201e-7, 6.341e-7
-0.116, -1.251e-6, -6.171e-7, 6.341e-7
-0.117, -1.251e-6, -6.171e-7, 6.341e-7
-0.118, -1.248e-6, -6.140e-7, 6.341e-7
-0.119, -1.251e-6, -6.140e-7, 6.371e-7
-0.120, -1.248e-6, -6.110e-7, 6.371e-7
-0.121, -1.245e-6, -6.110e-7, 6.341e-7
-0.122, -1.242e-6, -6.079e-7, 6.341e-7
-0.123, -1.242e-6, -6.049e-7, 6.371e-7
-0.124, -1.242e-6, -6.079e-7, 6.341e-7
-0.125, -1.239e-6, -6.049e-7, 6.341e-7
-0.126, -1.239e-6, -6.018e-7, 6.371e-7
-0.127, -1.239e-6, -6.049e-7, 6.341e-7
-0.128, -1.239e-6, -6.049e-7, 6.341e-7
-0.129, -1.236e-6, -6.018e-7, 6.341e-7
-0.130, -1.230e-6, -5.988e-7, 6.310e-7
-0.131, -1.233e-6, -5.988e-7, 6.341e-7
-0.132, -1.230e-6, -5.957e-7, 6.341e-7
-0.133, -1.227e-6, -5.957e-7, 6.310e-7
-0.134, -1.227e-6, -5.957e-7, 6.310e-7
-0.135, -1.221e-6, -5.896e-7, 6.310e-7
-0.136, -1.221e-6, -5.927e-7, 6.280e-7
-0.137, -1.221e-6, -5.896e-7, 6.310e-7
-0.138, -1.221e-6, -5.896e-7, 6.310e-7
-0.139, -1.215e-6, -5.866e-7, 6.280e-7
-0.140, -1.218e-6, -5.866e-7, 6.310e-7
-0.141, -1.215e-6, -5.835e-7, 6.310e-7
-0.142, -1.211e-6, -5.835e-7, 6.280e-7
-0.143, -1.208e-6, -5.804e-7, 6.280e-7
-0.144, -1.208e-6, -5.804e-7, 6.280e-7
-0.145, -1.208e-6, -5.866e-7, 6.219e-7
-0.146, -1.205e-6, -5.774e-7, 6.280e-7
-0.147, -1.202e-6, -5.774e-7, 6.249e-7
-0.148, -1.199e-6, -5.743e-7, 6.249e-7
-0.149, -1.196e-6, -5.713e-7, 6.249e-7
-0.150, -1.193e-6, -5.713e-7, 6.219e-7
-0.151, -1.196e-6, -5.713e-7, 6.249e-7
-0.152, -1.190e-6, -5.682e-7, 6.219e-7
-0.153, -1.190e-6, -5.682e-7, 6.219e-7
-0.154, -1.187e-6, -5.652e-7, 6.219e-7
-0.155, -1.184e-6, -5.652e-7, 6.188e-7
-0.156, -1.184e-6, -5.652e-7, 6.188e-7
-0.157, -1.184e-6, -5.652e-7, 6.188e-7
-0.158, -1.178e-6, -5.591e-7, 6.188e-7
-0.159, -1.178e-6, -5.591e-7, 6.188e-7
-0.160, -1.175e-6, -5.591e-7, 6.158e-7
-0.161, -1.172e-6, -5.560e-7, 6.158e-7
-0.162, -1.172e-6, -5.560e-7, 6.158e-7
-0.163, -1.169e-6, -5.560e-7, 6.127e-7
-0.164, -1.166e-6, -5.530e-7, 6.127e-7
-0.165, -1.163e-6, -5.499e-7, 6.127e-7
-0.166, -1.163e-6, -5.499e-7, 6.127e-7
-0.167, -1.160e-6, -5.499e-7, 6.097e-7
-0.168, -1.160e-6, -5.469e-7, 6.127e-7
-0.169, -1.157e-6, -5.469e-7, 6.097e-7
-0.170, -1.153e-6, -5.469e-7, 6.066e-7
-0.171, -1.157e-6, -5.469e-7, 6.097e-7
-0.172, -1.150e-6, -5.438e-7, 6.066e-7
-0.173, -1.150e-6, -5.469e-7, 6.036e-7
-0.174, -1.147e-6, -5.408e-7, 6.066e-7
-0.175, -1.141e-6, -5.377e-7, 6.036e-7
-0.176, -1.147e-6, -5.438e-7, 6.036e-7
-0.177, -1.141e-6, -5.377e-7, 6.036e-7
-0.178, -1.135e-6, -5.347e-7, 6.005e-7
-0.179, -1.138e-6, -5.377e-7, 6.005e-7
-0.180, -1.132e-6, -5.316e-7, 6.005e-7
-0.181, -1.129e-6, -5.316e-7, 5.975e-7
-0.182, -1.132e-6, -5.347e-7, 5.975e-7
-0.183, -1.129e-6, -5.316e-7, 5.975e-7
-0.184, -1.126e-6, -5.286e-7, 5.975e-7
-0.185, -1.123e-6, -5.286e-7, 5.944e-7
-0.186, -1.126e-6, -5.286e-7, 5.975e-7
-0.187, -1.120e-6, -5.255e-7, 5.944e-7
-0.188, -1.123e-6, -5.286e-7, 5.944e-7
-0.189, -1.120e-6, -5.255e-7, 5.944e-7
-0.190, -1.114e-6, -5.225e-7, 5.914e-7
-0.191, -1.117e-6, -5.255e-7, 5.914e-7
-0.192, -1.114e-6, -5.225e-7, 5.914e-7
-0.193, -1.111e-6, -5.225e-7, 5.883e-7
-0.194, -1.111e-6, -5.225e-7, 5.883e-7
-0.195, -1.108e-6, -5.194e-7, 5.883e-7
-0.196, -1.102e-6, -5.164e-7, 5.853e-7
-0.197, -1.108e-6, -5.225e-7, 5.853e-7
-0.198, -1.105e-6, -5.194e-7, 5.853e-7
-0.199, -1.102e-6, -5.194e-7, 5.822e-7
-0.200, -1.099e-6, -5.164e-7, 5.822e-7
-0.201, -1.096e-6, -5.164e-7, 5.792e-7
-0.202, -1.096e-6, -5.164e-7, 5.792e-7
-0.203, -1.096e-6, -5.164e-7, 5.792e-7
-0.204, -1.089e-6, -5.103e-7, 5.792e-7
-0.205, -1.092e-6, -5.133e-7, 5.792e-7
-0.206, -1.089e-6, -5.133e-7, 5.761e-7
-0.207, -1.089e-6, -5.133e-7, 5.761e-7
-0.208, -1.086e-6, -5.103e-7, 5.761e-7
-0.209, -1.080e-6, -5.072e-7, 5.730e-7
-0.210, -1.083e-6, -5.103e-7, 5.730e-7
-0.211, -1.083e-6, -5.103e-7, 5.730e-7
-0.212, -1.077e-6, -5.072e-7, 5.700e-7
-0.213, -1.077e-6, -5.072e-7, 5.700e-7
-0.214, -1.074e-6, -5.042e-7, 5.700e-7
-0.215, -1.074e-6, -5.042e-7, 5.700e-7
-0.216, -1.074e-6, -5.042e-7, 5.700e-7
-0.217, -1.071e-6, -5.042e-7, 5.669e-7
-0.218, -1.065e-6, -5.011e-7, 5.639e-7
-0.219, -1.074e-6, -5.072e-7, 5.669e-7
-0.220, -1.065e-6, -5.011e-7, 5.639e-7
-0.221, -1.065e-6, -5.011e-7, 5.639e-7
-0.222, -1.059e-6, -4.981e-7, 5.608e-7
-0.223, -1.062e-6, -4.981e-7, 5.639e-7
-0.224, -1.056e-6, -4.981e-7, 5.578e-7
-0.225, -1.059e-6, -4.981e-7, 5.608e-7
-0.226, -1.059e-6, -4.981e-7, 5.608e-7
-0.227, -1.059e-6, -5.011e-7, 5.578e-7
-0.228, -1.056e-6, -4.981e-7, 5.578e-7
-0.229, -1.053e-6, -4.950e-7, 5.578e-7
-0.230, -1.050e-6, -4.981e-7, 5.517e-7
-0.231, -1.047e-6, -4.950e-7, 5.517e-7
-0.232, -1.044e-6, -4.920e-7, 5.517e-7
-0.233, -1.044e-6, -4.950e-7, 5.486e-7
-0.234, -1.047e-6, -4.950e-7, 5.517e-7
-0.235, -1.044e-6, -4.950e-7, 5.486e-7
-0.236, -1.041e-6, -4.920e-7, 5.486e-7
-0.237, -1.041e-6, -4.920e-7, 5.486e-7
-0.238, -1.044e-6, -4.950e-7, 5.486e-7
-0.239, -1.034e-6, -4.889e-7, 5.456e-7
-0.240, -1.038e-6, -4.920e-7, 5.456e-7
-0.241, -1.028e-6, -4.858e-7, 5.425e-7
-0.242, -1.031e-6, -4.889e-7, 5.425e-7
-0.243, -1.031e-6, -4.889e-7, 5.425e-7
-0.244, -1.025e-6, -4.858e-7, 5.395e-7
-0.245, -1.028e-6, -4.889e-7, 5.395e-7
-0.246, -1.025e-6, -4.858e-7, 5.395e-7
-0.247, -1.022e-6, -4.858e-7, 5.364e-7
-0.248, -1.019e-6, -4.858e-7, 5.334e-7
-0.249, -1.022e-6, -4.858e-7, 5.364e-7
-0.250, -1.022e-6, -4.889e-7, 5.334e-7
-0.251, -1.022e-6, -4.889e-7, 5.334e-7
-0.252, -1.019e-6, -4.858e-7, 5.334e-7
-0.253, -1.013e-6, -4.828e-7, 5.303e-7
-0.254, -1.019e-6, -4.889e-7, 5.303e-7
-0.255, -1.013e-6, -4.828e-7, 5.303e-7
-0.256, -1.007e-6, -4.797e-7, 5.273e-7
-0.257, -1.010e-6, -4.828e-7, 5.273e-7
-0.258, -1.010e-6, -4.828e-7, 5.273e-7
-0.259, -1.007e-6, -4.828e-7, 5.242e-7
-0.260, -1.010e-6, -4.858e-7, 5.242e-7
-0.261, -1.007e-6, -4.828e-7, 5.242e-7
-0.262, -1.004e-6, -4.828e-7, 5.212e-7
-0.263, -1.004e-6, -4.797e-7, 5.242e-7
-0.264, -1.001e-6, -4.797e-7, 5.212e-7
-0.265, -1.001e-6, -4.797e-7, 5.212e-7
-0.266, -9.948e-7, -4.767e-7, 5.181e-7
-0.267, -1.001e-6, -4.828e-7, 5.181e-7
-0.268, -9.948e-7, -4.767e-7, 5.181e-7
-0.269, -9.948e-7, -4.767e-7, 5.181e-7
-0.270, -9.918e-7, -4.767e-7, 5.151e-7
-0.271, -9.918e-7, -4.767e-7, 5.151e-7
-0.272, -9.918e-7, -4.767e-7, 5.151e-7
-0.273, -9.887e-7, -4.767e-7, 5.120e-7
-0.274, -9.918e-7, -4.767e-7, 5.151e-7
-0.275, -9.887e-7, -4.767e-7, 5.120e-7
-0.276, -9.857e-7, -4.767e-7, 5.090e-7
-0.277, -9.857e-7, -4.736e-7, 5.120e-7
-0.278, -9.857e-7, -4.767e-7, 5.090e-7
-0.279, -9.857e-7, -4.797e-7, 5.059e-7
-0.280, -9.826e-7, -4.736e-7, 5.090e-7
-0.281, -9.796e-7, -4.736e-7, 5.059e-7
-0.282, -9.826e-7, -4.767e-7, 5.059e-7
-0.283, -9.826e-7, -4.736e-7, 5.090e-7
-0.284, -9.765e-7, -4.736e-7, 5.029e-7
-0.285, -9.796e-7, -4.767e-7, 5.029e-7
-0.286, -9.826e-7, -4.736e-7, 5.090e-7
-0.287, -9.765e-7, -4.736e-7, 5.029e-7
-0.288, -9.735e-7, -4.736e-7, 4.998e-7
-0.289, -9.765e-7, -4.736e-7, 5.029e-7
-0.290, -9.735e-7, -4.736e-7, 4.998e-7
-0.291, -9.796e-7, -4.767e-7, 5.029e-7
-0.292, -9.735e-7, -4.736e-7, 4.998e-7
-0.293, -9.735e-7, -4.736e-7, 4.998e-7
-0.294, -9.735e-7, -4.767e-7, 4.968e-7
-0.295, -9.735e-7, -4.736e-7, 4.998e-7
-0.296, -9.704e-7, -4.706e-7, 4.998e-7
-0.297, -9.735e-7, -4.767e-7, 4.968e-7
-0.298, -9.704e-7, -4.736e-7, 4.968e-7
-0.299, -9.704e-7, -4.736e-7, 4.968e-7
-0.300, -9.735e-7, -4.767e-7, 4.968e-7
-0.301, -9.704e-7, -4.767e-7, 4.937e-7
-0.302, -9.674e-7, -4.736e-7, 4.937e-7
-0.303, -9.857e-7, -4.920e-7, 4.937e-7
-0.304, -9.674e-7, -4.736e-7, 4.937e-7
-0.305, -9.674e-7, -4.736e-7, 4.937e-7
-0.306, -9.674e-7, -4.736e-7, 4.937e-7
-0.307, -9.643e-7, -4.736e-7, 4.907e-7
-0.308, -9.674e-7, -4.767e-7, 4.907e-7
-0.309, -9.643e-7, -4.736e-7, 4.907e-7
-0.310, -9.643e-7, -4.736e-7, 4.907e-7
-0.311, -9.674e-7, -4.767e-7, 4.907e-7
-0.312, -9.643e-7, -4.736e-7, 4.907e-7
-0.313, -9.674e-7, -4.797e-7, 4.876e-7
-0.314, -9.612e-7, -4.736e-7, 4.876e-7
-0.315, -9.612e-7, -4.736e-7, 4.876e-7
-0.316, -9.643e-7, -4.767e-7, 4.876e-7
-0.317, -9.643e-7, -4.767e-7, 4.876e-7
-0.318, -9.582e-7, -4.736e-7, 4.846e-7
-0.319, -9.612e-7, -4.767e-7, 4.846e-7
-0.320, -9.582e-7, -4.736e-7, 4.846e-7
-0.321, -9.551e-7, -4.736e-7, 4.815e-7
-0.322, -9.582e-7, -4.736e-7, 4.846e-7
-0.323, -9.582e-7, -4.736e-7, 4.846e-7
-0.324, -9.582e-7, -4.767e-7, 4.815e-7
-0.325, -9.551e-7, -4.736e-7, 4.815e-7
-0.326, -9.582e-7, -4.736e-7, 4.846e-7
-0.327, -9.551e-7, -4.736e-7, 4.815e-7
-0.328, -9.612e-7, -4.797e-7, 4.815e-7
-0.329, -9.551e-7, -4.736e-7, 4.815e-7
-0.330, -9.551e-7, -4.767e-7, 4.784e-7
-0.331, -9.551e-7, -4.767e-7, 4.784e-7
-0.332, -9.521e-7, -4.736e-7, 4.784e-7
-0.333, -9.551e-7, -4.797e-7, 4.754e-7
-0.334, -9.521e-7, -4.767e-7, 4.754e-7
-0.335, -9.521e-7, -4.767e-7, 4.754e-7
-0.336, -9.521e-7, -4.767e-7, 4.754e-7
-0.337, -9.521e-7, -4.767e-7, 4.754e-7
-0.338, -9.521e-7, -4.767e-7, 4.754e-7
-0.339, -9.551e-7, -4.828e-7, 4.723e-7
-0.340, -9.521e-7, -4.767e-7, 4.754e-7
-0.341, -9.490e-7, -4.736e-7, 4.754e-7
-0.342, -9.521e-7, -4.797e-7, 4.723e-7
-0.343, -9.521e-7, -4.797e-7, 4.723e-7
-0.344, -9.490e-7, -4.767e-7, 4.723e-7
-0.345, -9.490e-7, -4.767e-7, 4.723e-7
-0.346, -9.490e-7, -4.797e-7, 4.693e-7
-0.347, -9.460e-7, -4.767e-7, 4.693e-7
-0.348, -9.490e-7, -4.797e-7, 4.693e-7
-0.349, -9.490e-7, -4.797e-7, 4.693e-7
-0.350, -9.460e-7, -4.797e-7, 4.662e-7
-0.351, -9.429e-7, -4.767e-7, 4.662e-7
-0.352, -9.460e-7, -4.797e-7, 4.662e-7
-0.353, -9.429e-7, -4.767e-7, 4.662e-7
-0.354, -9.460e-7, -4.797e-7, 4.662e-7
-0.355, -9.460e-7, -4.797e-7, 4.662e-7
-0.356, -9.429e-7, -4.797e-7, 4.632e-7
-0.357, -9.460e-7, -4.797e-7, 4.662e-7
-0.358, -9.429e-7, -4.797e-7, 4.632e-7
-0.359, -9.460e-7, -4.828e-7, 4.632e-7
-0.360, -9.429e-7, -4.797e-7, 4.632e-7
-0.361, -9.429e-7, -4.828e-7, 4.601e-7
-0.362, -9.460e-7, -4.828e-7, 4.632e-7
-0.363, -9.460e-7, -4.828e-7, 4.632e-7
-0.364, -9.429e-7, -4.828e-7, 4.601e-7
-0.365, -9.429e-7, -4.828e-7, 4.601e-7
-0.366, -9.429e-7, -4.828e-7, 4.601e-7
-0.367, -9.399e-7, -4.828e-7, 4.571e-7
-0.368, -9.429e-7, -4.828e-7, 4.601e-7
-0.369, -9.399e-7, -4.828e-7, 4.571e-7
-0.370, -9.429e-7, -4.859e-7, 4.571e-7
-0.371, -9.460e-7, -4.859e-7, 4.601e-7
-0.372, -9.429e-7, -4.859e-7, 4.571e-7
-0.373, -9.429e-7, -4.859e-7, 4.571e-7
-0.374, -9.490e-7, -4.889e-7, 4.601e-7
-0.375, -9.399e-7, -4.828e-7, 4.571e-7
-0.376, -9.429e-7, -4.889e-7, 4.540e-7
-0.377, -9.490e-7, -4.920e-7, 4.571e-7
-0.378, -9.429e-7, -4.889e-7, 4.540e-7
-0.379, -9.460e-7, -4.920e-7, 4.540e-7
-0.380, -9.460e-7, -4.920e-7, 4.540e-7
-0.381, -9.399e-7, -4.859e-7, 4.540e-7
-0.382, -9.490e-7, -4.950e-7, 4.540e-7
-0.383, -9.460e-7, -4.920e-7, 4.540e-7
-0.384, -9.429e-7, -4.920e-7, 4.510e-7
-0.385, -9.460e-7, -4.950e-7, 4.510e-7
-0.386, -9.460e-7, -4.950e-7, 4.510e-7
-0.387, -9.460e-7, -4.950e-7, 4.510e-7
-0.388, -9.460e-7, -4.950e-7, 4.510e-7
-0.389, -9.490e-7, -4.981e-7, 4.510e-7
-0.390, -9.460e-7, -4.950e-7, 4.510e-7
-0.391, -9.460e-7, -4.950e-7, 4.510e-7
-0.392, -9.490e-7, -4.981e-7, 4.510e-7
-0.393, -9.460e-7, -4.981e-7, 4.479e-7
-0.394, -9.490e-7, -4.981e-7, 4.510e-7
-0.395, -9.490e-7, -5.011e-7, 4.479e-7
-0.396, -9.460e-7, -4.981e-7, 4.479e-7
-0.397, -9.460e-7, -4.981e-7, 4.479e-7
-0.398, -9.490e-7, -5.011e-7, 4.479e-7
-0.399, -9.490e-7, -5.042e-7, 4.449e-7
-0.400, -9.490e-7, -5.042e-7, 4.449e-7
