Feb. 28, 2018   15:02:22
Square Wave Voltammetry
File: c:\users\electrochemist\desktop\2018\28022018_unbuffered_9,2\62_e2_9,2_0118_ph9,54_5.txt
Data Source:  Experiment
Instrument Model:  CHI1040A
Header: 
Note: 

Init E (V) = 0.5
Final E (V) = -0.1
Incr E (V) = 0.001
Amplitude (V) = 0.1
Frequency (Hz) = 150
Quiet Time (sec) = 0
Sensitivity (A/V) = 1e-6

Difference:

Forward:

Reverse:

Potential/V, Diff(i/A), For(i/A), Rev(i/A)

0.499, -5.093e-7, -1.081e-7, 4.012e-7
0.498, -5.609e-7, -2.222e-7, 3.387e-7
0.497, -5.487e-7, -2.320e-7, 3.167e-7
0.496, -5.368e-7, -2.344e-7, 3.024e-7
0.495, -5.304e-7, -2.375e-7, 2.929e-7
0.494, -5.252e-7, -2.396e-7, 2.856e-7
0.493, -5.206e-7, -2.396e-7, 2.810e-7
0.492, -5.169e-7, -2.405e-7, 2.764e-7
0.491, -5.142e-7, -2.414e-7, 2.728e-7
0.490, -5.096e-7, -2.411e-7, 2.685e-7
0.489, -5.063e-7, -2.417e-7, 2.645e-7
0.488, -5.053e-7, -2.417e-7, 2.636e-7
0.487, -5.020e-7, -2.411e-7, 2.609e-7
0.486, -5.008e-7, -2.420e-7, 2.587e-7
0.485, -5.026e-7, -2.442e-7, 2.584e-7
0.484, -4.983e-7, -2.417e-7, 2.566e-7
0.483, -4.947e-7, -2.420e-7, 2.526e-7
0.482, -4.971e-7, -2.436e-7, 2.535e-7
0.481, -4.925e-7, -2.414e-7, 2.511e-7
0.480, -4.919e-7, -2.414e-7, 2.505e-7
0.479, -4.916e-7, -2.427e-7, 2.490e-7
0.478, -4.904e-7, -2.427e-7, 2.477e-7
0.477, -4.895e-7, -2.433e-7, 2.462e-7
0.476, -4.892e-7, -2.430e-7, 2.462e-7
0.475, -4.861e-7, -2.423e-7, 2.438e-7
0.474, -4.867e-7, -2.436e-7, 2.432e-7
0.473, -4.843e-7, -2.417e-7, 2.426e-7
0.472, -4.828e-7, -2.417e-7, 2.410e-7
0.471, -4.837e-7, -2.433e-7, 2.404e-7
0.470, -4.837e-7, -2.427e-7, 2.410e-7
0.469, -4.809e-7, -2.427e-7, 2.383e-7
0.468, -4.812e-7, -2.430e-7, 2.383e-7
0.467, -4.822e-7, -2.430e-7, 2.392e-7
0.466, -4.800e-7, -2.427e-7, 2.374e-7
0.465, -4.791e-7, -2.427e-7, 2.364e-7
0.464, -4.806e-7, -2.433e-7, 2.374e-7
0.463, -4.767e-7, -2.423e-7, 2.343e-7
0.462, -4.782e-7, -2.433e-7, 2.349e-7
0.461, -4.791e-7, -2.430e-7, 2.361e-7
0.460, -4.745e-7, -2.427e-7, 2.319e-7
0.459, -4.779e-7, -2.442e-7, 2.337e-7
0.458, -4.770e-7, -2.423e-7, 2.346e-7
0.457, -4.751e-7, -2.436e-7, 2.316e-7
0.456, -4.754e-7, -2.436e-7, 2.319e-7
0.455, -4.751e-7, -2.430e-7, 2.322e-7
0.454, -4.742e-7, -2.430e-7, 2.313e-7
0.453, -4.754e-7, -2.442e-7, 2.313e-7
0.452, -4.751e-7, -2.436e-7, 2.316e-7
0.451, -4.739e-7, -2.430e-7, 2.310e-7
0.450, -4.736e-7, -2.445e-7, 2.291e-7
0.449, -4.727e-7, -2.433e-7, 2.294e-7
0.448, -4.724e-7, -2.436e-7, 2.288e-7
0.447, -4.724e-7, -2.439e-7, 2.285e-7
0.446, -4.721e-7, -2.430e-7, 2.291e-7
0.445, -4.724e-7, -2.451e-7, 2.273e-7
0.444, -4.727e-7, -2.451e-7, 2.276e-7
0.443, -4.721e-7, -2.430e-7, 2.291e-7
0.442, -4.706e-7, -2.439e-7, 2.267e-7
0.441, -4.724e-7, -2.448e-7, 2.276e-7
0.440, -4.718e-7, -2.439e-7, 2.279e-7
0.439, -4.696e-7, -2.445e-7, 2.252e-7
0.438, -4.706e-7, -2.442e-7, 2.264e-7
0.437, -4.727e-7, -2.451e-7, 2.276e-7
0.436, -4.687e-7, -2.448e-7, 2.239e-7
0.435, -4.718e-7, -2.460e-7, 2.258e-7
0.434, -4.696e-7, -2.445e-7, 2.252e-7
0.433, -4.690e-7, -2.439e-7, 2.252e-7
0.432, -4.690e-7, -2.442e-7, 2.249e-7
0.431, -4.696e-7, -2.451e-7, 2.245e-7
0.430, -4.693e-7, -2.457e-7, 2.236e-7
0.429, -4.709e-7, -2.463e-7, 2.245e-7
0.428, -4.681e-7, -2.442e-7, 2.239e-7
0.427, -4.699e-7, -2.460e-7, 2.239e-7
0.426, -4.687e-7, -2.448e-7, 2.239e-7
0.425, -4.702e-7, -2.448e-7, 2.255e-7
0.424, -4.672e-7, -2.463e-7, 2.209e-7
0.423, -4.699e-7, -2.463e-7, 2.236e-7
0.422, -4.669e-7, -2.445e-7, 2.224e-7
0.421, -4.678e-7, -2.457e-7, 2.221e-7
0.420, -4.681e-7, -2.457e-7, 2.224e-7
0.419, -4.687e-7, -2.454e-7, 2.233e-7
0.418, -4.684e-7, -2.460e-7, 2.224e-7
0.417, -4.706e-7, -2.469e-7, 2.236e-7
0.416, -4.693e-7, -2.463e-7, 2.230e-7
0.415, -4.678e-7, -2.463e-7, 2.215e-7
0.414, -4.687e-7, -2.460e-7, 2.227e-7
0.413, -4.687e-7, -2.472e-7, 2.215e-7
0.412, -4.684e-7, -2.472e-7, 2.212e-7
0.411, -4.699e-7, -2.478e-7, 2.221e-7
0.410, -4.687e-7, -2.469e-7, 2.218e-7
0.409, -4.678e-7, -2.472e-7, 2.206e-7
0.408, -4.675e-7, -2.466e-7, 2.209e-7
0.407, -4.678e-7, -2.469e-7, 2.209e-7
0.406, -4.675e-7, -2.478e-7, 2.197e-7
0.405, -4.699e-7, -2.488e-7, 2.212e-7
0.404, -4.693e-7, -2.488e-7, 2.206e-7
0.403, -4.693e-7, -2.481e-7, 2.212e-7
0.402, -4.675e-7, -2.475e-7, 2.200e-7
0.401, -4.678e-7, -2.472e-7, 2.206e-7
0.400, -4.678e-7, -2.488e-7, 2.191e-7
0.399, -4.684e-7, -2.485e-7, 2.200e-7
0.398, -4.681e-7, -2.485e-7, 2.197e-7
0.397, -4.672e-7, -2.488e-7, 2.184e-7
0.396, -4.678e-7, -2.472e-7, 2.206e-7
0.395, -4.706e-7, -2.503e-7, 2.203e-7
0.394, -4.693e-7, -2.506e-7, 2.187e-7
0.393, -4.687e-7, -2.488e-7, 2.200e-7
0.392, -4.699e-7, -2.500e-7, 2.200e-7
0.391, -4.687e-7, -2.491e-7, 2.197e-7
0.390, -4.684e-7, -2.500e-7, 2.184e-7
0.389, -4.693e-7, -2.503e-7, 2.191e-7
0.388, -4.702e-7, -2.509e-7, 2.194e-7
0.387, -4.709e-7, -2.506e-7, 2.203e-7
0.386, -4.702e-7, -2.506e-7, 2.197e-7
0.385, -4.718e-7, -2.515e-7, 2.203e-7
0.384, -4.706e-7, -2.509e-7, 2.197e-7
0.383, -4.709e-7, -2.521e-7, 2.187e-7
0.382, -4.696e-7, -2.512e-7, 2.184e-7
0.381, -4.693e-7, -2.506e-7, 2.187e-7
0.380, -4.702e-7, -2.512e-7, 2.191e-7
0.379, -4.709e-7, -2.527e-7, 2.181e-7
0.378, -4.693e-7, -2.515e-7, 2.178e-7
0.377, -4.721e-7, -2.539e-7, 2.181e-7
0.376, -4.715e-7, -2.530e-7, 2.184e-7
0.375, -4.724e-7, -2.524e-7, 2.200e-7
0.374, -4.709e-7, -2.530e-7, 2.178e-7
0.373, -4.724e-7, -2.527e-7, 2.197e-7
0.372, -4.733e-7, -2.542e-7, 2.191e-7
0.371, -4.736e-7, -2.552e-7, 2.184e-7
0.370, -4.730e-7, -2.539e-7, 2.191e-7
0.369, -4.724e-7, -2.533e-7, 2.191e-7
0.368, -4.733e-7, -2.549e-7, 2.184e-7
0.367, -4.730e-7, -2.549e-7, 2.181e-7
0.366, -4.733e-7, -2.546e-7, 2.187e-7
0.365, -4.748e-7, -2.564e-7, 2.184e-7
0.364, -4.757e-7, -2.561e-7, 2.197e-7
0.363, -4.736e-7, -2.549e-7, 2.187e-7
0.362, -4.754e-7, -2.573e-7, 2.181e-7
0.361, -4.760e-7, -2.561e-7, 2.200e-7
0.360, -4.760e-7, -2.567e-7, 2.194e-7
0.359, -4.748e-7, -2.567e-7, 2.181e-7
0.358, -4.757e-7, -2.573e-7, 2.184e-7
0.357, -4.757e-7, -2.573e-7, 2.184e-7
0.356, -4.767e-7, -2.585e-7, 2.181e-7
0.355, -4.785e-7, -2.579e-7, 2.206e-7
0.354, -4.770e-7, -2.579e-7, 2.191e-7
0.353, -4.773e-7, -2.594e-7, 2.178e-7
0.352, -4.788e-7, -2.591e-7, 2.197e-7
0.351, -4.791e-7, -2.597e-7, 2.194e-7
0.350, -4.782e-7, -2.588e-7, 2.194e-7
0.349, -4.794e-7, -2.594e-7, 2.200e-7
0.348, -4.797e-7, -2.600e-7, 2.197e-7
0.347, -4.815e-7, -2.622e-7, 2.194e-7
0.346, -4.800e-7, -2.604e-7, 2.197e-7
0.345, -4.815e-7, -2.613e-7, 2.203e-7
0.344, -4.828e-7, -2.622e-7, 2.206e-7
0.343, -4.815e-7, -2.616e-7, 2.200e-7
0.342, -4.812e-7, -2.616e-7, 2.197e-7
0.341, -4.837e-7, -2.628e-7, 2.209e-7
0.340, -4.822e-7, -2.610e-7, 2.212e-7
0.339, -4.828e-7, -2.640e-7, 2.187e-7
0.338, -4.846e-7, -2.649e-7, 2.197e-7
0.337, -4.828e-7, -2.631e-7, 2.197e-7
0.336, -4.852e-7, -2.646e-7, 2.206e-7
0.335, -4.861e-7, -2.646e-7, 2.215e-7
0.334, -4.858e-7, -2.649e-7, 2.209e-7
0.333, -4.864e-7, -2.655e-7, 2.209e-7
0.332, -4.876e-7, -2.661e-7, 2.215e-7
0.331, -4.858e-7, -2.649e-7, 2.209e-7
0.330, -4.879e-7, -2.668e-7, 2.212e-7
0.329, -4.892e-7, -2.674e-7, 2.218e-7
0.328, -4.879e-7, -2.665e-7, 2.215e-7
0.327, -4.889e-7, -2.683e-7, 2.206e-7
0.326, -4.904e-7, -2.680e-7, 2.224e-7
0.325, -4.901e-7, -2.680e-7, 2.221e-7
0.324, -4.892e-7, -2.686e-7, 2.206e-7
0.323, -4.916e-7, -2.680e-7, 2.236e-7
0.322, -4.889e-7, -2.665e-7, 2.224e-7
0.321, -4.919e-7, -2.704e-7, 2.215e-7
0.320, -4.937e-7, -2.707e-7, 2.230e-7
0.319, -4.928e-7, -2.695e-7, 2.233e-7
0.318, -4.934e-7, -2.704e-7, 2.230e-7
0.317, -4.947e-7, -2.710e-7, 2.236e-7
0.316, -4.941e-7, -2.707e-7, 2.233e-7
0.315, -4.947e-7, -2.723e-7, 2.224e-7
0.314, -4.965e-7, -2.723e-7, 2.242e-7
0.313, -4.956e-7, -2.719e-7, 2.236e-7
0.312, -4.965e-7, -2.741e-7, 2.224e-7
0.311, -4.986e-7, -2.741e-7, 2.245e-7
0.310, -4.959e-7, -2.719e-7, 2.239e-7
0.309, -4.983e-7, -2.750e-7, 2.233e-7
0.308, -4.998e-7, -2.750e-7, 2.249e-7
0.307, -4.974e-7, -2.738e-7, 2.236e-7
0.306, -5.017e-7, -2.768e-7, 2.249e-7
0.305, -5.017e-7, -2.762e-7, 2.255e-7
0.304, -4.995e-7, -2.744e-7, 2.252e-7
0.303, -5.014e-7, -2.771e-7, 2.242e-7
0.302, -5.044e-7, -2.781e-7, 2.264e-7
0.301, -5.002e-7, -2.750e-7, 2.252e-7
0.300, -5.032e-7, -2.790e-7, 2.242e-7
0.299, -5.044e-7, -2.781e-7, 2.264e-7
0.298, -5.029e-7, -2.781e-7, 2.249e-7
0.297, -5.050e-7, -2.802e-7, 2.249e-7
0.296, -5.066e-7, -2.799e-7, 2.267e-7
0.295, -5.047e-7, -2.793e-7, 2.255e-7
0.294, -5.069e-7, -2.805e-7, 2.264e-7
0.293, -5.087e-7, -2.817e-7, 2.270e-7
0.292, -5.081e-7, -2.811e-7, 2.270e-7
0.291, -5.090e-7, -2.826e-7, 2.264e-7
0.290, -5.102e-7, -2.823e-7, 2.279e-7
0.289, -5.096e-7, -2.820e-7, 2.276e-7
0.288, -5.108e-7, -2.835e-7, 2.273e-7
0.287, -5.111e-7, -2.829e-7, 2.282e-7
0.286, -5.121e-7, -2.835e-7, 2.285e-7
0.285, -5.142e-7, -2.860e-7, 2.282e-7
0.284, -5.130e-7, -2.838e-7, 2.291e-7
0.283, -5.142e-7, -2.848e-7, 2.294e-7
0.282, -5.166e-7, -2.872e-7, 2.294e-7
0.281, -5.145e-7, -2.848e-7, 2.297e-7
0.280, -5.154e-7, -2.863e-7, 2.291e-7
0.279, -5.166e-7, -2.869e-7, 2.297e-7
0.278, -5.194e-7, -2.887e-7, 2.306e-7
0.277, -5.191e-7, -2.875e-7, 2.316e-7
0.276, -5.194e-7, -2.887e-7, 2.306e-7
0.275, -5.215e-7, -2.896e-7, 2.319e-7
0.274, -5.209e-7, -2.900e-7, 2.310e-7
0.273, -5.221e-7, -2.906e-7, 2.316e-7
0.272, -5.230e-7, -2.906e-7, 2.325e-7
0.271, -5.237e-7, -2.912e-7, 2.325e-7
0.270, -5.252e-7, -2.924e-7, 2.328e-7
0.269, -5.246e-7, -2.912e-7, 2.334e-7
0.268, -5.252e-7, -2.933e-7, 2.319e-7
0.267, -5.273e-7, -2.939e-7, 2.334e-7
0.266, -5.270e-7, -2.936e-7, 2.334e-7
0.265, -5.270e-7, -2.945e-7, 2.325e-7
0.264, -5.291e-7, -2.958e-7, 2.334e-7
0.263, -5.295e-7, -2.948e-7, 2.346e-7
0.262, -5.295e-7, -2.958e-7, 2.337e-7
0.261, -5.319e-7, -2.967e-7, 2.352e-7
0.260, -5.322e-7, -2.967e-7, 2.355e-7
0.259, -5.340e-7, -2.985e-7, 2.355e-7
0.258, -5.343e-7, -2.991e-7, 2.352e-7
0.257, -5.337e-7, -2.982e-7, 2.355e-7
0.256, -5.352e-7, -2.994e-7, 2.358e-7
0.255, -5.374e-7, -3.009e-7, 2.364e-7
0.254, -5.371e-7, -2.997e-7, 2.374e-7
0.253, -5.374e-7, -3.006e-7, 2.368e-7
0.252, -5.389e-7, -3.003e-7, 2.386e-7
0.251, -5.389e-7, -3.012e-7, 2.377e-7
0.250, -5.414e-7, -3.031e-7, 2.383e-7
0.249, -5.435e-7, -3.043e-7, 2.392e-7
0.248, -5.432e-7, -3.043e-7, 2.389e-7
0.247, -5.435e-7, -3.040e-7, 2.395e-7
0.246, -5.462e-7, -3.058e-7, 2.404e-7
0.245, -5.465e-7, -3.067e-7, 2.398e-7
0.244, -5.462e-7, -3.070e-7, 2.392e-7
0.243, -5.490e-7, -3.073e-7, 2.416e-7
0.242, -5.481e-7, -3.070e-7, 2.410e-7
0.241, -5.496e-7, -3.083e-7, 2.413e-7
0.240, -5.496e-7, -3.077e-7, 2.419e-7
0.239, -5.508e-7, -3.086e-7, 2.422e-7
0.238, -5.517e-7, -3.092e-7, 2.425e-7
0.237, -5.529e-7, -3.101e-7, 2.429e-7
0.236, -5.523e-7, -3.104e-7, 2.419e-7
0.235, -5.557e-7, -3.119e-7, 2.438e-7
0.234, -5.548e-7, -3.110e-7, 2.438e-7
0.233, -5.575e-7, -3.131e-7, 2.444e-7
0.232, -5.584e-7, -3.131e-7, 2.453e-7
0.231, -5.594e-7, -3.135e-7, 2.459e-7
0.230, -5.603e-7, -3.147e-7, 2.456e-7
0.229, -5.606e-7, -3.147e-7, 2.459e-7
0.228, -5.627e-7, -3.162e-7, 2.465e-7
0.227, -5.621e-7, -3.162e-7, 2.459e-7
0.226, -5.642e-7, -3.174e-7, 2.468e-7
0.225, -5.642e-7, -3.168e-7, 2.474e-7
0.224, -5.645e-7, -3.174e-7, 2.471e-7
0.223, -5.667e-7, -3.189e-7, 2.477e-7
0.222, -5.670e-7, -3.183e-7, 2.487e-7
0.221, -5.682e-7, -3.199e-7, 2.483e-7
0.220, -5.691e-7, -3.205e-7, 2.487e-7
0.219, -5.716e-7, -3.211e-7, 2.505e-7
0.218, -5.716e-7, -3.217e-7, 2.499e-7
0.217, -5.725e-7, -3.214e-7, 2.511e-7
0.216, -5.731e-7, -3.229e-7, 2.502e-7
0.215, -5.725e-7, -3.229e-7, 2.496e-7
0.214, -5.746e-7, -3.241e-7, 2.505e-7
0.213, -5.767e-7, -3.247e-7, 2.520e-7
0.212, -5.783e-7, -3.260e-7, 2.523e-7
0.211, -5.804e-7, -3.269e-7, 2.535e-7
0.210, -5.810e-7, -3.272e-7, 2.538e-7
0.209, -5.801e-7, -3.272e-7, 2.529e-7
0.208, -5.825e-7, -3.287e-7, 2.538e-7
0.207, -5.822e-7, -3.278e-7, 2.544e-7
0.206, -5.847e-7, -3.302e-7, 2.544e-7
0.205, -5.850e-7, -3.302e-7, 2.548e-7
0.204, -5.865e-7, -3.302e-7, 2.563e-7
0.203, -5.877e-7, -3.318e-7, 2.560e-7
0.202, -5.896e-7, -3.327e-7, 2.569e-7
0.201, -5.883e-7, -3.315e-7, 2.569e-7
0.200, -5.902e-7, -3.330e-7, 2.572e-7
0.199, -5.941e-7, -3.351e-7, 2.590e-7
0.198, -5.926e-7, -3.342e-7, 2.584e-7
0.197, -5.944e-7, -3.366e-7, 2.578e-7
0.196, -5.954e-7, -3.348e-7, 2.606e-7
0.195, -5.963e-7, -3.369e-7, 2.593e-7
0.194, -5.966e-7, -3.373e-7, 2.593e-7
0.193, -5.984e-7, -3.376e-7, 2.609e-7
0.192, -5.993e-7, -3.391e-7, 2.602e-7
0.191, -6.012e-7, -3.406e-7, 2.606e-7
0.190, -6.039e-7, -3.409e-7, 2.630e-7
0.189, -6.021e-7, -3.406e-7, 2.615e-7
0.188, -6.051e-7, -3.431e-7, 2.621e-7
0.187, -6.054e-7, -3.418e-7, 2.636e-7
0.186, -6.063e-7, -3.434e-7, 2.630e-7
0.185, -6.070e-7, -3.440e-7, 2.630e-7
0.184, -6.097e-7, -3.446e-7, 2.651e-7
0.183, -6.088e-7, -3.452e-7, 2.636e-7
0.182, -6.118e-7, -3.461e-7, 2.657e-7
0.181, -6.128e-7, -3.464e-7, 2.664e-7
0.180, -6.131e-7, -3.479e-7, 2.651e-7
0.179, -6.155e-7, -3.488e-7, 2.667e-7
0.178, -6.161e-7, -3.485e-7, 2.676e-7
0.177, -6.183e-7, -3.498e-7, 2.685e-7
0.176, -6.216e-7, -3.522e-7, 2.694e-7
0.175, -6.204e-7, -3.516e-7, 2.688e-7
0.174, -6.216e-7, -3.522e-7, 2.694e-7
0.173, -6.228e-7, -3.534e-7, 2.694e-7
0.172, -6.253e-7, -3.543e-7, 2.709e-7
0.171, -6.240e-7, -3.534e-7, 2.706e-7
0.170, -6.295e-7, -3.574e-7, 2.721e-7
0.169, -6.289e-7, -3.556e-7, 2.734e-7
0.168, -6.302e-7, -3.580e-7, 2.721e-7
0.167, -6.323e-7, -3.589e-7, 2.734e-7
0.166, -6.338e-7, -3.586e-7, 2.752e-7
0.165, -6.341e-7, -3.598e-7, 2.743e-7
0.164, -6.360e-7, -3.617e-7, 2.743e-7
0.163, -6.381e-7, -3.614e-7, 2.767e-7
0.162, -6.363e-7, -3.623e-7, 2.740e-7
0.161, -6.390e-7, -3.632e-7, 2.758e-7
0.160, -6.414e-7, -3.638e-7, 2.776e-7
0.159, -6.408e-7, -3.647e-7, 2.761e-7
0.158, -6.439e-7, -3.659e-7, 2.779e-7
0.157, -6.448e-7, -3.665e-7, 2.783e-7
0.156, -6.463e-7, -3.687e-7, 2.776e-7
0.155, -6.475e-7, -3.681e-7, 2.795e-7
0.154, -6.503e-7, -3.690e-7, 2.813e-7
0.153, -6.512e-7, -3.705e-7, 2.807e-7
0.152, -6.521e-7, -3.711e-7, 2.810e-7
0.151, -6.540e-7, -3.717e-7, 2.822e-7
0.150, -6.549e-7, -3.733e-7, 2.816e-7
0.149, -6.585e-7, -3.745e-7, 2.840e-7
0.148, -6.573e-7, -3.733e-7, 2.840e-7
0.147, -6.582e-7, -3.751e-7, 2.831e-7
0.146, -6.625e-7, -3.778e-7, 2.847e-7
0.145, -6.640e-7, -3.784e-7, 2.856e-7
0.144, -6.640e-7, -3.788e-7, 2.853e-7
0.143, -6.662e-7, -3.806e-7, 2.856e-7
0.142, -6.668e-7, -3.797e-7, 2.871e-7
0.141, -6.695e-7, -3.815e-7, 2.880e-7
0.140, -6.717e-7, -3.827e-7, 2.889e-7
0.139, -6.729e-7, -3.830e-7, 2.898e-7
0.138, -6.735e-7, -3.839e-7, 2.895e-7
0.137, -6.771e-7, -3.867e-7, 2.905e-7
0.136, -6.784e-7, -3.864e-7, 2.920e-7
0.135, -6.787e-7, -3.870e-7, 2.917e-7
0.134, -6.799e-7, -3.873e-7, 2.926e-7
0.133, -6.817e-7, -3.891e-7, 2.926e-7
0.132, -6.836e-7, -3.907e-7, 2.929e-7
0.131, -6.851e-7, -3.913e-7, 2.938e-7
0.130, -6.863e-7, -3.913e-7, 2.950e-7
0.129, -6.890e-7, -3.949e-7, 2.941e-7
0.128, -6.890e-7, -3.928e-7, 2.963e-7
0.127, -6.915e-7, -3.949e-7, 2.966e-7
0.126, -6.936e-7, -3.968e-7, 2.969e-7
0.125, -6.952e-7, -3.977e-7, 2.975e-7
0.124, -6.958e-7, -3.980e-7, 2.978e-7
0.123, -6.982e-7, -3.986e-7, 2.996e-7
0.122, -7.016e-7, -4.016e-7, 2.999e-7
0.121, -7.022e-7, -4.019e-7, 3.002e-7
0.120, -7.037e-7, -4.026e-7, 3.011e-7
0.119, -7.055e-7, -4.038e-7, 3.017e-7
0.118, -7.061e-7, -4.047e-7, 3.014e-7
0.117, -7.089e-7, -4.062e-7, 3.027e-7
0.116, -7.128e-7, -4.074e-7, 3.054e-7
0.115, -7.132e-7, -4.090e-7, 3.042e-7
0.114, -7.147e-7, -4.096e-7, 3.051e-7
0.113, -7.156e-7, -4.105e-7, 3.051e-7
0.112, -7.171e-7, -4.111e-7, 3.060e-7
0.111, -7.211e-7, -4.129e-7, 3.082e-7
0.110, -7.223e-7, -4.132e-7, 3.091e-7
0.109, -7.248e-7, -4.154e-7, 3.094e-7
0.108, -7.263e-7, -4.154e-7, 3.109e-7
0.107, -7.278e-7, -4.169e-7, 3.109e-7
0.106, -7.275e-7, -4.175e-7, 3.100e-7
0.105, -7.309e-7, -4.187e-7, 3.121e-7
0.104, -7.336e-7, -4.206e-7, 3.130e-7
0.103, -7.363e-7, -4.218e-7, 3.146e-7
0.102, -7.385e-7, -4.239e-7, 3.146e-7
0.101, -7.382e-7, -4.236e-7, 3.146e-7
0.100, -7.400e-7, -4.254e-7, 3.146e-7
0.099, -7.434e-7, -4.254e-7, 3.179e-7
0.098, -7.449e-7, -4.276e-7, 3.173e-7
0.097, -7.464e-7, -4.291e-7, 3.173e-7
0.096, -7.489e-7, -4.294e-7, 3.194e-7
0.095, -7.510e-7, -4.309e-7, 3.201e-7
0.094, -7.519e-7, -4.315e-7, 3.204e-7
0.093, -7.568e-7, -4.349e-7, 3.219e-7
0.092, -7.577e-7, -4.343e-7, 3.234e-7
0.091, -7.598e-7, -4.364e-7, 3.234e-7
0.090, -7.617e-7, -4.373e-7, 3.243e-7
0.089, -7.644e-7, -4.383e-7, 3.262e-7
0.088, -7.644e-7, -4.392e-7, 3.252e-7
0.087, -7.705e-7, -4.422e-7, 3.283e-7
0.086, -7.696e-7, -4.419e-7, 3.277e-7
0.085, -7.708e-7, -4.428e-7, 3.280e-7
0.084, -7.748e-7, -4.447e-7, 3.301e-7
0.083, -7.778e-7, -4.468e-7, 3.310e-7
0.082, -7.769e-7, -4.471e-7, 3.298e-7
0.081, -7.812e-7, -4.486e-7, 3.326e-7
0.080, -7.836e-7, -4.505e-7, 3.332e-7
0.079, -7.849e-7, -4.517e-7, 3.332e-7
0.078, -7.867e-7, -4.517e-7, 3.350e-7
0.077, -7.885e-7, -4.532e-7, 3.353e-7
0.076, -7.907e-7, -4.557e-7, 3.350e-7
0.075, -7.937e-7, -4.560e-7, 3.378e-7
0.074, -7.955e-7, -4.569e-7, 3.387e-7
0.073, -7.983e-7, -4.593e-7, 3.390e-7
0.072, -8.001e-7, -4.590e-7, 3.411e-7
0.071, -8.023e-7, -4.608e-7, 3.414e-7
0.070, -8.047e-7, -4.633e-7, 3.414e-7
0.069, -8.071e-7, -4.636e-7, 3.436e-7
0.068, -8.087e-7, -4.645e-7, 3.442e-7
0.067, -8.111e-7, -4.666e-7, 3.445e-7
0.066, -8.142e-7, -4.676e-7, 3.466e-7
0.065, -8.166e-7, -4.691e-7, 3.475e-7
0.064, -8.181e-7, -4.703e-7, 3.478e-7
0.063, -8.209e-7, -4.715e-7, 3.494e-7
0.062, -8.233e-7, -4.734e-7, 3.500e-7
0.061, -8.255e-7, -4.743e-7, 3.512e-7
0.060, -8.282e-7, -4.758e-7, 3.524e-7
0.059, -8.306e-7, -4.767e-7, 3.539e-7
0.058, -8.334e-7, -4.782e-7, 3.551e-7
0.057, -8.349e-7, -4.779e-7, 3.570e-7
0.056, -8.374e-7, -4.807e-7, 3.567e-7
0.055, -8.386e-7, -4.819e-7, 3.567e-7
0.054, -8.407e-7, -4.819e-7, 3.588e-7
0.053, -8.422e-7, -4.840e-7, 3.582e-7
0.052, -8.486e-7, -4.871e-7, 3.616e-7
0.051, -8.471e-7, -4.859e-7, 3.613e-7
0.050, -8.496e-7, -4.883e-7, 3.613e-7
0.049, -8.554e-7, -4.911e-7, 3.643e-7
0.048, -8.554e-7, -4.901e-7, 3.652e-7
0.047, -8.590e-7, -4.932e-7, 3.658e-7
0.046, -8.630e-7, -4.950e-7, 3.680e-7
0.045, -8.624e-7, -4.944e-7, 3.680e-7
0.044, -8.654e-7, -4.965e-7, 3.689e-7
0.043, -8.685e-7, -4.978e-7, 3.707e-7
0.042, -8.691e-7, -4.984e-7, 3.707e-7
0.041, -8.737e-7, -5.014e-7, 3.722e-7
0.040, -8.758e-7, -5.017e-7, 3.741e-7
0.039, -8.770e-7, -5.020e-7, 3.750e-7
0.038, -8.792e-7, -5.036e-7, 3.756e-7
0.037, -8.847e-7, -5.057e-7, 3.790e-7
0.036, -8.843e-7, -5.060e-7, 3.783e-7
0.035, -8.862e-7, -5.075e-7, 3.786e-7
0.034, -8.920e-7, -5.094e-7, 3.826e-7
0.033, -8.898e-7, -5.088e-7, 3.811e-7
0.032, -8.947e-7, -5.124e-7, 3.823e-7
0.031, -8.969e-7, -5.127e-7, 3.841e-7
0.030, -8.999e-7, -5.142e-7, 3.857e-7
0.029, -8.999e-7, -5.152e-7, 3.847e-7
0.028, -9.024e-7, -5.158e-7, 3.866e-7
0.027, -9.048e-7, -5.170e-7, 3.878e-7
0.026, -9.088e-7, -5.191e-7, 3.896e-7
0.025, -9.106e-7, -5.185e-7, 3.921e-7
0.024, -9.115e-7, -5.194e-7, 3.921e-7
0.023, -9.152e-7, -5.225e-7, 3.927e-7
0.022, -9.182e-7, -5.234e-7, 3.948e-7
0.021, -9.182e-7, -5.231e-7, 3.951e-7
0.020, -9.222e-7, -5.255e-7, 3.967e-7
0.019, -9.252e-7, -5.268e-7, 3.985e-7
0.018, -9.255e-7, -5.268e-7, 3.988e-7
0.017, -9.283e-7, -5.283e-7, 4.000e-7
0.016, -9.313e-7, -5.286e-7, 4.028e-7
0.015, -9.338e-7, -5.307e-7, 4.031e-7
0.014, -9.353e-7, -5.323e-7, 4.031e-7
0.013, -9.371e-7, -5.326e-7, 4.046e-7
0.012, -9.396e-7, -5.338e-7, 4.058e-7
0.011, -9.420e-7, -5.353e-7, 4.067e-7
0.010, -9.457e-7, -5.365e-7, 4.092e-7
0.009, -9.469e-7, -5.368e-7, 4.101e-7
0.008, -9.475e-7, -5.377e-7, 4.098e-7
0.007, -9.527e-7, -5.396e-7, 4.131e-7
0.006, -9.542e-7, -5.408e-7, 4.134e-7
0.005, -9.555e-7, -5.411e-7, 4.144e-7
0.004, -9.567e-7, -5.405e-7, 4.162e-7
0.003, -9.594e-7, -5.423e-7, 4.171e-7
0.002, -9.640e-7, -5.457e-7, 4.183e-7
0.001, -9.655e-7, -5.457e-7, 4.198e-7
-0.000, -9.661e-7, -5.460e-7, 4.201e-7
-0.001, -9.692e-7, -5.481e-7, 4.211e-7
-0.002, -9.719e-7, -5.475e-7, 4.244e-7
-0.003, -9.725e-7, -5.484e-7, 4.241e-7
-0.004, -9.750e-7, -5.503e-7, 4.247e-7
-0.005, -9.777e-7, -5.509e-7, 4.269e-7
-0.006, -9.799e-7, -5.512e-7, 4.287e-7
-0.007, -9.811e-7, -5.530e-7, 4.281e-7
-0.008, -9.826e-7, -5.527e-7, 4.299e-7
-0.009, -9.854e-7, -5.542e-7, 4.311e-7
-0.010, -9.869e-7, -5.542e-7, 4.327e-7
-0.011, -9.887e-7, -5.551e-7, 4.336e-7
-0.012, -9.908e-7, -5.564e-7, 4.345e-7
-0.013, -9.942e-7, -5.582e-7, 4.360e-7
-0.014, -9.963e-7, -5.585e-7, 4.378e-7
-0.015, -9.973e-7, -5.588e-7, 4.385e-7
-0.016, -9.994e-7, -5.597e-7, 4.397e-7
-0.017, -1.001e-6, -5.603e-7, 4.406e-7
-0.018, -1.002e-6, -5.603e-7, 4.412e-7
-0.019, -1.005e-6, -5.625e-7, 4.421e-7
-0.020, -1.007e-6, -5.628e-7, 4.440e-7
-0.021, -1.009e-6, -5.637e-7, 4.458e-7
-0.022, -1.009e-6, -5.634e-7, 4.461e-7
-0.023, -1.012e-6, -5.640e-7, 4.479e-7
-0.024, -1.013e-6, -5.649e-7, 4.485e-7
-0.025, -1.015e-6, -5.652e-7, 4.494e-7
-0.026, -1.016e-6, -5.652e-7, 4.513e-7
-0.027, -1.019e-6, -5.661e-7, 4.531e-7
-0.028, -1.020e-6, -5.658e-7, 4.537e-7
-0.029, -1.023e-6, -5.676e-7, 4.549e-7
-0.030, -1.024e-6, -5.683e-7, 4.552e-7
-0.031, -1.025e-6, -5.673e-7, 4.574e-7
-0.032, -1.027e-6, -5.692e-7, 4.574e-7
-0.033, -1.028e-6, -5.698e-7, 4.580e-7
-0.034, -1.030e-6, -5.695e-7, 4.601e-7
-0.035, -1.032e-6, -5.707e-7, 4.610e-7
-0.036, -1.033e-6, -5.710e-7, 4.623e-7
-0.037, -1.034e-6, -5.710e-7, 4.632e-7
-0.038, -1.036e-6, -5.722e-7, 4.641e-7
-0.039, -1.038e-6, -5.728e-7, 4.650e-7
-0.040, -1.039e-6, -5.725e-7, 4.662e-7
-0.041, -1.039e-6, -5.719e-7, 4.668e-7
-0.042, -1.042e-6, -5.734e-7, 4.684e-7
-0.043, -1.044e-6, -5.738e-7, 4.702e-7
-0.044, -1.044e-6, -5.734e-7, 4.702e-7
-0.045, -1.045e-6, -5.738e-7, 4.714e-7
-0.046, -1.046e-6, -5.738e-7, 4.723e-7
-0.047, -1.047e-6, -5.741e-7, 4.729e-7
-0.048, -1.049e-6, -5.753e-7, 4.732e-7
-0.049, -1.050e-6, -5.753e-7, 4.751e-7
-0.050, -1.050e-6, -5.756e-7, 4.748e-7
-0.051, -1.053e-6, -5.756e-7, 4.775e-7
-0.052, -1.054e-6, -5.753e-7, 4.784e-7
-0.053, -1.055e-6, -5.762e-7, 4.790e-7
-0.054, -1.058e-6, -5.768e-7, 4.809e-7
-0.055, -1.059e-6, -5.771e-7, 4.818e-7
-0.056, -1.056e-6, -5.762e-7, 4.803e-7
-0.057, -1.062e-6, -5.780e-7, 4.839e-7
-0.058, -1.059e-6, -5.753e-7, 4.833e-7
-0.059, -1.059e-6, -5.768e-7, 4.824e-7
-0.060, -1.061e-6, -5.768e-7, 4.845e-7
-0.061, -1.063e-6, -5.768e-7, 4.858e-7
-0.062, -1.062e-6, -5.762e-7, 4.861e-7
-0.063, -1.065e-6, -5.765e-7, 4.885e-7
-0.064, -1.064e-6, -5.756e-7, 4.882e-7
-0.065, -1.066e-6, -5.774e-7, 4.885e-7
-0.066, -1.068e-6, -5.771e-7, 4.912e-7
-0.067, -1.067e-6, -5.765e-7, 4.906e-7
-0.068, -1.070e-6, -5.771e-7, 4.931e-7
-0.069, -1.069e-6, -5.762e-7, 4.928e-7
-0.070, -1.069e-6, -5.753e-7, 4.934e-7
-0.071, -1.070e-6, -5.762e-7, 4.937e-7
-0.072, -1.071e-6, -5.762e-7, 4.946e-7
-0.073, -1.070e-6, -5.750e-7, 4.949e-7
-0.074, -1.071e-6, -5.756e-7, 4.955e-7
-0.075, -1.072e-6, -5.747e-7, 4.970e-7
-0.076, -1.071e-6, -5.744e-7, 4.967e-7
-0.077, -1.073e-6, -5.759e-7, 4.974e-7
-0.078, -1.075e-6, -5.756e-7, 4.995e-7
-0.079, -1.073e-6, -5.747e-7, 4.983e-7
-0.080, -1.074e-6, -5.750e-7, 4.995e-7
-0.081, -1.076e-6, -5.741e-7, 5.022e-7
-0.082, -1.075e-6, -5.725e-7, 5.022e-7
-0.083, -1.075e-6, -5.734e-7, 5.013e-7
-0.084, -1.077e-6, -5.731e-7, 5.035e-7
-0.085, -1.074e-6, -5.716e-7, 5.025e-7
-0.086, -1.076e-6, -5.722e-7, 5.038e-7
-0.087, -1.076e-6, -5.716e-7, 5.044e-7
-0.088, -1.077e-6, -5.725e-7, 5.044e-7
-0.089, -1.077e-6, -5.722e-7, 5.050e-7
-0.090, -1.076e-6, -5.698e-7, 5.065e-7
-0.091, -1.077e-6, -5.710e-7, 5.056e-7
-0.092, -1.076e-6, -5.707e-7, 5.053e-7
-0.093, -1.080e-6, -5.701e-7, 5.099e-7
-0.094, -1.078e-6, -5.701e-7, 5.074e-7
-0.095, -1.079e-6, -5.710e-7, 5.080e-7
-0.096, -1.078e-6, -5.683e-7, 5.093e-7
-0.097, -1.077e-6, -5.686e-7, 5.086e-7
-0.098, -1.080e-6, -5.698e-7, 5.099e-7
-0.099, -1.076e-6, -5.661e-7, 5.099e-7
-0.100, -1.078e-6, -5.676e-7, 5.102e-7
