Mar. 20, 2018   15:56:11
Square Wave Voltammetry
File: c:\users\electrochemist\desktop\2018\20032018_unbufarray_unpap\62_g4_ph9,50_4.txt
Data Source:  Experiment
Instrument Model:  CHI1040A
Header: 
Note: 

Init E (V) = 0.7
Final E (V) = -0.4
Incr E (V) = 0.001
Amplitude (V) = 0.1
Frequency (Hz) = 152
Quiet Time (sec) = 2
Sensitivity (A/V) = 1e-6

Difference:

Forward:

Reverse:

Potential/V, Diff(i/A), For(i/A), Rev(i/A)

0.699, -7.794e-7, -1.874e-7, 5.920e-7
0.698, -9.332e-7, -3.913e-7, 5.419e-7
0.697, -9.329e-7, -4.019e-7, 5.309e-7
0.696, -9.286e-7, -4.062e-7, 5.224e-7
0.695, -9.237e-7, -4.080e-7, 5.157e-7
0.694, -9.185e-7, -4.071e-7, 5.114e-7
0.693, -9.112e-7, -4.077e-7, 5.035e-7
0.692, -9.112e-7, -4.090e-7, 5.022e-7
0.691, -9.075e-7, -4.077e-7, 4.998e-7
0.690, -9.002e-7, -4.056e-7, 4.946e-7
0.689, -9.011e-7, -4.087e-7, 4.925e-7
0.688, -8.932e-7, -4.065e-7, 4.867e-7
0.687, -8.920e-7, -4.074e-7, 4.845e-7
0.686, -8.911e-7, -4.083e-7, 4.827e-7
0.685, -8.850e-7, -4.068e-7, 4.781e-7
0.684, -8.825e-7, -4.065e-7, 4.760e-7
0.683, -8.795e-7, -4.056e-7, 4.739e-7
0.682, -8.770e-7, -4.041e-7, 4.729e-7
0.681, -8.773e-7, -4.065e-7, 4.708e-7
0.680, -8.755e-7, -4.062e-7, 4.693e-7
0.679, -8.691e-7, -4.032e-7, 4.659e-7
0.678, -8.688e-7, -4.059e-7, 4.629e-7
0.677, -8.663e-7, -4.035e-7, 4.629e-7
0.676, -8.615e-7, -4.035e-7, 4.580e-7
0.675, -8.599e-7, -4.044e-7, 4.556e-7
0.674, -8.593e-7, -4.026e-7, 4.568e-7
0.673, -8.584e-7, -4.029e-7, 4.556e-7
0.672, -8.572e-7, -4.053e-7, 4.519e-7
0.671, -8.569e-7, -4.019e-7, 4.549e-7
0.670, -8.502e-7, -4.022e-7, 4.479e-7
0.669, -8.505e-7, -4.029e-7, 4.476e-7
0.668, -8.474e-7, -4.016e-7, 4.458e-7
0.667, -8.435e-7, -3.998e-7, 4.437e-7
0.666, -8.441e-7, -4.029e-7, 4.412e-7
0.665, -8.410e-7, -3.983e-7, 4.427e-7
0.664, -8.364e-7, -4.010e-7, 4.354e-7
0.663, -8.386e-7, -4.004e-7, 4.382e-7
0.662, -8.374e-7, -3.983e-7, 4.391e-7
0.661, -8.352e-7, -3.986e-7, 4.366e-7
0.660, -8.346e-7, -3.995e-7, 4.351e-7
0.659, -8.313e-7, -3.971e-7, 4.342e-7
0.658, -8.303e-7, -3.992e-7, 4.311e-7
0.657, -8.282e-7, -3.977e-7, 4.305e-7
0.656, -8.267e-7, -3.971e-7, 4.296e-7
0.655, -8.233e-7, -3.971e-7, 4.263e-7
0.654, -8.236e-7, -3.974e-7, 4.263e-7
0.653, -8.230e-7, -3.968e-7, 4.263e-7
0.652, -8.242e-7, -3.992e-7, 4.250e-7
0.651, -8.212e-7, -3.977e-7, 4.235e-7
0.650, -8.181e-7, -3.974e-7, 4.208e-7
0.649, -8.187e-7, -3.968e-7, 4.220e-7
0.648, -8.151e-7, -3.949e-7, 4.202e-7
0.647, -8.157e-7, -3.968e-7, 4.189e-7
0.646, -8.123e-7, -3.952e-7, 4.171e-7
0.645, -8.132e-7, -3.952e-7, 4.180e-7
0.644, -8.093e-7, -3.952e-7, 4.141e-7
0.643, -8.068e-7, -3.931e-7, 4.137e-7
0.642, -8.078e-7, -3.931e-7, 4.147e-7
0.641, -8.065e-7, -3.928e-7, 4.137e-7
0.640, -8.026e-7, -3.919e-7, 4.107e-7
0.639, -8.020e-7, -3.913e-7, 4.107e-7
0.638, -8.032e-7, -3.940e-7, 4.092e-7
0.637, -8.035e-7, -3.928e-7, 4.107e-7
0.636, -7.998e-7, -3.925e-7, 4.073e-7
0.635, -8.010e-7, -3.943e-7, 4.067e-7
0.634, -7.977e-7, -3.910e-7, 4.067e-7
0.633, -8.004e-7, -3.922e-7, 4.083e-7
0.632, -7.955e-7, -3.928e-7, 4.028e-7
0.631, -7.949e-7, -3.903e-7, 4.046e-7
0.630, -7.946e-7, -3.900e-7, 4.046e-7
0.629, -7.952e-7, -3.922e-7, 4.031e-7
0.628, -7.943e-7, -3.882e-7, 4.061e-7
0.627, -7.922e-7, -3.934e-7, 3.988e-7
0.626, -7.937e-7, -3.913e-7, 4.025e-7
0.625, -7.888e-7, -3.873e-7, 4.015e-7
0.624, -7.891e-7, -3.919e-7, 3.973e-7
0.623, -7.949e-7, -3.925e-7, 4.025e-7
0.622, -7.882e-7, -3.903e-7, 3.979e-7
0.621, -7.885e-7, -3.916e-7, 3.970e-7
0.620, -7.882e-7, -3.891e-7, 3.991e-7
0.619, -7.846e-7, -3.870e-7, 3.976e-7
0.618, -7.873e-7, -3.913e-7, 3.960e-7
0.617, -7.876e-7, -3.888e-7, 3.988e-7
0.616, -7.852e-7, -3.891e-7, 3.960e-7
0.615, -7.833e-7, -3.888e-7, 3.945e-7
0.614, -7.858e-7, -3.888e-7, 3.970e-7
0.613, -7.840e-7, -3.894e-7, 3.945e-7
0.612, -7.843e-7, -3.910e-7, 3.933e-7
0.611, -7.830e-7, -3.900e-7, 3.930e-7
0.610, -7.824e-7, -3.894e-7, 3.930e-7
0.609, -7.815e-7, -3.888e-7, 3.927e-7
0.608, -7.843e-7, -3.913e-7, 3.930e-7
0.607, -7.815e-7, -3.888e-7, 3.927e-7
0.606, -7.821e-7, -3.900e-7, 3.921e-7
0.605, -7.821e-7, -3.903e-7, 3.918e-7
0.604, -7.812e-7, -3.903e-7, 3.909e-7
0.603, -7.803e-7, -3.894e-7, 3.909e-7
0.602, -7.778e-7, -3.882e-7, 3.896e-7
0.601, -7.800e-7, -3.897e-7, 3.902e-7
0.600, -7.778e-7, -3.885e-7, 3.893e-7
0.599, -7.791e-7, -3.891e-7, 3.899e-7
0.598, -7.800e-7, -3.907e-7, 3.893e-7
0.597, -7.797e-7, -3.897e-7, 3.899e-7
0.596, -7.763e-7, -3.891e-7, 3.872e-7
0.595, -7.791e-7, -3.894e-7, 3.896e-7
0.594, -7.772e-7, -3.879e-7, 3.893e-7
0.593, -7.751e-7, -3.876e-7, 3.875e-7
0.592, -7.778e-7, -3.897e-7, 3.881e-7
0.591, -7.782e-7, -3.907e-7, 3.875e-7
0.590, -7.751e-7, -3.903e-7, 3.848e-7
0.589, -7.751e-7, -3.897e-7, 3.854e-7
0.588, -7.751e-7, -3.873e-7, 3.878e-7
0.587, -7.730e-7, -3.900e-7, 3.829e-7
0.586, -7.760e-7, -3.900e-7, 3.860e-7
0.585, -7.711e-7, -3.861e-7, 3.851e-7
0.584, -7.717e-7, -3.891e-7, 3.826e-7
0.583, -7.727e-7, -3.864e-7, 3.863e-7
0.582, -7.699e-7, -3.873e-7, 3.826e-7
0.581, -7.733e-7, -3.907e-7, 3.826e-7
0.580, -7.702e-7, -3.870e-7, 3.832e-7
0.579, -7.699e-7, -3.873e-7, 3.826e-7
0.578, -7.745e-7, -3.903e-7, 3.841e-7
0.577, -7.711e-7, -3.867e-7, 3.845e-7
0.576, -7.696e-7, -3.882e-7, 3.814e-7
0.575, -7.693e-7, -3.900e-7, 3.793e-7
0.574, -7.721e-7, -3.885e-7, 3.835e-7
0.573, -7.666e-7, -3.882e-7, 3.783e-7
0.572, -7.727e-7, -3.913e-7, 3.814e-7
0.571, -7.699e-7, -3.879e-7, 3.820e-7
0.570, -7.650e-7, -3.885e-7, 3.765e-7
0.569, -7.696e-7, -3.894e-7, 3.802e-7
0.568, -7.663e-7, -3.864e-7, 3.799e-7
0.567, -7.644e-7, -3.876e-7, 3.768e-7
0.566, -7.669e-7, -3.888e-7, 3.780e-7
0.565, -7.663e-7, -3.873e-7, 3.790e-7
0.564, -7.623e-7, -3.858e-7, 3.765e-7
0.563, -7.672e-7, -3.882e-7, 3.790e-7
0.562, -7.647e-7, -3.873e-7, 3.774e-7
0.561, -7.632e-7, -3.867e-7, 3.765e-7
0.560, -7.632e-7, -3.867e-7, 3.765e-7
0.559, -7.644e-7, -3.885e-7, 3.759e-7
0.558, -7.653e-7, -3.885e-7, 3.768e-7
0.557, -7.632e-7, -3.864e-7, 3.768e-7
0.556, -7.617e-7, -3.864e-7, 3.753e-7
0.555, -7.629e-7, -3.861e-7, 3.768e-7
0.554, -7.598e-7, -3.870e-7, 3.729e-7
0.553, -7.605e-7, -3.861e-7, 3.744e-7
0.552, -7.608e-7, -3.864e-7, 3.744e-7
0.551, -7.565e-7, -3.842e-7, 3.722e-7
0.550, -7.601e-7, -3.882e-7, 3.719e-7
0.549, -7.601e-7, -3.861e-7, 3.741e-7
0.548, -7.586e-7, -3.852e-7, 3.735e-7
0.547, -7.586e-7, -3.858e-7, 3.729e-7
0.546, -7.583e-7, -3.855e-7, 3.729e-7
0.545, -7.595e-7, -3.864e-7, 3.732e-7
0.544, -7.574e-7, -3.861e-7, 3.713e-7
0.543, -7.592e-7, -3.861e-7, 3.732e-7
0.542, -7.562e-7, -3.839e-7, 3.722e-7
0.541, -7.565e-7, -3.858e-7, 3.707e-7
0.540, -7.544e-7, -3.842e-7, 3.701e-7
0.539, -7.550e-7, -3.849e-7, 3.701e-7
0.538, -7.544e-7, -3.852e-7, 3.692e-7
0.537, -7.580e-7, -3.861e-7, 3.719e-7
0.536, -7.531e-7, -3.852e-7, 3.680e-7
0.535, -7.583e-7, -3.873e-7, 3.710e-7
0.534, -7.559e-7, -3.845e-7, 3.713e-7
0.533, -7.525e-7, -3.836e-7, 3.689e-7
0.532, -7.550e-7, -3.858e-7, 3.692e-7
0.531, -7.568e-7, -3.858e-7, 3.710e-7
0.530, -7.547e-7, -3.873e-7, 3.674e-7
0.529, -7.568e-7, -3.867e-7, 3.701e-7
0.528, -7.519e-7, -3.830e-7, 3.689e-7
0.527, -7.544e-7, -3.891e-7, 3.652e-7
0.526, -7.559e-7, -3.867e-7, 3.692e-7
0.525, -7.550e-7, -3.855e-7, 3.695e-7
0.524, -7.537e-7, -3.873e-7, 3.664e-7
0.523, -7.553e-7, -3.849e-7, 3.704e-7
0.522, -7.544e-7, -3.858e-7, 3.686e-7
0.521, -7.540e-7, -3.876e-7, 3.664e-7
0.520, -7.553e-7, -3.849e-7, 3.704e-7
0.519, -7.540e-7, -3.855e-7, 3.686e-7
0.518, -7.537e-7, -3.879e-7, 3.658e-7
0.517, -7.571e-7, -3.870e-7, 3.701e-7
0.516, -7.528e-7, -3.867e-7, 3.661e-7
0.515, -7.501e-7, -3.839e-7, 3.661e-7
0.514, -7.571e-7, -3.879e-7, 3.692e-7
0.513, -7.553e-7, -3.876e-7, 3.677e-7
0.512, -7.513e-7, -3.873e-7, 3.640e-7
0.511, -7.544e-7, -3.864e-7, 3.680e-7
0.510, -7.550e-7, -3.882e-7, 3.668e-7
0.509, -7.568e-7, -3.885e-7, 3.683e-7
0.508, -7.556e-7, -3.879e-7, 3.677e-7
0.507, -7.547e-7, -3.885e-7, 3.661e-7
0.506, -7.571e-7, -3.885e-7, 3.686e-7
0.505, -7.540e-7, -3.876e-7, 3.664e-7
0.504, -7.577e-7, -3.903e-7, 3.674e-7
0.503, -7.553e-7, -3.891e-7, 3.661e-7
0.502, -7.562e-7, -3.888e-7, 3.674e-7
0.501, -7.568e-7, -3.900e-7, 3.668e-7
0.500, -7.547e-7, -3.879e-7, 3.668e-7
0.499, -7.562e-7, -3.891e-7, 3.671e-7
0.498, -7.544e-7, -3.882e-7, 3.661e-7
0.497, -7.550e-7, -3.870e-7, 3.680e-7
0.496, -7.550e-7, -3.900e-7, 3.649e-7
0.495, -7.583e-7, -3.907e-7, 3.677e-7
0.494, -7.559e-7, -3.879e-7, 3.680e-7
0.493, -7.550e-7, -3.894e-7, 3.655e-7
0.492, -7.556e-7, -3.882e-7, 3.674e-7
0.491, -7.534e-7, -3.882e-7, 3.652e-7
0.490, -7.553e-7, -3.897e-7, 3.655e-7
0.489, -7.565e-7, -3.907e-7, 3.658e-7
0.488, -7.562e-7, -3.919e-7, 3.643e-7
0.487, -7.550e-7, -3.888e-7, 3.661e-7
0.486, -7.556e-7, -3.885e-7, 3.671e-7
0.485, -7.540e-7, -3.910e-7, 3.631e-7
0.484, -7.540e-7, -3.910e-7, 3.631e-7
0.483, -7.574e-7, -3.900e-7, 3.674e-7
0.482, -7.540e-7, -3.907e-7, 3.634e-7
0.481, -7.571e-7, -3.931e-7, 3.640e-7
0.480, -7.568e-7, -3.907e-7, 3.661e-7
0.479, -7.531e-7, -3.900e-7, 3.631e-7
0.478, -7.553e-7, -3.919e-7, 3.634e-7
0.477, -7.550e-7, -3.891e-7, 3.658e-7
0.476, -7.531e-7, -3.900e-7, 3.631e-7
0.475, -7.574e-7, -3.925e-7, 3.649e-7
0.474, -7.537e-7, -3.900e-7, 3.637e-7
0.473, -7.525e-7, -3.903e-7, 3.622e-7
0.472, -7.553e-7, -3.910e-7, 3.643e-7
0.471, -7.565e-7, -3.894e-7, 3.671e-7
0.470, -7.531e-7, -3.913e-7, 3.619e-7
0.469, -7.556e-7, -3.922e-7, 3.634e-7
0.468, -7.568e-7, -3.922e-7, 3.646e-7
0.467, -7.528e-7, -3.903e-7, 3.625e-7
0.466, -7.562e-7, -3.910e-7, 3.652e-7
0.465, -7.556e-7, -3.913e-7, 3.643e-7
0.464, -7.537e-7, -3.916e-7, 3.622e-7
0.463, -7.540e-7, -3.916e-7, 3.625e-7
0.462, -7.537e-7, -3.916e-7, 3.622e-7
0.461, -7.519e-7, -3.913e-7, 3.606e-7
0.460, -7.510e-7, -3.891e-7, 3.619e-7
0.459, -7.525e-7, -3.916e-7, 3.610e-7
0.458, -7.540e-7, -3.916e-7, 3.625e-7
0.457, -7.510e-7, -3.903e-7, 3.606e-7
0.456, -7.519e-7, -3.916e-7, 3.603e-7
0.455, -7.519e-7, -3.913e-7, 3.606e-7
0.454, -7.504e-7, -3.903e-7, 3.600e-7
0.453, -7.516e-7, -3.925e-7, 3.591e-7
0.452, -7.525e-7, -3.910e-7, 3.616e-7
0.451, -7.498e-7, -3.903e-7, 3.594e-7
0.450, -7.528e-7, -3.928e-7, 3.600e-7
0.449, -7.544e-7, -3.928e-7, 3.616e-7
0.448, -7.544e-7, -3.928e-7, 3.616e-7
0.447, -7.507e-7, -3.913e-7, 3.594e-7
0.446, -7.553e-7, -3.922e-7, 3.631e-7
0.445, -7.510e-7, -3.900e-7, 3.610e-7
0.444, -7.525e-7, -3.922e-7, 3.603e-7
0.443, -7.519e-7, -3.919e-7, 3.600e-7
0.442, -7.522e-7, -3.934e-7, 3.588e-7
0.441, -7.516e-7, -3.937e-7, 3.579e-7
0.440, -7.544e-7, -3.922e-7, 3.622e-7
0.439, -7.516e-7, -3.922e-7, 3.594e-7
0.438, -7.562e-7, -3.946e-7, 3.616e-7
0.437, -7.519e-7, -3.922e-7, 3.597e-7
0.436, -7.519e-7, -3.937e-7, 3.582e-7
0.435, -7.565e-7, -3.943e-7, 3.622e-7
0.434, -7.550e-7, -3.940e-7, 3.610e-7
0.433, -7.547e-7, -3.955e-7, 3.591e-7
0.432, -7.565e-7, -3.952e-7, 3.613e-7
0.431, -7.534e-7, -3.928e-7, 3.606e-7
0.430, -7.577e-7, -3.974e-7, 3.603e-7
0.429, -7.574e-7, -3.949e-7, 3.625e-7
0.428, -7.553e-7, -3.937e-7, 3.616e-7
0.427, -7.553e-7, -3.961e-7, 3.591e-7
0.426, -7.562e-7, -3.946e-7, 3.616e-7
0.425, -7.568e-7, -3.949e-7, 3.619e-7
0.424, -7.565e-7, -3.974e-7, 3.591e-7
0.423, -7.544e-7, -3.931e-7, 3.613e-7
0.422, -7.565e-7, -3.952e-7, 3.613e-7
0.421, -7.574e-7, -3.980e-7, 3.594e-7
0.420, -7.571e-7, -3.974e-7, 3.597e-7
0.419, -7.577e-7, -3.965e-7, 3.613e-7
0.418, -7.592e-7, -3.983e-7, 3.610e-7
0.417, -7.556e-7, -3.958e-7, 3.597e-7
0.416, -7.595e-7, -3.977e-7, 3.619e-7
0.415, -7.580e-7, -3.974e-7, 3.606e-7
0.414, -7.589e-7, -3.977e-7, 3.613e-7
0.413, -7.595e-7, -3.992e-7, 3.603e-7
0.412, -7.601e-7, -3.986e-7, 3.616e-7
0.411, -7.589e-7, -3.986e-7, 3.603e-7
0.410, -7.592e-7, -3.995e-7, 3.597e-7
0.409, -7.611e-7, -3.986e-7, 3.625e-7
0.408, -7.583e-7, -3.983e-7, 3.600e-7
0.407, -7.620e-7, -3.998e-7, 3.622e-7
0.406, -7.638e-7, -4.001e-7, 3.637e-7
0.405, -7.614e-7, -4.001e-7, 3.613e-7
0.404, -7.653e-7, -4.029e-7, 3.625e-7
0.403, -7.623e-7, -4.001e-7, 3.622e-7
0.402, -7.629e-7, -4.029e-7, 3.600e-7
0.401, -7.644e-7, -4.007e-7, 3.637e-7
0.400, -7.635e-7, -4.016e-7, 3.619e-7
0.399, -7.641e-7, -4.026e-7, 3.616e-7
0.398, -7.681e-7, -4.044e-7, 3.637e-7
0.397, -7.632e-7, -3.995e-7, 3.637e-7
0.396, -7.641e-7, -4.044e-7, 3.597e-7
0.395, -7.663e-7, -4.026e-7, 3.637e-7
0.394, -7.644e-7, -4.022e-7, 3.622e-7
0.393, -7.638e-7, -4.019e-7, 3.619e-7
0.392, -7.659e-7, -4.038e-7, 3.622e-7
0.391, -7.653e-7, -4.032e-7, 3.622e-7
0.390, -7.696e-7, -4.062e-7, 3.634e-7
0.389, -7.650e-7, -4.022e-7, 3.628e-7
0.388, -7.635e-7, -4.041e-7, 3.594e-7
0.387, -7.678e-7, -4.056e-7, 3.622e-7
0.386, -7.669e-7, -4.032e-7, 3.637e-7
0.385, -7.656e-7, -4.047e-7, 3.610e-7
0.384, -7.696e-7, -4.074e-7, 3.622e-7
0.383, -7.675e-7, -4.038e-7, 3.637e-7
0.382, -7.672e-7, -4.056e-7, 3.616e-7
0.381, -7.705e-7, -4.074e-7, 3.631e-7
0.380, -7.690e-7, -4.047e-7, 3.643e-7
0.379, -7.675e-7, -4.059e-7, 3.616e-7
0.378, -7.717e-7, -4.084e-7, 3.634e-7
0.377, -7.687e-7, -4.053e-7, 3.634e-7
0.376, -7.666e-7, -4.062e-7, 3.603e-7
0.375, -7.696e-7, -4.087e-7, 3.610e-7
0.374, -7.693e-7, -4.065e-7, 3.628e-7
0.373, -7.656e-7, -4.068e-7, 3.588e-7
0.372, -7.690e-7, -4.074e-7, 3.616e-7
0.371, -7.675e-7, -4.059e-7, 3.616e-7
0.370, -7.705e-7, -4.080e-7, 3.625e-7
0.369, -7.705e-7, -4.080e-7, 3.625e-7
0.368, -7.690e-7, -4.068e-7, 3.622e-7
0.367, -7.711e-7, -4.087e-7, 3.625e-7
0.366, -7.690e-7, -4.068e-7, 3.622e-7
0.365, -7.693e-7, -4.071e-7, 3.622e-7
0.364, -7.717e-7, -4.093e-7, 3.625e-7
0.363, -7.724e-7, -4.087e-7, 3.637e-7
0.362, -7.684e-7, -4.090e-7, 3.594e-7
0.361, -7.705e-7, -4.087e-7, 3.619e-7
0.360, -7.711e-7, -4.087e-7, 3.625e-7
0.359, -7.708e-7, -4.096e-7, 3.613e-7
0.358, -7.693e-7, -4.071e-7, 3.622e-7
0.357, -7.687e-7, -4.068e-7, 3.619e-7
0.356, -7.696e-7, -4.096e-7, 3.600e-7
0.355, -7.727e-7, -4.114e-7, 3.613e-7
0.354, -7.717e-7, -4.096e-7, 3.622e-7
0.353, -7.727e-7, -4.108e-7, 3.619e-7
0.352, -7.724e-7, -4.102e-7, 3.622e-7
0.351, -7.721e-7, -4.108e-7, 3.613e-7
0.350, -7.736e-7, -4.123e-7, 3.613e-7
0.349, -7.721e-7, -4.087e-7, 3.634e-7
0.348, -7.739e-7, -4.126e-7, 3.613e-7
0.347, -7.763e-7, -4.148e-7, 3.616e-7
0.346, -7.775e-7, -4.129e-7, 3.646e-7
0.345, -7.733e-7, -4.120e-7, 3.613e-7
0.344, -7.769e-7, -4.145e-7, 3.625e-7
0.343, -7.736e-7, -4.117e-7, 3.619e-7
0.342, -7.754e-7, -4.142e-7, 3.613e-7
0.341, -7.797e-7, -4.151e-7, 3.646e-7
0.340, -7.769e-7, -4.132e-7, 3.637e-7
0.339, -7.766e-7, -4.151e-7, 3.616e-7
0.338, -7.766e-7, -4.132e-7, 3.634e-7
0.337, -7.763e-7, -4.135e-7, 3.628e-7
0.336, -7.794e-7, -4.172e-7, 3.622e-7
0.335, -7.803e-7, -4.151e-7, 3.652e-7
0.334, -7.775e-7, -4.145e-7, 3.631e-7
0.333, -7.794e-7, -4.172e-7, 3.622e-7
0.332, -7.809e-7, -4.160e-7, 3.649e-7
0.331, -7.806e-7, -4.157e-7, 3.649e-7
0.330, -7.797e-7, -4.166e-7, 3.631e-7
0.329, -7.830e-7, -4.172e-7, 3.658e-7
0.328, -7.815e-7, -4.163e-7, 3.652e-7
0.327, -7.797e-7, -4.169e-7, 3.628e-7
0.326, -7.815e-7, -4.178e-7, 3.637e-7
0.325, -7.833e-7, -4.181e-7, 3.652e-7
0.324, -7.849e-7, -4.203e-7, 3.646e-7
0.323, -7.852e-7, -4.181e-7, 3.671e-7
0.322, -7.836e-7, -4.196e-7, 3.640e-7
0.321, -7.879e-7, -4.209e-7, 3.671e-7
0.320, -7.858e-7, -4.203e-7, 3.655e-7
0.319, -7.864e-7, -4.199e-7, 3.664e-7
0.318, -7.882e-7, -4.215e-7, 3.667e-7
0.317, -7.870e-7, -4.224e-7, 3.646e-7
0.316, -7.855e-7, -4.209e-7, 3.646e-7
0.315, -7.891e-7, -4.218e-7, 3.674e-7
0.314, -7.885e-7, -4.224e-7, 3.661e-7
0.313, -7.901e-7, -4.239e-7, 3.661e-7
0.312, -7.946e-7, -4.248e-7, 3.698e-7
0.311, -7.901e-7, -4.230e-7, 3.671e-7
0.310, -7.925e-7, -4.264e-7, 3.661e-7
0.309, -7.955e-7, -4.245e-7, 3.710e-7
0.308, -7.931e-7, -4.257e-7, 3.674e-7
0.307, -7.937e-7, -4.261e-7, 3.677e-7
0.306, -7.943e-7, -4.257e-7, 3.686e-7
0.305, -7.922e-7, -4.257e-7, 3.664e-7
0.304, -7.931e-7, -4.267e-7, 3.664e-7
0.303, -7.968e-7, -4.267e-7, 3.701e-7
0.302, -7.955e-7, -4.282e-7, 3.674e-7
0.301, -7.977e-7, -4.288e-7, 3.689e-7
0.300, -7.971e-7, -4.264e-7, 3.707e-7
0.299, -7.965e-7, -4.291e-7, 3.674e-7
0.298, -7.977e-7, -4.279e-7, 3.698e-7
0.297, -7.968e-7, -4.267e-7, 3.701e-7
0.296, -7.983e-7, -4.303e-7, 3.680e-7
0.295, -7.998e-7, -4.288e-7, 3.710e-7
0.294, -7.977e-7, -4.297e-7, 3.680e-7
0.293, -8.026e-7, -4.315e-7, 3.710e-7
0.292, -7.992e-7, -4.297e-7, 3.695e-7
0.291, -7.983e-7, -4.300e-7, 3.683e-7
0.290, -8.038e-7, -4.337e-7, 3.701e-7
0.289, -8.007e-7, -4.291e-7, 3.716e-7
0.288, -7.986e-7, -4.300e-7, 3.686e-7
0.287, -8.032e-7, -4.319e-7, 3.713e-7
0.286, -8.035e-7, -4.303e-7, 3.732e-7
0.285, -8.013e-7, -4.315e-7, 3.698e-7
0.284, -8.041e-7, -4.343e-7, 3.698e-7
0.283, -8.029e-7, -4.309e-7, 3.719e-7
0.282, -8.029e-7, -4.331e-7, 3.698e-7
0.281, -8.044e-7, -4.343e-7, 3.701e-7
0.280, -8.020e-7, -4.315e-7, 3.704e-7
0.279, -8.047e-7, -4.346e-7, 3.701e-7
0.278, -8.062e-7, -4.340e-7, 3.722e-7
0.277, -8.050e-7, -4.340e-7, 3.710e-7
0.276, -8.059e-7, -4.352e-7, 3.707e-7
0.275, -8.065e-7, -4.361e-7, 3.704e-7
0.274, -8.041e-7, -4.340e-7, 3.701e-7
0.273, -8.074e-7, -4.364e-7, 3.710e-7
0.272, -8.081e-7, -4.358e-7, 3.722e-7
0.271, -8.087e-7, -4.361e-7, 3.725e-7
0.270, -8.084e-7, -4.370e-7, 3.713e-7
0.269, -8.087e-7, -4.358e-7, 3.729e-7
0.268, -8.065e-7, -4.358e-7, 3.707e-7
0.267, -8.074e-7, -4.358e-7, 3.716e-7
0.266, -8.087e-7, -4.373e-7, 3.713e-7
0.265, -8.084e-7, -4.370e-7, 3.713e-7
0.264, -8.099e-7, -4.386e-7, 3.713e-7
0.263, -8.090e-7, -4.370e-7, 3.719e-7
0.262, -8.105e-7, -4.395e-7, 3.710e-7
0.261, -8.114e-7, -4.389e-7, 3.725e-7
0.260, -8.087e-7, -4.376e-7, 3.710e-7
0.259, -8.117e-7, -4.395e-7, 3.722e-7
0.258, -8.099e-7, -4.386e-7, 3.713e-7
0.257, -8.114e-7, -4.389e-7, 3.725e-7
0.256, -8.136e-7, -4.422e-7, 3.713e-7
0.255, -8.145e-7, -4.407e-7, 3.738e-7
0.254, -8.126e-7, -4.413e-7, 3.713e-7
0.253, -8.142e-7, -4.416e-7, 3.725e-7
0.252, -8.169e-7, -4.425e-7, 3.744e-7
0.251, -8.157e-7, -4.428e-7, 3.729e-7
0.250, -8.187e-7, -4.453e-7, 3.735e-7
0.249, -8.178e-7, -4.428e-7, 3.750e-7
0.248, -8.163e-7, -4.438e-7, 3.725e-7
0.247, -8.203e-7, -4.447e-7, 3.756e-7
0.246, -8.197e-7, -4.438e-7, 3.759e-7
0.245, -8.200e-7, -4.465e-7, 3.735e-7
0.244, -8.230e-7, -4.465e-7, 3.765e-7
0.243, -8.209e-7, -4.453e-7, 3.756e-7
0.242, -8.203e-7, -4.462e-7, 3.741e-7
0.241, -8.233e-7, -4.477e-7, 3.756e-7
0.240, -8.212e-7, -4.462e-7, 3.750e-7
0.239, -8.239e-7, -4.496e-7, 3.744e-7
0.238, -8.273e-7, -4.502e-7, 3.771e-7
0.237, -8.251e-7, -4.489e-7, 3.762e-7
0.236, -8.270e-7, -4.508e-7, 3.762e-7
0.235, -8.285e-7, -4.505e-7, 3.780e-7
0.234, -8.276e-7, -4.505e-7, 3.771e-7
0.233, -8.282e-7, -4.517e-7, 3.765e-7
0.232, -8.303e-7, -4.517e-7, 3.786e-7
0.231, -8.261e-7, -4.486e-7, 3.774e-7
0.230, -8.319e-7, -4.538e-7, 3.780e-7
0.229, -8.334e-7, -4.535e-7, 3.799e-7
0.228, -8.325e-7, -4.538e-7, 3.786e-7
0.227, -8.352e-7, -4.560e-7, 3.793e-7
0.226, -8.343e-7, -4.541e-7, 3.802e-7
0.225, -8.358e-7, -4.544e-7, 3.814e-7
0.224, -8.386e-7, -4.575e-7, 3.811e-7
0.223, -8.364e-7, -4.575e-7, 3.790e-7
0.222, -8.367e-7, -4.578e-7, 3.790e-7
0.221, -8.395e-7, -4.569e-7, 3.826e-7
0.220, -8.383e-7, -4.578e-7, 3.805e-7
0.219, -8.404e-7, -4.593e-7, 3.811e-7
0.218, -8.432e-7, -4.584e-7, 3.848e-7
0.217, -8.428e-7, -4.587e-7, 3.841e-7
0.216, -8.435e-7, -4.615e-7, 3.820e-7
0.215, -8.453e-7, -4.608e-7, 3.844e-7
0.214, -8.428e-7, -4.608e-7, 3.820e-7
0.213, -8.459e-7, -4.627e-7, 3.832e-7
0.212, -8.465e-7, -4.618e-7, 3.848e-7
0.211, -8.468e-7, -4.639e-7, 3.829e-7
0.210, -8.480e-7, -4.633e-7, 3.848e-7
0.209, -8.480e-7, -4.630e-7, 3.851e-7
0.208, -8.477e-7, -4.651e-7, 3.826e-7
0.207, -8.541e-7, -4.672e-7, 3.869e-7
0.206, -8.514e-7, -4.651e-7, 3.863e-7
0.205, -8.511e-7, -4.669e-7, 3.841e-7
0.204, -8.526e-7, -4.676e-7, 3.851e-7
0.203, -8.538e-7, -4.666e-7, 3.872e-7
0.202, -8.538e-7, -4.679e-7, 3.860e-7
0.201, -8.557e-7, -4.691e-7, 3.866e-7
0.200, -8.541e-7, -4.682e-7, 3.860e-7
0.199, -8.587e-7, -4.706e-7, 3.881e-7
0.198, -8.584e-7, -4.700e-7, 3.884e-7
0.197, -8.572e-7, -4.709e-7, 3.863e-7
0.196, -8.645e-7, -4.740e-7, 3.905e-7
0.195, -8.618e-7, -4.712e-7, 3.905e-7
0.194, -8.587e-7, -4.721e-7, 3.866e-7
0.193, -8.642e-7, -4.743e-7, 3.899e-7
0.192, -8.633e-7, -4.724e-7, 3.909e-7
0.191, -8.627e-7, -4.740e-7, 3.887e-7
0.190, -8.648e-7, -4.752e-7, 3.896e-7
0.189, -8.633e-7, -4.730e-7, 3.902e-7
0.188, -8.627e-7, -4.740e-7, 3.887e-7
0.187, -8.651e-7, -4.767e-7, 3.884e-7
0.186, -8.688e-7, -4.764e-7, 3.924e-7
0.185, -8.666e-7, -4.758e-7, 3.909e-7
0.184, -8.700e-7, -4.798e-7, 3.902e-7
0.183, -8.706e-7, -4.785e-7, 3.921e-7
0.182, -8.688e-7, -4.785e-7, 3.902e-7
0.181, -8.715e-7, -4.795e-7, 3.921e-7
0.180, -8.712e-7, -4.788e-7, 3.924e-7
0.179, -8.709e-7, -4.795e-7, 3.915e-7
0.178, -8.721e-7, -4.801e-7, 3.921e-7
0.177, -8.724e-7, -4.804e-7, 3.921e-7
0.176, -8.740e-7, -4.825e-7, 3.915e-7
0.175, -8.761e-7, -4.831e-7, 3.930e-7
0.174, -8.749e-7, -4.828e-7, 3.921e-7
0.173, -8.770e-7, -4.834e-7, 3.936e-7
0.172, -8.767e-7, -4.828e-7, 3.939e-7
0.171, -8.761e-7, -4.834e-7, 3.927e-7
0.170, -8.813e-7, -4.871e-7, 3.942e-7
0.169, -8.786e-7, -4.843e-7, 3.942e-7
0.168, -8.810e-7, -4.883e-7, 3.927e-7
0.167, -8.813e-7, -4.862e-7, 3.951e-7
0.166, -8.825e-7, -4.877e-7, 3.948e-7
0.165, -8.843e-7, -4.898e-7, 3.945e-7
0.164, -8.856e-7, -4.892e-7, 3.963e-7
0.163, -8.843e-7, -4.895e-7, 3.948e-7
0.162, -8.871e-7, -4.914e-7, 3.957e-7
0.161, -8.911e-7, -4.926e-7, 3.985e-7
0.160, -8.892e-7, -4.929e-7, 3.963e-7
0.159, -8.914e-7, -4.941e-7, 3.973e-7
0.158, -8.917e-7, -4.938e-7, 3.979e-7
0.157, -8.889e-7, -4.914e-7, 3.976e-7
0.156, -8.972e-7, -4.969e-7, 4.003e-7
0.155, -8.917e-7, -4.944e-7, 3.973e-7
0.154, -8.950e-7, -4.978e-7, 3.973e-7
0.153, -8.972e-7, -4.975e-7, 3.997e-7
0.152, -8.981e-7, -4.969e-7, 4.012e-7
0.151, -9.014e-7, -5.014e-7, 4.000e-7
0.150, -9.030e-7, -5.005e-7, 4.025e-7
0.149, -9.036e-7, -5.005e-7, 4.031e-7
0.148, -9.039e-7, -5.023e-7, 4.015e-7
0.147, -9.072e-7, -5.042e-7, 4.031e-7
0.146, -9.036e-7, -5.017e-7, 4.018e-7
0.145, -9.075e-7, -5.057e-7, 4.018e-7
0.144, -9.118e-7, -5.048e-7, 4.070e-7
0.143, -9.103e-7, -5.048e-7, 4.055e-7
0.142, -9.127e-7, -5.088e-7, 4.040e-7
0.141, -9.155e-7, -5.094e-7, 4.061e-7
0.140, -9.164e-7, -5.100e-7, 4.064e-7
0.139, -9.158e-7, -5.109e-7, 4.049e-7
0.138, -9.179e-7, -5.124e-7, 4.055e-7
0.137, -9.213e-7, -5.130e-7, 4.082e-7
0.136, -9.201e-7, -5.130e-7, 4.070e-7
0.135, -9.201e-7, -5.127e-7, 4.073e-7
0.134, -9.228e-7, -5.152e-7, 4.076e-7
0.133, -9.258e-7, -5.173e-7, 4.086e-7
0.132, -9.262e-7, -5.179e-7, 4.082e-7
0.131, -9.283e-7, -5.185e-7, 4.098e-7
0.130, -9.301e-7, -5.185e-7, 4.116e-7
0.129, -9.320e-7, -5.216e-7, 4.104e-7
0.128, -9.341e-7, -5.216e-7, 4.125e-7
0.127, -9.371e-7, -5.237e-7, 4.134e-7
0.126, -9.350e-7, -5.234e-7, 4.116e-7
0.125, -9.396e-7, -5.265e-7, 4.131e-7
0.124, -9.432e-7, -5.271e-7, 4.162e-7
0.123, -9.417e-7, -5.277e-7, 4.140e-7
0.122, -9.451e-7, -5.298e-7, 4.153e-7
0.121, -9.493e-7, -5.310e-7, 4.183e-7
0.120, -9.460e-7, -5.301e-7, 4.159e-7
0.119, -9.503e-7, -5.329e-7, 4.174e-7
0.118, -9.518e-7, -5.319e-7, 4.198e-7
0.117, -9.509e-7, -5.335e-7, 4.174e-7
0.116, -9.542e-7, -5.353e-7, 4.189e-7
0.115, -9.558e-7, -5.353e-7, 4.205e-7
0.114, -9.533e-7, -5.356e-7, 4.177e-7
0.113, -9.612e-7, -5.408e-7, 4.205e-7
0.112, -9.573e-7, -5.393e-7, 4.180e-7
0.111, -9.640e-7, -5.438e-7, 4.201e-7
0.110, -9.640e-7, -5.411e-7, 4.229e-7
0.109, -9.664e-7, -5.417e-7, 4.247e-7
0.108, -9.704e-7, -5.454e-7, 4.250e-7
0.107, -9.704e-7, -5.454e-7, 4.250e-7
0.106, -9.719e-7, -5.457e-7, 4.263e-7
0.105, -9.762e-7, -5.503e-7, 4.259e-7
0.104, -9.777e-7, -5.496e-7, 4.281e-7
0.103, -9.735e-7, -5.484e-7, 4.250e-7
0.102, -9.799e-7, -5.521e-7, 4.278e-7
0.101, -9.832e-7, -5.518e-7, 4.314e-7
0.100, -9.832e-7, -5.533e-7, 4.299e-7
0.099, -9.847e-7, -5.557e-7, 4.290e-7
0.098, -9.866e-7, -5.551e-7, 4.314e-7
0.097, -9.890e-7, -5.579e-7, 4.311e-7
0.096, -9.924e-7, -5.603e-7, 4.321e-7
0.095, -9.948e-7, -5.597e-7, 4.351e-7
0.094, -9.921e-7, -5.600e-7, 4.321e-7
0.093, -9.957e-7, -5.618e-7, 4.339e-7
0.092, -9.985e-7, -5.625e-7, 4.360e-7
0.091, -9.982e-7, -5.643e-7, 4.339e-7
0.090, -1.002e-6, -5.661e-7, 4.363e-7
0.089, -1.003e-6, -5.655e-7, 4.372e-7
0.088, -1.004e-6, -5.667e-7, 4.375e-7
0.087, -1.007e-6, -5.680e-7, 4.391e-7
0.086, -1.008e-6, -5.695e-7, 4.382e-7
0.085, -1.010e-6, -5.710e-7, 4.391e-7
0.084, -1.012e-6, -5.722e-7, 4.400e-7
0.083, -1.015e-6, -5.738e-7, 4.412e-7
0.082, -1.019e-6, -5.762e-7, 4.427e-7
0.081, -1.017e-6, -5.750e-7, 4.418e-7
0.080, -1.022e-6, -5.777e-7, 4.440e-7
0.079, -1.023e-6, -5.783e-7, 4.443e-7
0.078, -1.023e-6, -5.792e-7, 4.440e-7
0.077, -1.027e-6, -5.835e-7, 4.440e-7
0.076, -1.027e-6, -5.817e-7, 4.458e-7
0.075, -1.029e-6, -5.832e-7, 4.458e-7
0.074, -1.032e-6, -5.853e-7, 4.470e-7
0.073, -1.032e-6, -5.829e-7, 4.491e-7
0.072, -1.035e-6, -5.866e-7, 4.482e-7
0.071, -1.038e-6, -5.890e-7, 4.488e-7
0.070, -1.039e-6, -5.890e-7, 4.504e-7
0.069, -1.041e-6, -5.905e-7, 4.507e-7
0.068, -1.046e-6, -5.939e-7, 4.522e-7
0.067, -1.046e-6, -5.930e-7, 4.534e-7
0.066, -1.049e-6, -5.951e-7, 4.543e-7
0.065, -1.051e-6, -5.969e-7, 4.543e-7
0.064, -1.052e-6, -5.960e-7, 4.559e-7
0.063, -1.052e-6, -5.982e-7, 4.537e-7
0.062, -1.058e-6, -6.015e-7, 4.565e-7
0.061, -1.061e-6, -6.024e-7, 4.589e-7
0.060, -1.060e-6, -6.009e-7, 4.592e-7
0.059, -1.064e-6, -6.040e-7, 4.601e-7
0.058, -1.067e-6, -6.052e-7, 4.620e-7
0.057, -1.069e-6, -6.079e-7, 4.610e-7
0.056, -1.073e-6, -6.098e-7, 4.632e-7
0.055, -1.072e-6, -6.085e-7, 4.632e-7
0.054, -1.074e-6, -6.116e-7, 4.623e-7
0.053, -1.078e-6, -6.119e-7, 4.665e-7
0.052, -1.081e-6, -6.134e-7, 4.671e-7
0.051, -1.082e-6, -6.156e-7, 4.665e-7
0.050, -1.088e-6, -6.165e-7, 4.717e-7
0.049, -1.088e-6, -6.177e-7, 4.708e-7
0.048, -1.091e-6, -6.214e-7, 4.699e-7
0.047, -1.095e-6, -6.207e-7, 4.745e-7
0.046, -1.096e-6, -6.217e-7, 4.739e-7
0.045, -1.099e-6, -6.253e-7, 4.742e-7
0.044, -1.100e-6, -6.256e-7, 4.742e-7
0.043, -1.101e-6, -6.244e-7, 4.766e-7
0.042, -1.108e-6, -6.299e-7, 4.781e-7
0.041, -1.109e-6, -6.293e-7, 4.797e-7
0.040, -1.113e-6, -6.323e-7, 4.806e-7
0.039, -1.116e-6, -6.342e-7, 4.818e-7
0.038, -1.117e-6, -6.336e-7, 4.836e-7
0.037, -1.117e-6, -6.345e-7, 4.827e-7
0.036, -1.123e-6, -6.369e-7, 4.858e-7
0.035, -1.123e-6, -6.372e-7, 4.855e-7
0.034, -1.126e-6, -6.394e-7, 4.867e-7
0.033, -1.129e-6, -6.403e-7, 4.885e-7
0.032, -1.130e-6, -6.397e-7, 4.906e-7
0.031, -1.135e-6, -6.445e-7, 4.909e-7
0.030, -1.138e-6, -6.452e-7, 4.931e-7
0.029, -1.139e-6, -6.449e-7, 4.943e-7
0.028, -1.140e-6, -6.476e-7, 4.925e-7
0.027, -1.142e-6, -6.464e-7, 4.958e-7
0.026, -1.146e-6, -6.488e-7, 4.977e-7
0.025, -1.150e-6, -6.516e-7, 4.983e-7
0.024, -1.155e-6, -6.522e-7, 5.032e-7
0.023, -1.153e-6, -6.534e-7, 4.995e-7
0.022, -1.159e-6, -6.568e-7, 5.025e-7
0.021, -1.159e-6, -6.549e-7, 5.044e-7
0.020, -1.161e-6, -6.580e-7, 5.025e-7
0.019, -1.166e-6, -6.595e-7, 5.068e-7
0.018, -1.166e-6, -6.583e-7, 5.077e-7
0.017, -1.169e-6, -6.613e-7, 5.074e-7
0.016, -1.173e-6, -6.626e-7, 5.105e-7
0.015, -1.174e-6, -6.613e-7, 5.123e-7
0.014, -1.173e-6, -6.659e-7, 5.074e-7
0.013, -1.179e-6, -6.659e-7, 5.135e-7
0.012, -1.178e-6, -6.653e-7, 5.129e-7
0.011, -1.181e-6, -6.680e-7, 5.126e-7
0.010, -1.183e-6, -6.674e-7, 5.157e-7
0.009, -1.186e-6, -6.702e-7, 5.157e-7
0.008, -1.189e-6, -6.720e-7, 5.169e-7
0.007, -1.190e-6, -6.711e-7, 5.193e-7
0.006, -1.192e-6, -6.720e-7, 5.202e-7
0.005, -1.197e-6, -6.760e-7, 5.208e-7
0.004, -1.196e-6, -6.732e-7, 5.230e-7
0.003, -1.195e-6, -6.723e-7, 5.224e-7
0.002, -1.202e-6, -6.775e-7, 5.242e-7
0.001, -1.206e-6, -6.769e-7, 5.291e-7
0.000, -1.204e-6, -6.784e-7, 5.254e-7
-0.001, -1.208e-6, -6.806e-7, 5.279e-7
-0.002, -1.210e-6, -6.787e-7, 5.315e-7
-0.003, -1.211e-6, -6.812e-7, 5.300e-7
-0.004, -1.212e-6, -6.803e-7, 5.315e-7
-0.005, -1.216e-6, -6.824e-7, 5.337e-7
-0.006, -1.215e-6, -6.812e-7, 5.340e-7
-0.007, -1.217e-6, -6.824e-7, 5.343e-7
-0.008, -1.218e-6, -6.815e-7, 5.367e-7
-0.009, -1.224e-6, -6.867e-7, 5.370e-7
-0.010, -1.223e-6, -6.839e-7, 5.395e-7
-0.011, -1.226e-6, -6.848e-7, 5.410e-7
-0.012, -1.226e-6, -6.864e-7, 5.395e-7
-0.013, -1.228e-6, -6.867e-7, 5.416e-7
-0.014, -1.232e-6, -6.888e-7, 5.428e-7
-0.015, -1.236e-6, -6.900e-7, 5.456e-7
-0.016, -1.232e-6, -6.876e-7, 5.443e-7
-0.017, -1.237e-6, -6.915e-7, 5.453e-7
-0.018, -1.239e-6, -6.912e-7, 5.474e-7
-0.019, -1.237e-6, -6.888e-7, 5.486e-7
-0.020, -1.241e-6, -6.922e-7, 5.489e-7
-0.021, -1.242e-6, -6.912e-7, 5.505e-7
-0.022, -1.242e-6, -6.906e-7, 5.517e-7
-0.023, -1.247e-6, -6.931e-7, 5.535e-7
-0.024, -1.247e-6, -6.922e-7, 5.553e-7
-0.025, -1.249e-6, -6.940e-7, 5.547e-7
-0.026, -1.249e-6, -6.946e-7, 5.541e-7
-0.027, -1.252e-6, -6.946e-7, 5.575e-7
-0.028, -1.254e-6, -6.958e-7, 5.578e-7
-0.029, -1.255e-6, -6.955e-7, 5.590e-7
-0.030, -1.255e-6, -6.943e-7, 5.602e-7
-0.031, -1.255e-6, -6.964e-7, 5.584e-7
-0.032, -1.261e-6, -6.980e-7, 5.627e-7
-0.033, -1.262e-6, -6.967e-7, 5.648e-7
-0.034, -1.262e-6, -6.986e-7, 5.639e-7
-0.035, -1.266e-6, -6.998e-7, 5.663e-7
-0.036, -1.265e-6, -6.986e-7, 5.663e-7
-0.037, -1.262e-6, -6.976e-7, 5.642e-7
-0.038, -1.267e-6, -6.970e-7, 5.697e-7
-0.039, -1.268e-6, -6.980e-7, 5.703e-7
-0.040, -1.270e-6, -6.998e-7, 5.703e-7
-0.041, -1.274e-6, -7.016e-7, 5.724e-7
-0.042, -1.272e-6, -6.992e-7, 5.724e-7
-0.043, -1.277e-6, -7.041e-7, 5.733e-7
-0.044, -1.273e-6, -6.992e-7, 5.743e-7
-0.045, -1.274e-6, -6.976e-7, 5.761e-7
-0.046, -1.277e-6, -7.013e-7, 5.761e-7
-0.047, -1.281e-6, -7.022e-7, 5.785e-7
-0.048, -1.281e-6, -7.016e-7, 5.797e-7
-0.049, -1.280e-6, -7.016e-7, 5.782e-7
-0.050, -1.283e-6, -7.013e-7, 5.819e-7
-0.051, -1.284e-6, -7.025e-7, 5.813e-7
-0.052, -1.285e-6, -7.028e-7, 5.822e-7
-0.053, -1.284e-6, -7.010e-7, 5.834e-7
-0.054, -1.288e-6, -7.037e-7, 5.843e-7
-0.055, -1.288e-6, -7.025e-7, 5.852e-7
-0.056, -1.285e-6, -7.004e-7, 5.846e-7
-0.057, -1.294e-6, -7.044e-7, 5.895e-7
-0.058, -1.290e-6, -7.025e-7, 5.874e-7
-0.059, -1.290e-6, -7.010e-7, 5.886e-7
-0.060, -1.293e-6, -7.025e-7, 5.904e-7
-0.061, -1.293e-6, -7.010e-7, 5.920e-7
-0.062, -1.294e-6, -7.016e-7, 5.923e-7
-0.063, -1.297e-6, -7.034e-7, 5.932e-7
-0.064, -1.300e-6, -7.034e-7, 5.968e-7
-0.065, -1.297e-6, -7.022e-7, 5.950e-7
-0.066, -1.294e-6, -6.986e-7, 5.953e-7
-0.067, -1.296e-6, -6.995e-7, 5.965e-7
-0.068, -1.296e-6, -6.995e-7, 5.962e-7
-0.069, -1.301e-6, -7.016e-7, 5.999e-7
-0.070, -1.301e-6, -7.013e-7, 5.999e-7
-0.071, -1.296e-6, -7.004e-7, 5.959e-7
-0.072, -1.300e-6, -7.001e-7, 6.002e-7
-0.073, -1.298e-6, -6.986e-7, 5.999e-7
-0.074, -1.300e-6, -6.992e-7, 6.008e-7
-0.075, -1.299e-6, -6.986e-7, 6.002e-7
-0.076, -1.300e-6, -6.970e-7, 6.032e-7
-0.077, -1.300e-6, -6.983e-7, 6.017e-7
-0.078, -1.303e-6, -6.986e-7, 6.045e-7
-0.079, -1.301e-6, -6.964e-7, 6.042e-7
-0.080, -1.302e-6, -6.970e-7, 6.051e-7
-0.081, -1.304e-6, -6.943e-7, 6.096e-7
-0.082, -1.301e-6, -6.946e-7, 6.060e-7
-0.083, -1.301e-6, -6.970e-7, 6.042e-7
-0.084, -1.302e-6, -6.946e-7, 6.075e-7
-0.085, -1.299e-6, -6.918e-7, 6.069e-7
-0.086, -1.300e-6, -6.937e-7, 6.060e-7
-0.087, -1.300e-6, -6.918e-7, 6.084e-7
-0.088, -1.299e-6, -6.925e-7, 6.069e-7
-0.089, -1.303e-6, -6.937e-7, 6.090e-7
-0.090, -1.301e-6, -6.897e-7, 6.118e-7
-0.091, -1.298e-6, -6.922e-7, 6.063e-7
-0.092, -1.300e-6, -6.906e-7, 6.093e-7
-0.093, -1.300e-6, -6.876e-7, 6.121e-7
-0.094, -1.297e-6, -6.894e-7, 6.072e-7
-0.095, -1.302e-6, -6.894e-7, 6.127e-7
-0.096, -1.296e-6, -6.857e-7, 6.103e-7
-0.097, -1.297e-6, -6.854e-7, 6.118e-7
-0.098, -1.301e-6, -6.873e-7, 6.133e-7
-0.099, -1.300e-6, -6.839e-7, 6.164e-7
-0.100, -1.294e-6, -6.827e-7, 6.118e-7
-0.101, -1.297e-6, -6.839e-7, 6.127e-7
-0.102, -1.295e-6, -6.827e-7, 6.127e-7
-0.103, -1.295e-6, -6.821e-7, 6.127e-7
-0.104, -1.292e-6, -6.803e-7, 6.118e-7
-0.105, -1.294e-6, -6.778e-7, 6.158e-7
-0.106, -1.294e-6, -6.809e-7, 6.130e-7
-0.107, -1.291e-6, -6.775e-7, 6.130e-7
-0.108, -1.290e-6, -6.769e-7, 6.130e-7
-0.109, -1.290e-6, -6.778e-7, 6.124e-7
-0.110, -1.287e-6, -6.741e-7, 6.133e-7
-0.111, -1.287e-6, -6.763e-7, 6.112e-7
-0.112, -1.288e-6, -6.745e-7, 6.136e-7
-0.113, -1.287e-6, -6.735e-7, 6.139e-7
-0.114, -1.287e-6, -6.738e-7, 6.133e-7
-0.115, -1.287e-6, -6.717e-7, 6.158e-7
-0.116, -1.283e-6, -6.693e-7, 6.142e-7
-0.117, -1.284e-6, -6.702e-7, 6.136e-7
-0.118, -1.283e-6, -6.690e-7, 6.139e-7
-0.119, -1.280e-6, -6.677e-7, 6.127e-7
-0.120, -1.285e-6, -6.702e-7, 6.148e-7
-0.121, -1.283e-6, -6.650e-7, 6.179e-7
-0.122, -1.277e-6, -6.644e-7, 6.127e-7
-0.123, -1.278e-6, -6.659e-7, 6.118e-7
-0.124, -1.281e-6, -6.635e-7, 6.176e-7
-0.125, -1.273e-6, -6.622e-7, 6.106e-7
-0.126, -1.274e-6, -6.619e-7, 6.124e-7
-0.127, -1.273e-6, -6.595e-7, 6.130e-7
-0.128, -1.272e-6, -6.592e-7, 6.124e-7
-0.129, -1.274e-6, -6.613e-7, 6.127e-7
-0.130, -1.272e-6, -6.583e-7, 6.139e-7
-0.131, -1.271e-6, -6.589e-7, 6.121e-7
-0.132, -1.270e-6, -6.574e-7, 6.124e-7
-0.133, -1.267e-6, -6.549e-7, 6.121e-7
-0.134, -1.263e-6, -6.522e-7, 6.109e-7
-0.135, -1.268e-6, -6.540e-7, 6.142e-7
-0.136, -1.265e-6, -6.519e-7, 6.136e-7
-0.137, -1.268e-6, -6.574e-7, 6.103e-7
-0.138, -1.268e-6, -6.555e-7, 6.124e-7
-0.139, -1.261e-6, -6.482e-7, 6.124e-7
-0.140, -1.263e-6, -6.528e-7, 6.106e-7
-0.141, -1.262e-6, -6.500e-7, 6.115e-7
-0.142, -1.255e-6, -6.445e-7, 6.100e-7
-0.143, -1.258e-6, -6.479e-7, 6.106e-7
-0.144, -1.258e-6, -6.467e-7, 6.109e-7
-0.145, -1.255e-6, -6.445e-7, 6.100e-7
-0.146, -1.255e-6, -6.470e-7, 6.081e-7
-0.147, -1.254e-6, -6.439e-7, 6.100e-7
-0.148, -1.255e-6, -6.433e-7, 6.112e-7
-0.149, -1.252e-6, -6.449e-7, 6.069e-7
-0.150, -1.248e-6, -6.406e-7, 6.075e-7
-0.151, -1.251e-6, -6.397e-7, 6.109e-7
-0.152, -1.251e-6, -6.421e-7, 6.093e-7
-0.153, -1.248e-6, -6.415e-7, 6.069e-7
-0.154, -1.245e-6, -6.394e-7, 6.057e-7
-0.155, -1.246e-6, -6.391e-7, 6.069e-7
-0.156, -1.247e-6, -6.391e-7, 6.078e-7
-0.157, -1.243e-6, -6.360e-7, 6.069e-7
-0.158, -1.244e-6, -6.357e-7, 6.087e-7
-0.159, -1.243e-6, -6.369e-7, 6.063e-7
-0.160, -1.242e-6, -6.375e-7, 6.048e-7
-0.161, -1.240e-6, -6.339e-7, 6.060e-7
-0.162, -1.238e-6, -6.342e-7, 6.042e-7
-0.163, -1.240e-6, -6.330e-7, 6.066e-7
-0.164, -1.235e-6, -6.293e-7, 6.057e-7
-0.165, -1.235e-6, -6.326e-7, 6.023e-7
-0.166, -1.232e-6, -6.287e-7, 6.035e-7
-0.167, -1.234e-6, -6.293e-7, 6.048e-7
-0.168, -1.233e-6, -6.299e-7, 6.026e-7
-0.169, -1.232e-6, -6.293e-7, 6.023e-7
-0.170, -1.229e-6, -6.262e-7, 6.023e-7
-0.171, -1.229e-6, -6.278e-7, 6.011e-7
-0.172, -1.228e-6, -6.269e-7, 6.014e-7
-0.173, -1.227e-6, -6.256e-7, 6.011e-7
-0.174, -1.227e-6, -6.272e-7, 5.999e-7
-0.175, -1.224e-6, -6.244e-7, 5.996e-7
-0.176, -1.220e-6, -6.229e-7, 5.968e-7
-0.177, -1.219e-6, -6.241e-7, 5.950e-7
-0.178, -1.225e-6, -6.244e-7, 6.008e-7
-0.179, -1.218e-6, -6.217e-7, 5.965e-7
-0.180, -1.220e-6, -6.223e-7, 5.981e-7
-0.181, -1.215e-6, -6.171e-7, 5.974e-7
-0.182, -1.213e-6, -6.186e-7, 5.941e-7
-0.183, -1.217e-6, -6.211e-7, 5.956e-7
-0.184, -1.214e-6, -6.186e-7, 5.950e-7
-0.185, -1.208e-6, -6.168e-7, 5.910e-7
-0.186, -1.212e-6, -6.195e-7, 5.926e-7
-0.187, -1.211e-6, -6.162e-7, 5.944e-7
-0.188, -1.207e-6, -6.162e-7, 5.904e-7
-0.189, -1.208e-6, -6.162e-7, 5.913e-7
-0.190, -1.204e-6, -6.140e-7, 5.901e-7
-0.191, -1.204e-6, -6.156e-7, 5.883e-7
-0.192, -1.206e-6, -6.143e-7, 5.916e-7
-0.193, -1.200e-6, -6.110e-7, 5.895e-7
-0.194, -1.199e-6, -6.107e-7, 5.880e-7
-0.195, -1.200e-6, -6.119e-7, 5.883e-7
-0.196, -1.199e-6, -6.110e-7, 5.877e-7
-0.197, -1.195e-6, -6.107e-7, 5.846e-7
-0.198, -1.196e-6, -6.104e-7, 5.855e-7
-0.199, -1.193e-6, -6.079e-7, 5.852e-7
-0.200, -1.195e-6, -6.095e-7, 5.858e-7
-0.201, -1.190e-6, -6.055e-7, 5.843e-7
-0.202, -1.189e-6, -6.070e-7, 5.816e-7
-0.203, -1.190e-6, -6.076e-7, 5.828e-7
-0.204, -1.187e-6, -6.052e-7, 5.819e-7
-0.205, -1.188e-6, -6.055e-7, 5.822e-7
-0.206, -1.187e-6, -6.067e-7, 5.800e-7
-0.207, -1.182e-6, -6.027e-7, 5.797e-7
-0.208, -1.181e-6, -6.040e-7, 5.773e-7
-0.209, -1.186e-6, -6.070e-7, 5.794e-7
-0.210, -1.178e-6, -6.027e-7, 5.755e-7
-0.211, -1.180e-6, -6.052e-7, 5.746e-7
-0.212, -1.179e-6, -6.021e-7, 5.773e-7
-0.213, -1.178e-6, -6.034e-7, 5.743e-7
-0.214, -1.180e-6, -6.043e-7, 5.755e-7
-0.215, -1.177e-6, -6.018e-7, 5.752e-7
-0.216, -1.174e-6, -6.000e-7, 5.739e-7
-0.217, -1.172e-6, -5.991e-7, 5.724e-7
-0.218, -1.170e-6, -5.973e-7, 5.724e-7
-0.219, -1.172e-6, -6.012e-7, 5.712e-7
-0.220, -1.173e-6, -6.012e-7, 5.715e-7
-0.221, -1.170e-6, -5.985e-7, 5.712e-7
-0.222, -1.168e-6, -5.982e-7, 5.697e-7
-0.223, -1.168e-6, -5.985e-7, 5.691e-7
-0.224, -1.169e-6, -5.994e-7, 5.697e-7
-0.225, -1.167e-6, -5.991e-7, 5.678e-7
-0.226, -1.167e-6, -5.966e-7, 5.700e-7
-0.227, -1.162e-6, -5.951e-7, 5.672e-7
-0.228, -1.163e-6, -5.982e-7, 5.645e-7
-0.229, -1.162e-6, -5.954e-7, 5.666e-7
-0.230, -1.162e-6, -5.954e-7, 5.663e-7
-0.231, -1.161e-6, -5.969e-7, 5.636e-7
-0.232, -1.161e-6, -5.966e-7, 5.642e-7
-0.233, -1.158e-6, -5.939e-7, 5.642e-7
-0.234, -1.157e-6, -5.969e-7, 5.596e-7
-0.235, -1.159e-6, -5.948e-7, 5.639e-7
-0.236, -1.160e-6, -5.960e-7, 5.642e-7
-0.237, -1.157e-6, -5.973e-7, 5.602e-7
-0.238, -1.156e-6, -5.948e-7, 5.611e-7
-0.239, -1.152e-6, -5.905e-7, 5.614e-7
-0.240, -1.157e-6, -5.954e-7, 5.614e-7
-0.241, -1.154e-6, -5.924e-7, 5.614e-7
-0.242, -1.153e-6, -5.939e-7, 5.590e-7
-0.243, -1.151e-6, -5.936e-7, 5.578e-7
-0.244, -1.152e-6, -5.933e-7, 5.590e-7
-0.245, -1.150e-6, -5.918e-7, 5.581e-7
-0.246, -1.152e-6, -5.930e-7, 5.587e-7
-0.247, -1.149e-6, -5.911e-7, 5.581e-7
-0.248, -1.149e-6, -5.936e-7, 5.550e-7
-0.249, -1.151e-6, -5.939e-7, 5.572e-7
-0.250, -1.148e-6, -5.918e-7, 5.562e-7
-0.251, -1.148e-6, -5.930e-7, 5.547e-7
-0.252, -1.146e-6, -5.911e-7, 5.550e-7
-0.253, -1.149e-6, -5.942e-7, 5.547e-7
-0.254, -1.145e-6, -5.924e-7, 5.529e-7
-0.255, -1.144e-6, -5.902e-7, 5.535e-7
-0.256, -1.146e-6, -5.924e-7, 5.538e-7
-0.257, -1.143e-6, -5.905e-7, 5.526e-7
-0.258, -1.144e-6, -5.908e-7, 5.535e-7
-0.259, -1.141e-6, -5.902e-7, 5.508e-7
-0.260, -1.144e-6, -5.921e-7, 5.520e-7
-0.261, -1.143e-6, -5.918e-7, 5.517e-7
-0.262, -1.142e-6, -5.905e-7, 5.511e-7
-0.263, -1.141e-6, -5.911e-7, 5.495e-7
-0.264, -1.141e-6, -5.896e-7, 5.511e-7
-0.265, -1.139e-6, -5.908e-7, 5.477e-7
-0.266, -1.141e-6, -5.905e-7, 5.501e-7
-0.267, -1.142e-6, -5.918e-7, 5.501e-7
-0.268, -1.138e-6, -5.902e-7, 5.477e-7
-0.269, -1.140e-6, -5.896e-7, 5.508e-7
-0.270, -1.136e-6, -5.893e-7, 5.471e-7
-0.271, -1.136e-6, -5.899e-7, 5.465e-7
-0.272, -1.136e-6, -5.893e-7, 5.471e-7
-0.273, -1.135e-6, -5.881e-7, 5.468e-7
-0.274, -1.135e-6, -5.896e-7, 5.459e-7
-0.275, -1.134e-6, -5.884e-7, 5.459e-7
-0.276, -1.134e-6, -5.893e-7, 5.446e-7
-0.277, -1.133e-6, -5.896e-7, 5.434e-7
-0.278, -1.132e-6, -5.857e-7, 5.459e-7
-0.279, -1.131e-6, -5.881e-7, 5.428e-7
-0.280, -1.133e-6, -5.899e-7, 5.431e-7
-0.281, -1.133e-6, -5.899e-7, 5.434e-7
-0.282, -1.127e-6, -5.857e-7, 5.416e-7
-0.283, -1.129e-6, -5.872e-7, 5.416e-7
-0.284, -1.128e-6, -5.863e-7, 5.419e-7
-0.285, -1.127e-6, -5.881e-7, 5.385e-7
-0.286, -1.131e-6, -5.908e-7, 5.401e-7
-0.287, -1.125e-6, -5.844e-7, 5.401e-7
-0.288, -1.125e-6, -5.863e-7, 5.392e-7
-0.289, -1.129e-6, -5.902e-7, 5.389e-7
-0.290, -1.126e-6, -5.869e-7, 5.389e-7
-0.291, -1.125e-6, -5.869e-7, 5.379e-7
-0.292, -1.125e-6, -5.866e-7, 5.385e-7
-0.293, -1.124e-6, -5.863e-7, 5.376e-7
-0.294, -1.123e-6, -5.860e-7, 5.373e-7
-0.295, -1.125e-6, -5.875e-7, 5.376e-7
-0.296, -1.121e-6, -5.850e-7, 5.361e-7
-0.297, -1.124e-6, -5.875e-7, 5.367e-7
-0.298, -1.120e-6, -5.838e-7, 5.358e-7
-0.299, -1.118e-6, -5.844e-7, 5.337e-7
-0.300, -1.118e-6, -5.838e-7, 5.346e-7
-0.301, -1.119e-6, -5.841e-7, 5.346e-7
-0.302, -1.117e-6, -5.844e-7, 5.327e-7
-0.303, -1.117e-6, -5.847e-7, 5.321e-7
-0.304, -1.114e-6, -5.811e-7, 5.331e-7
-0.305, -1.119e-6, -5.860e-7, 5.331e-7
-0.306, -1.118e-6, -5.844e-7, 5.340e-7
-0.307, -1.115e-6, -5.829e-7, 5.321e-7
-0.308, -1.114e-6, -5.838e-7, 5.306e-7
-0.309, -1.118e-6, -5.857e-7, 5.321e-7
-0.310, -1.113e-6, -5.826e-7, 5.306e-7
-0.311, -1.114e-6, -5.847e-7, 5.297e-7
-0.312, -1.111e-6, -5.811e-7, 5.300e-7
-0.313, -1.114e-6, -5.838e-7, 5.303e-7
-0.314, -1.114e-6, -5.835e-7, 5.306e-7
-0.315, -1.113e-6, -5.826e-7, 5.303e-7
-0.316, -1.112e-6, -5.835e-7, 5.288e-7
-0.317, -1.112e-6, -5.832e-7, 5.291e-7
-0.318, -1.111e-6, -5.805e-7, 5.303e-7
-0.319, -1.111e-6, -5.832e-7, 5.279e-7
-0.320, -1.111e-6, -5.835e-7, 5.279e-7
-0.321, -1.109e-6, -5.814e-7, 5.279e-7
-0.322, -1.111e-6, -5.847e-7, 5.266e-7
-0.323, -1.111e-6, -5.823e-7, 5.291e-7
-0.324, -1.113e-6, -5.850e-7, 5.279e-7
-0.325, -1.107e-6, -5.829e-7, 5.245e-7
-0.326, -1.111e-6, -5.823e-7, 5.288e-7
-0.327, -1.110e-6, -5.835e-7, 5.260e-7
-0.328, -1.110e-6, -5.850e-7, 5.248e-7
-0.329, -1.109e-6, -5.829e-7, 5.263e-7
-0.330, -1.106e-6, -5.808e-7, 5.254e-7
-0.331, -1.108e-6, -5.844e-7, 5.239e-7
-0.332, -1.109e-6, -5.823e-7, 5.266e-7
-0.333, -1.112e-6, -5.875e-7, 5.245e-7
-0.334, -1.108e-6, -5.835e-7, 5.245e-7
-0.335, -1.109e-6, -5.838e-7, 5.251e-7
-0.336, -1.107e-6, -5.817e-7, 5.248e-7
-0.337, -1.107e-6, -5.835e-7, 5.239e-7
-0.338, -1.106e-6, -5.814e-7, 5.248e-7
-0.339, -1.106e-6, -5.829e-7, 5.230e-7
-0.340, -1.106e-6, -5.826e-7, 5.230e-7
-0.341, -1.109e-6, -5.850e-7, 5.236e-7
-0.342, -1.108e-6, -5.844e-7, 5.233e-7
-0.343, -1.109e-6, -5.844e-7, 5.242e-7
-0.344, -1.108e-6, -5.847e-7, 5.230e-7
-0.345, -1.105e-6, -5.832e-7, 5.221e-7
-0.346, -1.106e-6, -5.841e-7, 5.218e-7
-0.347, -1.106e-6, -5.841e-7, 5.221e-7
-0.348, -1.107e-6, -5.847e-7, 5.221e-7
-0.349, -1.108e-6, -5.844e-7, 5.236e-7
-0.350, -1.105e-6, -5.838e-7, 5.212e-7
-0.351, -1.108e-6, -5.863e-7, 5.218e-7
-0.352, -1.104e-6, -5.829e-7, 5.208e-7
-0.353, -1.105e-6, -5.863e-7, 5.190e-7
-0.354, -1.102e-6, -5.826e-7, 5.190e-7
-0.355, -1.107e-6, -5.854e-7, 5.215e-7
-0.356, -1.105e-6, -5.850e-7, 5.199e-7
-0.357, -1.106e-6, -5.857e-7, 5.202e-7
-0.358, -1.104e-6, -5.860e-7, 5.184e-7
-0.359, -1.103e-6, -5.860e-7, 5.169e-7
-0.360, -1.103e-6, -5.860e-7, 5.172e-7
-0.361, -1.104e-6, -5.850e-7, 5.190e-7
-0.362, -1.103e-6, -5.881e-7, 5.150e-7
-0.363, -1.104e-6, -5.863e-7, 5.178e-7
-0.364, -1.101e-6, -5.838e-7, 5.169e-7
-0.365, -1.100e-6, -5.841e-7, 5.157e-7
-0.366, -1.101e-6, -5.829e-7, 5.178e-7
-0.367, -1.103e-6, -5.863e-7, 5.169e-7
-0.368, -1.102e-6, -5.860e-7, 5.160e-7
-0.369, -1.104e-6, -5.847e-7, 5.193e-7
-0.370, -1.102e-6, -5.872e-7, 5.147e-7
-0.371, -1.101e-6, -5.878e-7, 5.135e-7
-0.372, -1.104e-6, -5.884e-7, 5.160e-7
-0.373, -1.100e-6, -5.869e-7, 5.135e-7
-0.374, -1.102e-6, -5.884e-7, 5.132e-7
-0.375, -1.100e-6, -5.863e-7, 5.138e-7
-0.376, -1.098e-6, -5.866e-7, 5.114e-7
-0.377, -1.102e-6, -5.890e-7, 5.126e-7
-0.378, -1.099e-6, -5.857e-7, 5.138e-7
-0.379, -1.097e-6, -5.875e-7, 5.099e-7
-0.380, -1.100e-6, -5.896e-7, 5.105e-7
-0.381, -1.102e-6, -5.902e-7, 5.117e-7
-0.382, -1.100e-6, -5.908e-7, 5.089e-7
-0.383, -1.099e-6, -5.887e-7, 5.099e-7
-0.384, -1.099e-6, -5.872e-7, 5.117e-7
-0.385, -1.097e-6, -5.884e-7, 5.083e-7
-0.386, -1.096e-6, -5.866e-7, 5.093e-7
-0.387, -1.099e-6, -5.911e-7, 5.083e-7
-0.388, -1.095e-6, -5.899e-7, 5.053e-7
-0.389, -1.095e-6, -5.875e-7, 5.074e-7
-0.390, -1.095e-6, -5.884e-7, 5.068e-7
-0.391, -1.096e-6, -5.902e-7, 5.059e-7
-0.392, -1.097e-6, -5.899e-7, 5.071e-7
-0.393, -1.093e-6, -5.884e-7, 5.047e-7
-0.394, -1.098e-6, -5.936e-7, 5.044e-7
-0.395, -1.092e-6, -5.869e-7, 5.053e-7
-0.396, -1.093e-6, -5.893e-7, 5.038e-7
-0.397, -1.091e-6, -5.893e-7, 5.019e-7
-0.398, -1.092e-6, -5.896e-7, 5.025e-7
-0.399, -1.091e-6, -5.915e-7, 4.998e-7
-0.400, -1.091e-6, -5.902e-7, 5.010e-7
