Mar. 20, 2018   15:55:50
Square Wave Voltammetry
File: c:\users\electrochemist\desktop\2018\20032018_unbufarray_unpap\62_g4_ph9,50_2.txt
Data Source:  Experiment
Instrument Model:  CHI1040A
Header: 
Note: 

Init E (V) = 0.7
Final E (V) = -0.4
Incr E (V) = 0.001
Amplitude (V) = 0.1
Frequency (Hz) = 152
Quiet Time (sec) = 2
Sensitivity (A/V) = 1e-6

Difference:

Forward:

Reverse:

Potential/V, Diff(i/A), For(i/A), Rev(i/A)

0.699, -7.962e-7, -1.886e-7, 6.075e-7
0.698, -9.442e-7, -3.913e-7, 5.529e-7
0.697, -9.463e-7, -4.065e-7, 5.398e-7
0.696, -9.435e-7, -4.096e-7, 5.340e-7
0.695, -9.329e-7, -4.074e-7, 5.254e-7
0.694, -9.301e-7, -4.120e-7, 5.181e-7
0.693, -9.265e-7, -4.087e-7, 5.178e-7
0.692, -9.201e-7, -4.083e-7, 5.117e-7
0.691, -9.173e-7, -4.105e-7, 5.068e-7
0.690, -9.124e-7, -4.083e-7, 5.041e-7
0.689, -9.115e-7, -4.105e-7, 5.010e-7
0.688, -9.103e-7, -4.111e-7, 4.992e-7
0.687, -9.036e-7, -4.080e-7, 4.955e-7
0.686, -8.984e-7, -4.096e-7, 4.888e-7
0.685, -8.990e-7, -4.083e-7, 4.906e-7
0.684, -8.935e-7, -4.077e-7, 4.858e-7
0.683, -8.926e-7, -4.099e-7, 4.827e-7
0.682, -8.920e-7, -4.093e-7, 4.827e-7
0.681, -8.868e-7, -4.068e-7, 4.800e-7
0.680, -8.837e-7, -4.083e-7, 4.754e-7
0.679, -8.822e-7, -4.068e-7, 4.754e-7
0.678, -8.798e-7, -4.080e-7, 4.717e-7
0.677, -8.749e-7, -4.068e-7, 4.681e-7
0.676, -8.740e-7, -4.053e-7, 4.687e-7
0.675, -8.731e-7, -4.071e-7, 4.659e-7
0.674, -8.712e-7, -4.077e-7, 4.635e-7
0.673, -8.682e-7, -4.050e-7, 4.632e-7
0.672, -8.670e-7, -4.080e-7, 4.589e-7
0.671, -8.642e-7, -4.053e-7, 4.589e-7
0.670, -8.615e-7, -4.047e-7, 4.568e-7
0.669, -8.602e-7, -4.059e-7, 4.543e-7
0.668, -8.593e-7, -4.047e-7, 4.546e-7
0.667, -8.569e-7, -4.044e-7, 4.525e-7
0.666, -8.526e-7, -4.050e-7, 4.476e-7
0.665, -8.526e-7, -4.038e-7, 4.488e-7
0.664, -8.517e-7, -4.029e-7, 4.488e-7
0.663, -8.517e-7, -4.059e-7, 4.458e-7
0.662, -8.486e-7, -4.019e-7, 4.467e-7
0.661, -8.444e-7, -4.029e-7, 4.415e-7
0.660, -8.435e-7, -4.029e-7, 4.406e-7
0.659, -8.432e-7, -4.007e-7, 4.424e-7
0.658, -8.398e-7, -4.016e-7, 4.382e-7
0.657, -8.410e-7, -4.019e-7, 4.391e-7
0.656, -8.367e-7, -4.001e-7, 4.366e-7
0.655, -8.331e-7, -4.007e-7, 4.324e-7
0.654, -8.377e-7, -4.029e-7, 4.348e-7
0.653, -8.349e-7, -4.001e-7, 4.348e-7
0.652, -8.319e-7, -4.010e-7, 4.308e-7
0.651, -8.306e-7, -4.007e-7, 4.299e-7
0.650, -8.279e-7, -3.977e-7, 4.302e-7
0.649, -8.251e-7, -3.983e-7, 4.269e-7
0.648, -8.273e-7, -4.007e-7, 4.266e-7
0.647, -8.233e-7, -3.983e-7, 4.250e-7
0.646, -8.236e-7, -3.992e-7, 4.244e-7
0.645, -8.221e-7, -3.980e-7, 4.241e-7
0.644, -8.209e-7, -3.968e-7, 4.241e-7
0.643, -8.175e-7, -3.977e-7, 4.198e-7
0.642, -8.160e-7, -3.977e-7, 4.183e-7
0.641, -8.145e-7, -3.968e-7, 4.177e-7
0.640, -8.169e-7, -3.977e-7, 4.192e-7
0.639, -8.154e-7, -3.961e-7, 4.192e-7
0.638, -8.123e-7, -3.980e-7, 4.144e-7
0.637, -8.123e-7, -3.955e-7, 4.168e-7
0.636, -8.108e-7, -3.952e-7, 4.156e-7
0.635, -8.099e-7, -3.974e-7, 4.125e-7
0.634, -8.084e-7, -3.949e-7, 4.134e-7
0.633, -8.074e-7, -3.949e-7, 4.125e-7
0.632, -8.050e-7, -3.937e-7, 4.113e-7
0.631, -8.041e-7, -3.934e-7, 4.107e-7
0.630, -8.026e-7, -3.937e-7, 4.089e-7
0.629, -8.032e-7, -3.946e-7, 4.086e-7
0.628, -8.013e-7, -3.916e-7, 4.098e-7
0.627, -7.998e-7, -3.922e-7, 4.076e-7
0.626, -8.007e-7, -3.955e-7, 4.052e-7
0.625, -8.007e-7, -3.934e-7, 4.073e-7
0.624, -7.983e-7, -3.931e-7, 4.052e-7
0.623, -7.992e-7, -3.952e-7, 4.040e-7
0.622, -7.959e-7, -3.925e-7, 4.034e-7
0.621, -7.965e-7, -3.916e-7, 4.049e-7
0.620, -7.968e-7, -3.931e-7, 4.037e-7
0.619, -7.959e-7, -3.928e-7, 4.031e-7
0.618, -7.937e-7, -3.934e-7, 4.003e-7
0.617, -7.925e-7, -3.937e-7, 3.988e-7
0.616, -7.925e-7, -3.919e-7, 4.006e-7
0.615, -7.922e-7, -3.922e-7, 4.000e-7
0.614, -7.946e-7, -3.946e-7, 4.000e-7
0.613, -7.897e-7, -3.903e-7, 3.994e-7
0.612, -7.885e-7, -3.916e-7, 3.970e-7
0.611, -7.897e-7, -3.925e-7, 3.973e-7
0.610, -7.876e-7, -3.903e-7, 3.973e-7
0.609, -7.879e-7, -3.931e-7, 3.948e-7
0.608, -7.891e-7, -3.919e-7, 3.973e-7
0.607, -7.870e-7, -3.903e-7, 3.967e-7
0.606, -7.858e-7, -3.937e-7, 3.921e-7
0.605, -7.870e-7, -3.907e-7, 3.964e-7
0.604, -7.855e-7, -3.897e-7, 3.957e-7
0.603, -7.879e-7, -3.943e-7, 3.936e-7
0.602, -7.855e-7, -3.900e-7, 3.954e-7
0.601, -7.830e-7, -3.910e-7, 3.921e-7
0.600, -7.836e-7, -3.922e-7, 3.915e-7
0.599, -7.836e-7, -3.913e-7, 3.924e-7
0.598, -7.809e-7, -3.897e-7, 3.912e-7
0.597, -7.824e-7, -3.910e-7, 3.915e-7
0.596, -7.827e-7, -3.913e-7, 3.915e-7
0.595, -7.840e-7, -3.916e-7, 3.924e-7
0.594, -7.809e-7, -3.913e-7, 3.896e-7
0.593, -7.803e-7, -3.903e-7, 3.899e-7
0.592, -7.809e-7, -3.919e-7, 3.890e-7
0.591, -7.833e-7, -3.937e-7, 3.896e-7
0.590, -7.778e-7, -3.900e-7, 3.878e-7
0.589, -7.772e-7, -3.897e-7, 3.875e-7
0.588, -7.815e-7, -3.910e-7, 3.906e-7
0.587, -7.791e-7, -3.903e-7, 3.887e-7
0.586, -7.812e-7, -3.937e-7, 3.875e-7
0.585, -7.775e-7, -3.900e-7, 3.875e-7
0.584, -7.769e-7, -3.903e-7, 3.866e-7
0.583, -7.794e-7, -3.916e-7, 3.878e-7
0.582, -7.785e-7, -3.903e-7, 3.881e-7
0.581, -7.775e-7, -3.919e-7, 3.857e-7
0.580, -7.785e-7, -3.910e-7, 3.875e-7
0.579, -7.760e-7, -3.897e-7, 3.863e-7
0.578, -7.772e-7, -3.916e-7, 3.857e-7
0.577, -7.800e-7, -3.934e-7, 3.866e-7
0.576, -7.766e-7, -3.913e-7, 3.854e-7
0.575, -7.766e-7, -3.916e-7, 3.851e-7
0.574, -7.785e-7, -3.934e-7, 3.851e-7
0.573, -7.730e-7, -3.885e-7, 3.845e-7
0.572, -7.736e-7, -3.913e-7, 3.823e-7
0.571, -7.778e-7, -3.913e-7, 3.866e-7
0.570, -7.745e-7, -3.900e-7, 3.845e-7
0.569, -7.730e-7, -3.903e-7, 3.826e-7
0.568, -7.745e-7, -3.907e-7, 3.838e-7
0.567, -7.727e-7, -3.897e-7, 3.829e-7
0.566, -7.705e-7, -3.907e-7, 3.799e-7
0.565, -7.757e-7, -3.907e-7, 3.851e-7
0.564, -7.705e-7, -3.897e-7, 3.808e-7
0.563, -7.742e-7, -3.922e-7, 3.820e-7
0.562, -7.693e-7, -3.882e-7, 3.811e-7
0.561, -7.678e-7, -3.894e-7, 3.783e-7
0.560, -7.733e-7, -3.940e-7, 3.793e-7
0.559, -7.696e-7, -3.888e-7, 3.808e-7
0.558, -7.690e-7, -3.910e-7, 3.780e-7
0.557, -7.711e-7, -3.910e-7, 3.802e-7
0.556, -7.702e-7, -3.888e-7, 3.814e-7
0.555, -7.666e-7, -3.891e-7, 3.774e-7
0.554, -7.714e-7, -3.928e-7, 3.787e-7
0.553, -7.702e-7, -3.882e-7, 3.820e-7
0.552, -7.690e-7, -3.910e-7, 3.780e-7
0.551, -7.687e-7, -3.907e-7, 3.780e-7
0.550, -7.687e-7, -3.891e-7, 3.796e-7
0.549, -7.681e-7, -3.916e-7, 3.765e-7
0.548, -7.678e-7, -3.907e-7, 3.771e-7
0.547, -7.669e-7, -3.903e-7, 3.765e-7
0.546, -7.647e-7, -3.897e-7, 3.750e-7
0.545, -7.684e-7, -3.894e-7, 3.790e-7
0.544, -7.623e-7, -3.864e-7, 3.759e-7
0.543, -7.629e-7, -3.882e-7, 3.747e-7
0.542, -7.659e-7, -3.894e-7, 3.765e-7
0.541, -7.663e-7, -3.910e-7, 3.753e-7
0.540, -7.641e-7, -3.891e-7, 3.750e-7
0.539, -7.638e-7, -3.885e-7, 3.753e-7
0.538, -7.623e-7, -3.894e-7, 3.729e-7
0.537, -7.638e-7, -3.882e-7, 3.756e-7
0.536, -7.623e-7, -3.888e-7, 3.735e-7
0.535, -7.608e-7, -3.885e-7, 3.722e-7
0.534, -7.623e-7, -3.873e-7, 3.750e-7
0.533, -7.601e-7, -3.873e-7, 3.729e-7
0.532, -7.601e-7, -3.897e-7, 3.704e-7
0.531, -7.617e-7, -3.885e-7, 3.732e-7
0.530, -7.617e-7, -3.879e-7, 3.738e-7
0.529, -7.598e-7, -3.888e-7, 3.710e-7
0.528, -7.589e-7, -3.870e-7, 3.719e-7
0.527, -7.595e-7, -3.879e-7, 3.716e-7
0.526, -7.589e-7, -3.882e-7, 3.707e-7
0.525, -7.595e-7, -3.879e-7, 3.716e-7
0.524, -7.589e-7, -3.885e-7, 3.704e-7
0.523, -7.605e-7, -3.894e-7, 3.710e-7
0.522, -7.580e-7, -3.876e-7, 3.704e-7
0.521, -7.562e-7, -3.876e-7, 3.686e-7
0.520, -7.586e-7, -3.891e-7, 3.695e-7
0.519, -7.595e-7, -3.882e-7, 3.713e-7
0.518, -7.583e-7, -3.888e-7, 3.695e-7
0.517, -7.592e-7, -3.888e-7, 3.704e-7
0.516, -7.577e-7, -3.882e-7, 3.695e-7
0.515, -7.589e-7, -3.903e-7, 3.686e-7
0.514, -7.586e-7, -3.885e-7, 3.701e-7
0.513, -7.571e-7, -3.876e-7, 3.695e-7
0.512, -7.589e-7, -3.916e-7, 3.674e-7
0.511, -7.589e-7, -3.891e-7, 3.698e-7
0.510, -7.562e-7, -3.879e-7, 3.683e-7
0.509, -7.568e-7, -3.894e-7, 3.674e-7
0.508, -7.595e-7, -3.894e-7, 3.701e-7
0.507, -7.580e-7, -3.888e-7, 3.692e-7
0.506, -7.574e-7, -3.907e-7, 3.668e-7
0.505, -7.580e-7, -3.885e-7, 3.695e-7
0.504, -7.559e-7, -3.882e-7, 3.677e-7
0.503, -7.595e-7, -3.913e-7, 3.683e-7
0.502, -7.598e-7, -3.897e-7, 3.701e-7
0.501, -7.574e-7, -3.897e-7, 3.677e-7
0.500, -7.547e-7, -3.885e-7, 3.661e-7
0.499, -7.571e-7, -3.894e-7, 3.677e-7
0.498, -7.580e-7, -3.913e-7, 3.668e-7
0.497, -7.592e-7, -3.913e-7, 3.680e-7
0.496, -7.568e-7, -3.882e-7, 3.686e-7
0.495, -7.592e-7, -3.903e-7, 3.689e-7
0.494, -7.614e-7, -3.919e-7, 3.695e-7
0.493, -7.589e-7, -3.925e-7, 3.664e-7
0.492, -7.580e-7, -3.922e-7, 3.658e-7
0.491, -7.571e-7, -3.894e-7, 3.677e-7
0.490, -7.592e-7, -3.919e-7, 3.674e-7
0.489, -7.595e-7, -3.925e-7, 3.671e-7
0.488, -7.611e-7, -3.916e-7, 3.695e-7
0.487, -7.565e-7, -3.900e-7, 3.664e-7
0.486, -7.611e-7, -3.925e-7, 3.686e-7
0.485, -7.608e-7, -3.925e-7, 3.683e-7
0.484, -7.574e-7, -3.919e-7, 3.655e-7
0.483, -7.605e-7, -3.931e-7, 3.674e-7
0.482, -7.605e-7, -3.919e-7, 3.686e-7
0.481, -7.614e-7, -3.937e-7, 3.677e-7
0.480, -7.583e-7, -3.934e-7, 3.649e-7
0.479, -7.620e-7, -3.913e-7, 3.707e-7
0.478, -7.592e-7, -3.943e-7, 3.649e-7
0.477, -7.623e-7, -3.949e-7, 3.674e-7
0.476, -7.632e-7, -3.937e-7, 3.695e-7
0.475, -7.614e-7, -3.949e-7, 3.664e-7
0.474, -7.614e-7, -3.943e-7, 3.671e-7
0.473, -7.623e-7, -3.937e-7, 3.686e-7
0.472, -7.605e-7, -3.955e-7, 3.649e-7
0.471, -7.626e-7, -3.937e-7, 3.689e-7
0.470, -7.632e-7, -3.955e-7, 3.677e-7
0.469, -7.644e-7, -3.974e-7, 3.671e-7
0.468, -7.623e-7, -3.952e-7, 3.671e-7
0.467, -7.595e-7, -3.949e-7, 3.646e-7
0.466, -7.605e-7, -3.952e-7, 3.652e-7
0.465, -7.611e-7, -3.934e-7, 3.677e-7
0.464, -7.623e-7, -3.971e-7, 3.652e-7
0.463, -7.614e-7, -3.958e-7, 3.655e-7
0.462, -7.614e-7, -3.928e-7, 3.686e-7
0.461, -7.592e-7, -3.943e-7, 3.649e-7
0.460, -7.614e-7, -3.949e-7, 3.664e-7
0.459, -7.601e-7, -3.940e-7, 3.661e-7
0.458, -7.601e-7, -3.961e-7, 3.640e-7
0.457, -7.641e-7, -3.980e-7, 3.661e-7
0.456, -7.595e-7, -3.946e-7, 3.649e-7
0.455, -7.589e-7, -3.949e-7, 3.640e-7
0.454, -7.595e-7, -3.965e-7, 3.631e-7
0.453, -7.589e-7, -3.937e-7, 3.652e-7
0.452, -7.595e-7, -3.961e-7, 3.634e-7
0.451, -7.611e-7, -3.968e-7, 3.643e-7
0.450, -7.629e-7, -3.955e-7, 3.674e-7
0.449, -7.617e-7, -3.958e-7, 3.658e-7
0.448, -7.611e-7, -3.965e-7, 3.646e-7
0.447, -7.571e-7, -3.946e-7, 3.625e-7
0.446, -7.601e-7, -3.971e-7, 3.631e-7
0.445, -7.611e-7, -3.958e-7, 3.652e-7
0.444, -7.608e-7, -3.971e-7, 3.637e-7
0.443, -7.614e-7, -3.974e-7, 3.640e-7
0.442, -7.589e-7, -3.958e-7, 3.631e-7
0.441, -7.586e-7, -3.949e-7, 3.637e-7
0.440, -7.595e-7, -3.968e-7, 3.628e-7
0.439, -7.592e-7, -3.958e-7, 3.634e-7
0.438, -7.605e-7, -3.958e-7, 3.646e-7
0.437, -7.592e-7, -3.952e-7, 3.640e-7
0.436, -7.601e-7, -3.961e-7, 3.640e-7
0.435, -7.586e-7, -3.971e-7, 3.616e-7
0.434, -7.608e-7, -3.968e-7, 3.640e-7
0.433, -7.598e-7, -3.961e-7, 3.637e-7
0.432, -7.586e-7, -3.974e-7, 3.613e-7
0.431, -7.632e-7, -3.977e-7, 3.655e-7
0.430, -7.595e-7, -3.974e-7, 3.622e-7
0.429, -7.595e-7, -3.965e-7, 3.631e-7
0.428, -7.632e-7, -3.986e-7, 3.646e-7
0.427, -7.605e-7, -3.986e-7, 3.619e-7
0.426, -7.605e-7, -3.995e-7, 3.610e-7
0.425, -7.595e-7, -3.971e-7, 3.625e-7
0.424, -7.574e-7, -3.961e-7, 3.613e-7
0.423, -7.601e-7, -3.983e-7, 3.619e-7
0.422, -7.601e-7, -3.977e-7, 3.625e-7
0.421, -7.577e-7, -3.983e-7, 3.594e-7
0.420, -7.605e-7, -3.986e-7, 3.619e-7
0.419, -7.608e-7, -3.971e-7, 3.637e-7
0.418, -7.589e-7, -3.995e-7, 3.594e-7
0.417, -7.623e-7, -3.992e-7, 3.631e-7
0.416, -7.617e-7, -3.989e-7, 3.628e-7
0.415, -7.614e-7, -4.001e-7, 3.613e-7
0.414, -7.644e-7, -4.004e-7, 3.640e-7
0.413, -7.629e-7, -3.989e-7, 3.640e-7
0.412, -7.647e-7, -4.035e-7, 3.613e-7
0.411, -7.663e-7, -4.016e-7, 3.646e-7
0.410, -7.626e-7, -3.998e-7, 3.628e-7
0.409, -7.653e-7, -4.038e-7, 3.616e-7
0.408, -7.650e-7, -4.022e-7, 3.628e-7
0.407, -7.614e-7, -3.998e-7, 3.616e-7
0.406, -7.656e-7, -4.041e-7, 3.616e-7
0.405, -7.656e-7, -4.026e-7, 3.631e-7
0.404, -7.623e-7, -4.010e-7, 3.613e-7
0.403, -7.650e-7, -4.041e-7, 3.610e-7
0.402, -7.669e-7, -4.029e-7, 3.640e-7
0.401, -7.659e-7, -4.032e-7, 3.628e-7
0.400, -7.656e-7, -4.038e-7, 3.619e-7
0.399, -7.669e-7, -4.038e-7, 3.631e-7
0.398, -7.663e-7, -4.044e-7, 3.619e-7
0.397, -7.693e-7, -4.053e-7, 3.640e-7
0.396, -7.684e-7, -4.053e-7, 3.631e-7
0.395, -7.714e-7, -4.065e-7, 3.649e-7
0.394, -7.696e-7, -4.041e-7, 3.655e-7
0.393, -7.672e-7, -4.047e-7, 3.625e-7
0.392, -7.717e-7, -4.084e-7, 3.634e-7
0.391, -7.721e-7, -4.074e-7, 3.646e-7
0.390, -7.699e-7, -4.056e-7, 3.643e-7
0.389, -7.730e-7, -4.087e-7, 3.643e-7
0.388, -7.727e-7, -4.056e-7, 3.671e-7
0.387, -7.708e-7, -4.074e-7, 3.634e-7
0.386, -7.699e-7, -4.062e-7, 3.637e-7
0.385, -7.693e-7, -4.053e-7, 3.640e-7
0.384, -7.708e-7, -4.080e-7, 3.628e-7
0.383, -7.745e-7, -4.096e-7, 3.649e-7
0.382, -7.730e-7, -4.077e-7, 3.652e-7
0.381, -7.745e-7, -4.093e-7, 3.652e-7
0.380, -7.754e-7, -4.096e-7, 3.658e-7
0.379, -7.733e-7, -4.077e-7, 3.655e-7
0.378, -7.739e-7, -4.096e-7, 3.643e-7
0.377, -7.754e-7, -4.093e-7, 3.661e-7
0.376, -7.733e-7, -4.074e-7, 3.658e-7
0.375, -7.714e-7, -4.096e-7, 3.619e-7
0.374, -7.751e-7, -4.093e-7, 3.658e-7
0.373, -7.754e-7, -4.102e-7, 3.652e-7
0.372, -7.754e-7, -4.120e-7, 3.634e-7
0.371, -7.748e-7, -4.102e-7, 3.646e-7
0.370, -7.751e-7, -4.105e-7, 3.646e-7
0.369, -7.800e-7, -4.145e-7, 3.655e-7
0.368, -7.772e-7, -4.105e-7, 3.667e-7
0.367, -7.785e-7, -4.126e-7, 3.658e-7
0.366, -7.788e-7, -4.132e-7, 3.655e-7
0.365, -7.757e-7, -4.093e-7, 3.664e-7
0.364, -7.766e-7, -4.120e-7, 3.646e-7
0.363, -7.818e-7, -4.145e-7, 3.674e-7
0.362, -7.757e-7, -4.071e-7, 3.686e-7
0.361, -7.696e-7, -4.108e-7, 3.588e-7
0.360, -7.803e-7, -4.154e-7, 3.649e-7
0.359, -7.775e-7, -4.105e-7, 3.671e-7
0.358, -7.766e-7, -4.123e-7, 3.643e-7
0.357, -7.818e-7, -4.142e-7, 3.677e-7
0.356, -7.775e-7, -4.120e-7, 3.655e-7
0.355, -7.800e-7, -4.151e-7, 3.649e-7
0.354, -7.830e-7, -4.163e-7, 3.667e-7
0.353, -7.803e-7, -4.148e-7, 3.655e-7
0.352, -7.806e-7, -4.151e-7, 3.655e-7
0.351, -7.800e-7, -4.148e-7, 3.652e-7
0.350, -7.803e-7, -4.154e-7, 3.649e-7
0.349, -7.824e-7, -4.163e-7, 3.661e-7
0.348, -7.812e-7, -4.154e-7, 3.658e-7
0.347, -7.782e-7, -4.145e-7, 3.637e-7
0.346, -7.818e-7, -4.157e-7, 3.661e-7
0.345, -7.797e-7, -4.138e-7, 3.658e-7
0.344, -7.794e-7, -4.160e-7, 3.634e-7
0.343, -7.815e-7, -4.160e-7, 3.655e-7
0.342, -7.806e-7, -4.157e-7, 3.649e-7
0.341, -7.818e-7, -4.172e-7, 3.646e-7
0.340, -7.809e-7, -4.160e-7, 3.649e-7
0.339, -7.803e-7, -4.138e-7, 3.664e-7
0.338, -7.824e-7, -4.175e-7, 3.649e-7
0.337, -7.852e-7, -4.193e-7, 3.658e-7
0.336, -7.840e-7, -4.187e-7, 3.652e-7
0.335, -7.833e-7, -4.181e-7, 3.652e-7
0.334, -7.855e-7, -4.181e-7, 3.674e-7
0.333, -7.827e-7, -4.175e-7, 3.652e-7
0.332, -7.852e-7, -4.199e-7, 3.652e-7
0.331, -7.855e-7, -4.181e-7, 3.674e-7
0.330, -7.855e-7, -4.212e-7, 3.643e-7
0.329, -7.840e-7, -4.203e-7, 3.637e-7
0.328, -7.858e-7, -4.190e-7, 3.667e-7
0.327, -7.855e-7, -4.209e-7, 3.646e-7
0.326, -7.867e-7, -4.209e-7, 3.658e-7
0.325, -7.879e-7, -4.206e-7, 3.674e-7
0.324, -7.864e-7, -4.218e-7, 3.646e-7
0.323, -7.901e-7, -4.227e-7, 3.674e-7
0.322, -7.885e-7, -4.215e-7, 3.671e-7
0.321, -7.879e-7, -4.233e-7, 3.646e-7
0.320, -7.891e-7, -4.224e-7, 3.667e-7
0.319, -7.879e-7, -4.206e-7, 3.674e-7
0.318, -7.907e-7, -4.251e-7, 3.655e-7
0.317, -7.928e-7, -4.239e-7, 3.689e-7
0.316, -7.885e-7, -4.224e-7, 3.661e-7
0.315, -7.916e-7, -4.254e-7, 3.661e-7
0.314, -7.919e-7, -4.239e-7, 3.680e-7
0.313, -7.907e-7, -4.227e-7, 3.680e-7
0.312, -7.955e-7, -4.279e-7, 3.677e-7
0.311, -7.946e-7, -4.257e-7, 3.689e-7
0.310, -7.925e-7, -4.239e-7, 3.686e-7
0.309, -7.943e-7, -4.264e-7, 3.680e-7
0.308, -7.937e-7, -4.254e-7, 3.683e-7
0.307, -7.925e-7, -4.251e-7, 3.674e-7
0.306, -7.937e-7, -4.267e-7, 3.671e-7
0.305, -7.983e-7, -4.282e-7, 3.701e-7
0.304, -7.952e-7, -4.267e-7, 3.686e-7
0.303, -7.968e-7, -4.276e-7, 3.692e-7
0.302, -7.986e-7, -4.285e-7, 3.701e-7
0.301, -7.992e-7, -4.288e-7, 3.704e-7
0.300, -8.001e-7, -4.306e-7, 3.695e-7
0.299, -8.007e-7, -4.303e-7, 3.704e-7
0.298, -8.023e-7, -4.312e-7, 3.710e-7
0.297, -8.017e-7, -4.300e-7, 3.716e-7
0.296, -8.004e-7, -4.306e-7, 3.698e-7
0.295, -8.035e-7, -4.325e-7, 3.710e-7
0.294, -8.044e-7, -4.315e-7, 3.729e-7
0.293, -8.032e-7, -4.325e-7, 3.707e-7
0.292, -8.056e-7, -4.331e-7, 3.725e-7
0.291, -8.059e-7, -4.331e-7, 3.729e-7
0.290, -8.050e-7, -4.331e-7, 3.719e-7
0.289, -8.068e-7, -4.343e-7, 3.725e-7
0.288, -8.062e-7, -4.325e-7, 3.738e-7
0.287, -8.050e-7, -4.352e-7, 3.698e-7
0.286, -8.071e-7, -4.349e-7, 3.722e-7
0.285, -8.074e-7, -4.343e-7, 3.732e-7
0.284, -8.071e-7, -4.355e-7, 3.716e-7
0.283, -8.090e-7, -4.361e-7, 3.729e-7
0.282, -8.081e-7, -4.349e-7, 3.732e-7
0.281, -8.065e-7, -4.358e-7, 3.707e-7
0.280, -8.120e-7, -4.370e-7, 3.750e-7
0.279, -8.108e-7, -4.367e-7, 3.741e-7
0.278, -8.123e-7, -4.376e-7, 3.747e-7
0.277, -8.126e-7, -4.376e-7, 3.750e-7
0.276, -8.120e-7, -4.370e-7, 3.750e-7
0.275, -8.129e-7, -4.392e-7, 3.738e-7
0.274, -8.120e-7, -4.370e-7, 3.750e-7
0.273, -8.126e-7, -4.389e-7, 3.738e-7
0.272, -8.136e-7, -4.401e-7, 3.735e-7
0.271, -8.132e-7, -4.373e-7, 3.759e-7
0.270, -8.154e-7, -4.410e-7, 3.744e-7
0.269, -8.151e-7, -4.404e-7, 3.747e-7
0.268, -8.157e-7, -4.392e-7, 3.765e-7
0.267, -8.145e-7, -4.398e-7, 3.747e-7
0.266, -8.169e-7, -4.422e-7, 3.747e-7
0.265, -8.166e-7, -4.401e-7, 3.765e-7
0.264, -8.160e-7, -4.422e-7, 3.738e-7
0.263, -8.178e-7, -4.434e-7, 3.744e-7
0.262, -8.157e-7, -4.404e-7, 3.753e-7
0.261, -8.184e-7, -4.434e-7, 3.750e-7
0.260, -8.218e-7, -4.453e-7, 3.765e-7
0.259, -8.190e-7, -4.428e-7, 3.762e-7
0.258, -8.221e-7, -4.453e-7, 3.768e-7
0.257, -8.175e-7, -4.441e-7, 3.735e-7
0.256, -8.200e-7, -4.441e-7, 3.759e-7
0.255, -8.200e-7, -4.441e-7, 3.759e-7
0.254, -8.215e-7, -4.456e-7, 3.759e-7
0.253, -8.209e-7, -4.453e-7, 3.756e-7
0.252, -8.215e-7, -4.459e-7, 3.756e-7
0.251, -8.218e-7, -4.453e-7, 3.765e-7
0.250, -8.224e-7, -4.468e-7, 3.756e-7
0.249, -8.224e-7, -4.468e-7, 3.756e-7
0.248, -8.224e-7, -4.453e-7, 3.771e-7
0.247, -8.221e-7, -4.468e-7, 3.753e-7
0.246, -8.248e-7, -4.483e-7, 3.765e-7
0.245, -8.258e-7, -4.480e-7, 3.777e-7
0.244, -8.248e-7, -4.492e-7, 3.756e-7
0.243, -8.273e-7, -4.489e-7, 3.783e-7
0.242, -8.261e-7, -4.483e-7, 3.777e-7
0.241, -8.270e-7, -4.502e-7, 3.768e-7
0.240, -8.285e-7, -4.508e-7, 3.777e-7
0.239, -8.270e-7, -4.492e-7, 3.777e-7
0.238, -8.291e-7, -4.508e-7, 3.783e-7
0.237, -8.297e-7, -4.511e-7, 3.786e-7
0.236, -8.279e-7, -4.514e-7, 3.765e-7
0.235, -8.313e-7, -4.535e-7, 3.777e-7
0.234, -8.328e-7, -4.523e-7, 3.805e-7
0.233, -8.313e-7, -4.520e-7, 3.793e-7
0.232, -8.328e-7, -4.541e-7, 3.786e-7
0.231, -8.319e-7, -4.523e-7, 3.796e-7
0.230, -8.322e-7, -4.541e-7, 3.780e-7
0.229, -8.349e-7, -4.557e-7, 3.793e-7
0.228, -8.349e-7, -4.544e-7, 3.805e-7
0.227, -8.343e-7, -4.557e-7, 3.786e-7
0.226, -8.355e-7, -4.557e-7, 3.799e-7
0.225, -8.358e-7, -4.553e-7, 3.805e-7
0.224, -8.370e-7, -4.578e-7, 3.793e-7
0.223, -8.383e-7, -4.581e-7, 3.802e-7
0.222, -8.349e-7, -4.547e-7, 3.802e-7
0.221, -8.398e-7, -4.596e-7, 3.802e-7
0.220, -8.413e-7, -4.578e-7, 3.835e-7
0.219, -8.404e-7, -4.584e-7, 3.820e-7
0.218, -8.404e-7, -4.608e-7, 3.796e-7
0.217, -8.428e-7, -4.605e-7, 3.823e-7
0.216, -8.438e-7, -4.599e-7, 3.838e-7
0.215, -8.438e-7, -4.630e-7, 3.808e-7
0.214, -8.477e-7, -4.621e-7, 3.857e-7
0.213, -8.468e-7, -4.611e-7, 3.857e-7
0.212, -8.459e-7, -4.636e-7, 3.823e-7
0.211, -8.447e-7, -4.627e-7, 3.820e-7
0.210, -8.480e-7, -4.627e-7, 3.854e-7
0.209, -8.493e-7, -4.660e-7, 3.832e-7
0.208, -8.496e-7, -4.645e-7, 3.851e-7
0.207, -8.480e-7, -4.642e-7, 3.838e-7
0.206, -8.523e-7, -4.663e-7, 3.860e-7
0.205, -8.529e-7, -4.660e-7, 3.869e-7
0.204, -8.514e-7, -4.669e-7, 3.844e-7
0.203, -8.554e-7, -4.679e-7, 3.875e-7
0.202, -8.541e-7, -4.685e-7, 3.857e-7
0.201, -8.544e-7, -4.694e-7, 3.851e-7
0.200, -8.560e-7, -4.676e-7, 3.884e-7
0.199, -8.593e-7, -4.706e-7, 3.887e-7
0.198, -8.602e-7, -4.706e-7, 3.896e-7
0.197, -8.612e-7, -4.715e-7, 3.896e-7
0.196, -8.599e-7, -4.718e-7, 3.881e-7
0.195, -8.621e-7, -4.743e-7, 3.878e-7
0.194, -8.624e-7, -4.727e-7, 3.896e-7
0.193, -8.630e-7, -4.746e-7, 3.884e-7
0.192, -8.651e-7, -4.755e-7, 3.896e-7
0.191, -8.670e-7, -4.755e-7, 3.915e-7
0.190, -8.657e-7, -4.758e-7, 3.899e-7
0.189, -8.691e-7, -4.770e-7, 3.921e-7
0.188, -8.654e-7, -4.749e-7, 3.905e-7
0.187, -8.703e-7, -4.801e-7, 3.902e-7
0.186, -8.712e-7, -4.795e-7, 3.918e-7
0.185, -8.694e-7, -4.773e-7, 3.921e-7
0.184, -8.734e-7, -4.813e-7, 3.921e-7
0.183, -8.737e-7, -4.798e-7, 3.939e-7
0.182, -8.734e-7, -4.801e-7, 3.933e-7
0.181, -8.749e-7, -4.822e-7, 3.927e-7
0.180, -8.761e-7, -4.813e-7, 3.948e-7
0.179, -8.767e-7, -4.822e-7, 3.945e-7
0.178, -8.770e-7, -4.843e-7, 3.927e-7
0.177, -8.782e-7, -4.834e-7, 3.948e-7
0.176, -8.789e-7, -4.859e-7, 3.930e-7
0.175, -8.807e-7, -4.849e-7, 3.957e-7
0.174, -8.816e-7, -4.849e-7, 3.967e-7
0.173, -8.795e-7, -4.849e-7, 3.945e-7
0.172, -8.795e-7, -4.880e-7, 3.915e-7
0.171, -8.831e-7, -4.862e-7, 3.970e-7
0.170, -8.834e-7, -4.880e-7, 3.954e-7
0.169, -8.877e-7, -4.911e-7, 3.967e-7
0.168, -8.868e-7, -4.889e-7, 3.979e-7
0.167, -8.877e-7, -4.907e-7, 3.970e-7
0.166, -8.892e-7, -4.932e-7, 3.960e-7
0.165, -8.868e-7, -4.895e-7, 3.973e-7
0.164, -8.905e-7, -4.935e-7, 3.970e-7
0.163, -8.911e-7, -4.926e-7, 3.985e-7
0.162, -8.917e-7, -4.926e-7, 3.991e-7
0.161, -8.917e-7, -4.944e-7, 3.973e-7
0.160, -8.935e-7, -4.959e-7, 3.976e-7
0.159, -8.941e-7, -4.956e-7, 3.985e-7
0.158, -8.959e-7, -4.975e-7, 3.985e-7
0.157, -8.972e-7, -4.962e-7, 4.009e-7
0.156, -8.966e-7, -4.981e-7, 3.985e-7
0.155, -8.990e-7, -4.981e-7, 4.009e-7
0.154, -9.011e-7, -5.002e-7, 4.009e-7
0.153, -9.014e-7, -4.999e-7, 4.015e-7
0.152, -9.027e-7, -5.014e-7, 4.012e-7
0.151, -9.030e-7, -5.002e-7, 4.028e-7
0.150, -9.039e-7, -5.023e-7, 4.015e-7
0.149, -9.057e-7, -5.033e-7, 4.025e-7
0.148, -9.057e-7, -5.026e-7, 4.031e-7
0.147, -9.088e-7, -5.063e-7, 4.025e-7
0.146, -9.085e-7, -5.048e-7, 4.037e-7
0.145, -9.100e-7, -5.063e-7, 4.037e-7
0.144, -9.094e-7, -5.069e-7, 4.025e-7
0.143, -9.139e-7, -5.081e-7, 4.058e-7
0.142, -9.124e-7, -5.072e-7, 4.052e-7
0.141, -9.161e-7, -5.106e-7, 4.055e-7
0.140, -9.152e-7, -5.078e-7, 4.073e-7
0.139, -9.164e-7, -5.115e-7, 4.049e-7
0.138, -9.182e-7, -5.118e-7, 4.064e-7
0.137, -9.191e-7, -5.124e-7, 4.067e-7
0.136, -9.213e-7, -5.133e-7, 4.079e-7
0.135, -9.249e-7, -5.155e-7, 4.095e-7
0.134, -9.246e-7, -5.158e-7, 4.089e-7
0.133, -9.243e-7, -5.173e-7, 4.070e-7
0.132, -9.274e-7, -5.185e-7, 4.089e-7
0.131, -9.295e-7, -5.191e-7, 4.104e-7
0.130, -9.289e-7, -5.203e-7, 4.086e-7
0.129, -9.304e-7, -5.216e-7, 4.089e-7
0.128, -9.304e-7, -5.197e-7, 4.107e-7
0.127, -9.332e-7, -5.234e-7, 4.098e-7
0.126, -9.381e-7, -5.243e-7, 4.137e-7
0.125, -9.384e-7, -5.243e-7, 4.140e-7
0.124, -9.405e-7, -5.280e-7, 4.125e-7
0.123, -9.423e-7, -5.268e-7, 4.156e-7
0.122, -9.405e-7, -5.265e-7, 4.140e-7
0.121, -9.423e-7, -5.292e-7, 4.131e-7
0.120, -9.487e-7, -5.310e-7, 4.177e-7
0.119, -9.481e-7, -5.313e-7, 4.168e-7
0.118, -9.509e-7, -5.350e-7, 4.159e-7
0.117, -9.539e-7, -5.344e-7, 4.195e-7
0.116, -9.515e-7, -5.338e-7, 4.177e-7
0.115, -9.542e-7, -5.359e-7, 4.183e-7
0.114, -9.573e-7, -5.374e-7, 4.198e-7
0.113, -9.585e-7, -5.387e-7, 4.198e-7
0.112, -9.634e-7, -5.426e-7, 4.208e-7
0.111, -9.646e-7, -5.411e-7, 4.235e-7
0.110, -9.637e-7, -5.417e-7, 4.220e-7
0.109, -9.698e-7, -5.454e-7, 4.244e-7
0.108, -9.680e-7, -5.445e-7, 4.235e-7
0.107, -9.707e-7, -5.472e-7, 4.235e-7
0.106, -9.738e-7, -5.478e-7, 4.259e-7
0.105, -9.735e-7, -5.487e-7, 4.247e-7
0.104, -9.771e-7, -5.496e-7, 4.275e-7
0.103, -9.777e-7, -5.496e-7, 4.281e-7
0.102, -9.796e-7, -5.512e-7, 4.284e-7
0.101, -9.835e-7, -5.539e-7, 4.296e-7
0.100, -9.851e-7, -5.548e-7, 4.302e-7
0.099, -9.860e-7, -5.554e-7, 4.305e-7
0.098, -9.893e-7, -5.585e-7, 4.308e-7
0.097, -9.905e-7, -5.582e-7, 4.324e-7
0.096, -9.918e-7, -5.603e-7, 4.314e-7
0.095, -9.951e-7, -5.609e-7, 4.342e-7
0.094, -9.966e-7, -5.622e-7, 4.345e-7
0.093, -9.963e-7, -5.628e-7, 4.336e-7
0.092, -1.004e-6, -5.661e-7, 4.378e-7
0.091, -1.004e-6, -5.658e-7, 4.378e-7
0.090, -1.003e-6, -5.673e-7, 4.354e-7
0.089, -1.007e-6, -5.689e-7, 4.382e-7
0.088, -1.008e-6, -5.692e-7, 4.385e-7
0.087, -1.009e-6, -5.725e-7, 4.369e-7
0.086, -1.014e-6, -5.728e-7, 4.409e-7
0.085, -1.016e-6, -5.738e-7, 4.418e-7
0.084, -1.019e-6, -5.759e-7, 4.427e-7
0.083, -1.019e-6, -5.747e-7, 4.440e-7
0.082, -1.020e-6, -5.765e-7, 4.430e-7
0.081, -1.023e-6, -5.795e-7, 4.436e-7
0.080, -1.024e-6, -5.786e-7, 4.455e-7
0.079, -1.024e-6, -5.805e-7, 4.430e-7
0.078, -1.028e-6, -5.832e-7, 4.452e-7
0.077, -1.032e-6, -5.826e-7, 4.491e-7
0.076, -1.031e-6, -5.857e-7, 4.449e-7
0.075, -1.037e-6, -5.893e-7, 4.473e-7
0.074, -1.036e-6, -5.875e-7, 4.488e-7
0.073, -1.041e-6, -5.918e-7, 4.491e-7
0.072, -1.042e-6, -5.918e-7, 4.507e-7
0.071, -1.042e-6, -5.905e-7, 4.519e-7
0.070, -1.045e-6, -5.936e-7, 4.510e-7
0.069, -1.047e-6, -5.954e-7, 4.516e-7
0.068, -1.051e-6, -5.951e-7, 4.562e-7
0.067, -1.051e-6, -5.966e-7, 4.543e-7
0.066, -1.057e-6, -6.003e-7, 4.568e-7
0.065, -1.057e-6, -6.000e-7, 4.571e-7
0.064, -1.059e-6, -6.015e-7, 4.577e-7
0.063, -1.060e-6, -6.012e-7, 4.586e-7
0.062, -1.062e-6, -6.034e-7, 4.583e-7
0.061, -1.064e-6, -6.049e-7, 4.592e-7
0.060, -1.068e-6, -6.082e-7, 4.601e-7
0.059, -1.070e-6, -6.082e-7, 4.620e-7
0.058, -1.071e-6, -6.073e-7, 4.635e-7
0.057, -1.073e-6, -6.088e-7, 4.641e-7
0.056, -1.075e-6, -6.113e-7, 4.638e-7
0.055, -1.079e-6, -6.134e-7, 4.659e-7
0.054, -1.080e-6, -6.140e-7, 4.659e-7
0.053, -1.079e-6, -6.149e-7, 4.641e-7
0.052, -1.085e-6, -6.159e-7, 4.690e-7
0.051, -1.085e-6, -6.168e-7, 4.687e-7
0.050, -1.087e-6, -6.186e-7, 4.681e-7
0.049, -1.092e-6, -6.204e-7, 4.720e-7
0.048, -1.092e-6, -6.207e-7, 4.714e-7
0.047, -1.096e-6, -6.226e-7, 4.729e-7
0.046, -1.098e-6, -6.232e-7, 4.751e-7
0.045, -1.101e-6, -6.250e-7, 4.760e-7
0.044, -1.103e-6, -6.275e-7, 4.757e-7
0.043, -1.105e-6, -6.275e-7, 4.778e-7
0.042, -1.107e-6, -6.293e-7, 4.775e-7
0.041, -1.113e-6, -6.323e-7, 4.806e-7
0.040, -1.114e-6, -6.326e-7, 4.818e-7
0.039, -1.113e-6, -6.339e-7, 4.793e-7
0.038, -1.120e-6, -6.357e-7, 4.839e-7
0.037, -1.121e-6, -6.363e-7, 4.851e-7
0.036, -1.120e-6, -6.372e-7, 4.824e-7
0.035, -1.124e-6, -6.381e-7, 4.861e-7
0.034, -1.126e-6, -6.394e-7, 4.864e-7
0.033, -1.128e-6, -6.418e-7, 4.867e-7
0.032, -1.131e-6, -6.424e-7, 4.885e-7
0.031, -1.134e-6, -6.427e-7, 4.909e-7
0.030, -1.135e-6, -6.452e-7, 4.900e-7
0.029, -1.141e-6, -6.461e-7, 4.946e-7
0.028, -1.139e-6, -6.458e-7, 4.937e-7
0.027, -1.144e-6, -6.500e-7, 4.943e-7
0.026, -1.149e-6, -6.507e-7, 4.983e-7
0.025, -1.147e-6, -6.510e-7, 4.964e-7
0.024, -1.152e-6, -6.543e-7, 4.974e-7
0.023, -1.153e-6, -6.528e-7, 5.001e-7
0.022, -1.154e-6, -6.537e-7, 5.004e-7
0.021, -1.158e-6, -6.577e-7, 5.001e-7
0.020, -1.163e-6, -6.583e-7, 5.044e-7
0.019, -1.161e-6, -6.571e-7, 5.044e-7
0.018, -1.165e-6, -6.607e-7, 5.047e-7
0.017, -1.168e-6, -6.607e-7, 5.077e-7
0.016, -1.169e-6, -6.607e-7, 5.083e-7
0.015, -1.172e-6, -6.619e-7, 5.096e-7
0.014, -1.177e-6, -6.656e-7, 5.114e-7
0.013, -1.178e-6, -6.647e-7, 5.135e-7
0.012, -1.181e-6, -6.674e-7, 5.138e-7
0.011, -1.182e-6, -6.680e-7, 5.144e-7
0.010, -1.186e-6, -6.696e-7, 5.163e-7
0.009, -1.188e-6, -6.699e-7, 5.178e-7
0.008, -1.190e-6, -6.702e-7, 5.202e-7
0.007, -1.195e-6, -6.741e-7, 5.205e-7
0.006, -1.196e-6, -6.735e-7, 5.224e-7
0.005, -1.198e-6, -6.754e-7, 5.224e-7
0.004, -1.200e-6, -6.772e-7, 5.227e-7
0.003, -1.204e-6, -6.766e-7, 5.276e-7
0.002, -1.205e-6, -6.790e-7, 5.260e-7
0.001, -1.205e-6, -6.781e-7, 5.273e-7
0.000, -1.206e-6, -6.775e-7, 5.285e-7
-0.001, -1.210e-6, -6.809e-7, 5.288e-7
-0.002, -1.213e-6, -6.809e-7, 5.318e-7
-0.003, -1.215e-6, -6.824e-7, 5.328e-7
-0.004, -1.216e-6, -6.839e-7, 5.321e-7
-0.005, -1.222e-6, -6.851e-7, 5.364e-7
-0.006, -1.218e-6, -6.830e-7, 5.349e-7
-0.007, -1.223e-6, -6.864e-7, 5.364e-7
-0.008, -1.226e-6, -6.860e-7, 5.404e-7
-0.009, -1.226e-6, -6.854e-7, 5.407e-7
-0.010, -1.229e-6, -6.891e-7, 5.395e-7
-0.011, -1.230e-6, -6.891e-7, 5.407e-7
-0.012, -1.232e-6, -6.891e-7, 5.428e-7
-0.013, -1.235e-6, -6.906e-7, 5.440e-7
-0.014, -1.236e-6, -6.891e-7, 5.468e-7
-0.015, -1.236e-6, -6.912e-7, 5.447e-7
-0.016, -1.240e-6, -6.934e-7, 5.471e-7
-0.017, -1.241e-6, -6.922e-7, 5.492e-7
-0.018, -1.242e-6, -6.928e-7, 5.492e-7
-0.019, -1.244e-6, -6.925e-7, 5.517e-7
-0.020, -1.247e-6, -6.943e-7, 5.529e-7
-0.021, -1.249e-6, -6.961e-7, 5.529e-7
-0.022, -1.251e-6, -6.964e-7, 5.544e-7
-0.023, -1.252e-6, -6.949e-7, 5.572e-7
-0.024, -1.251e-6, -6.958e-7, 5.556e-7
-0.025, -1.256e-6, -6.989e-7, 5.572e-7
-0.026, -1.255e-6, -6.961e-7, 5.587e-7
-0.027, -1.257e-6, -6.992e-7, 5.581e-7
-0.028, -1.262e-6, -7.001e-7, 5.617e-7
-0.029, -1.260e-6, -6.986e-7, 5.617e-7
-0.030, -1.262e-6, -6.995e-7, 5.627e-7
-0.031, -1.264e-6, -6.995e-7, 5.648e-7
-0.032, -1.265e-6, -6.995e-7, 5.651e-7
-0.033, -1.265e-6, -7.004e-7, 5.648e-7
-0.034, -1.266e-6, -6.992e-7, 5.672e-7
-0.035, -1.269e-6, -6.995e-7, 5.697e-7
-0.036, -1.269e-6, -7.001e-7, 5.694e-7
-0.037, -1.271e-6, -7.007e-7, 5.700e-7
-0.038, -1.270e-6, -7.007e-7, 5.694e-7
-0.039, -1.273e-6, -7.010e-7, 5.718e-7
-0.040, -1.273e-6, -6.998e-7, 5.733e-7
-0.041, -1.274e-6, -7.016e-7, 5.721e-7
-0.042, -1.277e-6, -7.022e-7, 5.746e-7
-0.043, -1.276e-6, -7.010e-7, 5.746e-7
-0.044, -1.277e-6, -7.019e-7, 5.755e-7
-0.045, -1.276e-6, -6.998e-7, 5.767e-7
-0.046, -1.279e-6, -7.010e-7, 5.782e-7
-0.047, -1.281e-6, -7.031e-7, 5.779e-7
-0.048, -1.281e-6, -7.019e-7, 5.794e-7
-0.049, -1.280e-6, -7.004e-7, 5.794e-7
-0.050, -1.283e-6, -7.013e-7, 5.813e-7
-0.051, -1.283e-6, -7.007e-7, 5.825e-7
-0.052, -1.283e-6, -6.992e-7, 5.837e-7
-0.053, -1.286e-6, -7.034e-7, 5.828e-7
-0.054, -1.289e-6, -7.019e-7, 5.868e-7
-0.055, -1.288e-6, -7.022e-7, 5.862e-7
-0.056, -1.290e-6, -7.028e-7, 5.868e-7
-0.057, -1.289e-6, -7.022e-7, 5.868e-7
-0.058, -1.288e-6, -7.007e-7, 5.877e-7
-0.059, -1.293e-6, -7.019e-7, 5.910e-7
-0.060, -1.291e-6, -7.001e-7, 5.913e-7
-0.061, -1.292e-6, -7.016e-7, 5.901e-7
-0.062, -1.294e-6, -7.013e-7, 5.926e-7
-0.063, -1.291e-6, -6.989e-7, 5.923e-7
-0.064, -1.293e-6, -7.007e-7, 5.923e-7
-0.065, -1.296e-6, -7.013e-7, 5.944e-7
-0.066, -1.295e-6, -6.992e-7, 5.962e-7
-0.067, -1.296e-6, -7.016e-7, 5.944e-7
-0.068, -1.297e-6, -6.998e-7, 5.971e-7
-0.069, -1.294e-6, -6.983e-7, 5.959e-7
-0.070, -1.295e-6, -6.998e-7, 5.956e-7
-0.071, -1.298e-6, -6.995e-7, 5.990e-7
-0.072, -1.296e-6, -6.967e-7, 5.990e-7
-0.073, -1.298e-6, -6.986e-7, 5.990e-7
-0.074, -1.298e-6, -6.967e-7, 6.011e-7
-0.075, -1.297e-6, -6.958e-7, 6.011e-7
-0.076, -1.299e-6, -6.983e-7, 6.005e-7
-0.077, -1.299e-6, -6.955e-7, 6.035e-7
-0.078, -1.297e-6, -6.958e-7, 6.014e-7
-0.079, -1.298e-6, -6.958e-7, 6.026e-7
-0.080, -1.299e-6, -6.946e-7, 6.048e-7
-0.081, -1.300e-6, -6.955e-7, 6.042e-7
-0.082, -1.302e-6, -6.961e-7, 6.060e-7
-0.083, -1.301e-6, -6.949e-7, 6.060e-7
-0.084, -1.302e-6, -6.961e-7, 6.057e-7
-0.085, -1.299e-6, -6.928e-7, 6.066e-7
-0.086, -1.300e-6, -6.922e-7, 6.081e-7
-0.087, -1.303e-6, -6.949e-7, 6.081e-7
-0.088, -1.300e-6, -6.915e-7, 6.087e-7
-0.089, -1.300e-6, -6.912e-7, 6.090e-7
-0.090, -1.301e-6, -6.922e-7, 6.090e-7
-0.091, -1.300e-6, -6.885e-7, 6.118e-7
-0.092, -1.300e-6, -6.897e-7, 6.106e-7
-0.093, -1.300e-6, -6.894e-7, 6.103e-7
-0.094, -1.300e-6, -6.882e-7, 6.121e-7
-0.095, -1.299e-6, -6.879e-7, 6.115e-7
-0.096, -1.302e-6, -6.885e-7, 6.133e-7
-0.097, -1.299e-6, -6.864e-7, 6.124e-7
-0.098, -1.298e-6, -6.867e-7, 6.118e-7
-0.099, -1.298e-6, -6.848e-7, 6.130e-7
-0.100, -1.300e-6, -6.848e-7, 6.151e-7
-0.101, -1.297e-6, -6.854e-7, 6.115e-7
-0.102, -1.298e-6, -6.851e-7, 6.130e-7
-0.103, -1.295e-6, -6.809e-7, 6.145e-7
-0.104, -1.297e-6, -6.827e-7, 6.145e-7
-0.105, -1.299e-6, -6.833e-7, 6.158e-7
-0.106, -1.295e-6, -6.812e-7, 6.139e-7
-0.107, -1.296e-6, -6.818e-7, 6.139e-7
-0.108, -1.293e-6, -6.784e-7, 6.148e-7
-0.109, -1.290e-6, -6.769e-7, 6.133e-7
-0.110, -1.295e-6, -6.799e-7, 6.154e-7
-0.111, -1.294e-6, -6.754e-7, 6.182e-7
-0.112, -1.289e-6, -6.738e-7, 6.151e-7
-0.113, -1.290e-6, -6.766e-7, 6.136e-7
-0.114, -1.288e-6, -6.723e-7, 6.161e-7
-0.115, -1.287e-6, -6.732e-7, 6.142e-7
-0.116, -1.290e-6, -6.748e-7, 6.148e-7
-0.117, -1.290e-6, -6.735e-7, 6.164e-7
-0.118, -1.285e-6, -6.702e-7, 6.151e-7
-0.119, -1.284e-6, -6.702e-7, 6.139e-7
-0.120, -1.284e-6, -6.684e-7, 6.158e-7
-0.121, -1.281e-6, -6.671e-7, 6.136e-7
-0.122, -1.284e-6, -6.693e-7, 6.148e-7
-0.123, -1.281e-6, -6.659e-7, 6.151e-7
-0.124, -1.277e-6, -6.653e-7, 6.121e-7
-0.125, -1.282e-6, -6.668e-7, 6.154e-7
-0.126, -1.278e-6, -6.641e-7, 6.139e-7
-0.127, -1.275e-6, -6.610e-7, 6.139e-7
-0.128, -1.274e-6, -6.607e-7, 6.130e-7
-0.129, -1.273e-6, -6.601e-7, 6.127e-7
-0.130, -1.274e-6, -6.613e-7, 6.130e-7
-0.131, -1.272e-6, -6.598e-7, 6.124e-7
-0.132, -1.271e-6, -6.583e-7, 6.127e-7
-0.133, -1.270e-6, -6.574e-7, 6.127e-7
-0.134, -1.268e-6, -6.555e-7, 6.121e-7
-0.135, -1.264e-6, -6.549e-7, 6.093e-7
-0.136, -1.267e-6, -6.549e-7, 6.118e-7
-0.137, -1.264e-6, -6.534e-7, 6.109e-7
-0.138, -1.262e-6, -6.525e-7, 6.100e-7
-0.139, -1.263e-6, -6.528e-7, 6.106e-7
-0.140, -1.260e-6, -6.497e-7, 6.100e-7
-0.141, -1.258e-6, -6.497e-7, 6.084e-7
-0.142, -1.261e-6, -6.500e-7, 6.109e-7
-0.143, -1.257e-6, -6.485e-7, 6.081e-7
-0.144, -1.257e-6, -6.482e-7, 6.084e-7
-0.145, -1.255e-6, -6.467e-7, 6.084e-7
-0.146, -1.253e-6, -6.470e-7, 6.063e-7
-0.147, -1.254e-6, -6.464e-7, 6.072e-7
-0.148, -1.256e-6, -6.449e-7, 6.109e-7
-0.149, -1.246e-6, -6.418e-7, 6.045e-7
-0.150, -1.249e-6, -6.412e-7, 6.081e-7
-0.151, -1.250e-6, -6.409e-7, 6.093e-7
-0.152, -1.246e-6, -6.403e-7, 6.057e-7
-0.153, -1.250e-6, -6.433e-7, 6.066e-7
-0.154, -1.245e-6, -6.378e-7, 6.072e-7
-0.155, -1.244e-6, -6.397e-7, 6.045e-7
-0.156, -1.245e-6, -6.384e-7, 6.069e-7
-0.157, -1.245e-6, -6.384e-7, 6.069e-7
-0.158, -1.240e-6, -6.369e-7, 6.032e-7
-0.159, -1.242e-6, -6.366e-7, 6.054e-7
-0.160, -1.237e-6, -6.333e-7, 6.039e-7
-0.161, -1.236e-6, -6.345e-7, 6.014e-7
-0.162, -1.239e-6, -6.354e-7, 6.032e-7
-0.163, -1.234e-6, -6.323e-7, 6.020e-7
-0.164, -1.237e-6, -6.351e-7, 6.014e-7
-0.165, -1.237e-6, -6.342e-7, 6.029e-7
-0.166, -1.230e-6, -6.281e-7, 6.020e-7
-0.167, -1.232e-6, -6.339e-7, 5.977e-7
-0.168, -1.234e-6, -6.330e-7, 6.011e-7
-0.169, -1.229e-6, -6.290e-7, 6.005e-7
-0.170, -1.229e-6, -6.308e-7, 5.981e-7
-0.171, -1.228e-6, -6.290e-7, 5.987e-7
-0.172, -1.227e-6, -6.281e-7, 5.990e-7
-0.173, -1.230e-6, -6.320e-7, 5.981e-7
-0.174, -1.223e-6, -6.269e-7, 5.965e-7
-0.175, -1.221e-6, -6.250e-7, 5.962e-7
-0.176, -1.221e-6, -6.244e-7, 5.962e-7
-0.177, -1.221e-6, -6.244e-7, 5.962e-7
-0.178, -1.222e-6, -6.265e-7, 5.950e-7
-0.179, -1.220e-6, -6.250e-7, 5.953e-7
-0.180, -1.218e-6, -6.244e-7, 5.941e-7
-0.181, -1.217e-6, -6.232e-7, 5.938e-7
-0.182, -1.218e-6, -6.247e-7, 5.935e-7
-0.183, -1.214e-6, -6.211e-7, 5.929e-7
-0.184, -1.215e-6, -6.223e-7, 5.926e-7
-0.185, -1.216e-6, -6.226e-7, 5.932e-7
-0.186, -1.212e-6, -6.214e-7, 5.910e-7
-0.187, -1.211e-6, -6.192e-7, 5.916e-7
-0.188, -1.214e-6, -6.217e-7, 5.923e-7
-0.189, -1.206e-6, -6.171e-7, 5.889e-7
-0.190, -1.209e-6, -6.180e-7, 5.913e-7
-0.191, -1.207e-6, -6.171e-7, 5.898e-7
-0.192, -1.207e-6, -6.186e-7, 5.883e-7
-0.193, -1.204e-6, -6.153e-7, 5.892e-7
-0.194, -1.205e-6, -6.146e-7, 5.904e-7
-0.195, -1.201e-6, -6.143e-7, 5.871e-7
-0.196, -1.202e-6, -6.153e-7, 5.871e-7
-0.197, -1.199e-6, -6.122e-7, 5.865e-7
-0.198, -1.199e-6, -6.137e-7, 5.855e-7
-0.199, -1.198e-6, -6.143e-7, 5.840e-7
-0.200, -1.201e-6, -6.165e-7, 5.849e-7
-0.201, -1.199e-6, -6.150e-7, 5.837e-7
-0.202, -1.197e-6, -6.137e-7, 5.837e-7
-0.203, -1.193e-6, -6.119e-7, 5.813e-7
-0.204, -1.200e-6, -6.177e-7, 5.822e-7
-0.205, -1.191e-6, -6.095e-7, 5.813e-7
-0.206, -1.189e-6, -6.104e-7, 5.788e-7
-0.207, -1.193e-6, -6.140e-7, 5.794e-7
-0.208, -1.190e-6, -6.095e-7, 5.804e-7
-0.209, -1.191e-6, -6.134e-7, 5.776e-7
-0.210, -1.190e-6, -6.122e-7, 5.776e-7
-0.211, -1.187e-6, -6.073e-7, 5.794e-7
-0.212, -1.190e-6, -6.131e-7, 5.770e-7
-0.213, -1.188e-6, -6.119e-7, 5.758e-7
-0.214, -1.187e-6, -6.085e-7, 5.782e-7
-0.215, -1.178e-6, -6.049e-7, 5.733e-7
-0.216, -1.183e-6, -6.085e-7, 5.743e-7
-0.217, -1.178e-6, -6.052e-7, 5.730e-7
-0.218, -1.180e-6, -6.073e-7, 5.727e-7
-0.219, -1.177e-6, -6.052e-7, 5.718e-7
-0.220, -1.176e-6, -6.055e-7, 5.703e-7
-0.221, -1.176e-6, -6.067e-7, 5.697e-7
-0.222, -1.177e-6, -6.049e-7, 5.718e-7
-0.223, -1.172e-6, -6.024e-7, 5.700e-7
-0.224, -1.177e-6, -6.070e-7, 5.700e-7
-0.225, -1.171e-6, -6.021e-7, 5.691e-7
-0.226, -1.170e-6, -6.034e-7, 5.663e-7
-0.227, -1.171e-6, -6.034e-7, 5.678e-7
-0.228, -1.168e-6, -6.009e-7, 5.672e-7
-0.229, -1.168e-6, -6.034e-7, 5.645e-7
-0.230, -1.168e-6, -6.034e-7, 5.651e-7
-0.231, -1.165e-6, -6.009e-7, 5.639e-7
-0.232, -1.163e-6, -5.991e-7, 5.636e-7
-0.233, -1.168e-6, -6.052e-7, 5.623e-7
-0.234, -1.163e-6, -6.003e-7, 5.627e-7
-0.235, -1.164e-6, -6.034e-7, 5.602e-7
-0.236, -1.165e-6, -6.009e-7, 5.639e-7
-0.237, -1.159e-6, -5.994e-7, 5.593e-7
-0.238, -1.158e-6, -6.000e-7, 5.584e-7
-0.239, -1.161e-6, -6.000e-7, 5.614e-7
-0.240, -1.158e-6, -5.988e-7, 5.593e-7
-0.241, -1.162e-6, -6.015e-7, 5.602e-7
-0.242, -1.160e-6, -6.012e-7, 5.584e-7
-0.243, -1.154e-6, -5.982e-7, 5.559e-7
-0.244, -1.155e-6, -5.994e-7, 5.559e-7
-0.245, -1.154e-6, -5.976e-7, 5.569e-7
-0.246, -1.156e-6, -6.003e-7, 5.553e-7
-0.247, -1.153e-6, -5.979e-7, 5.550e-7
-0.248, -1.153e-6, -5.982e-7, 5.544e-7
-0.249, -1.152e-6, -5.979e-7, 5.544e-7
-0.250, -1.150e-6, -5.966e-7, 5.538e-7
-0.251, -1.154e-6, -5.991e-7, 5.553e-7
-0.252, -1.152e-6, -5.991e-7, 5.529e-7
-0.253, -1.150e-6, -5.973e-7, 5.529e-7
-0.254, -1.149e-6, -5.963e-7, 5.523e-7
-0.255, -1.149e-6, -5.988e-7, 5.501e-7
-0.256, -1.150e-6, -5.966e-7, 5.529e-7
-0.257, -1.146e-6, -5.951e-7, 5.508e-7
-0.258, -1.148e-6, -5.979e-7, 5.504e-7
-0.259, -1.151e-6, -5.979e-7, 5.529e-7
-0.260, -1.146e-6, -5.957e-7, 5.501e-7
-0.261, -1.146e-6, -5.985e-7, 5.477e-7
-0.262, -1.145e-6, -5.960e-7, 5.489e-7
-0.263, -1.145e-6, -5.966e-7, 5.486e-7
-0.264, -1.146e-6, -5.979e-7, 5.483e-7
-0.265, -1.146e-6, -5.963e-7, 5.498e-7
-0.266, -1.145e-6, -5.966e-7, 5.480e-7
-0.267, -1.143e-6, -5.969e-7, 5.459e-7
-0.268, -1.142e-6, -5.954e-7, 5.468e-7
-0.269, -1.143e-6, -5.960e-7, 5.465e-7
-0.270, -1.141e-6, -5.948e-7, 5.465e-7
-0.271, -1.142e-6, -5.960e-7, 5.462e-7
-0.272, -1.142e-6, -5.960e-7, 5.456e-7
-0.273, -1.142e-6, -5.969e-7, 5.453e-7
-0.274, -1.144e-6, -5.991e-7, 5.446e-7
-0.275, -1.142e-6, -5.966e-7, 5.456e-7
-0.276, -1.141e-6, -5.957e-7, 5.453e-7
-0.277, -1.137e-6, -5.930e-7, 5.437e-7
-0.278, -1.139e-6, -5.957e-7, 5.431e-7
-0.279, -1.142e-6, -5.976e-7, 5.440e-7
-0.280, -1.140e-6, -5.982e-7, 5.422e-7
-0.281, -1.137e-6, -5.954e-7, 5.419e-7
-0.282, -1.137e-6, -5.942e-7, 5.431e-7
-0.283, -1.139e-6, -5.979e-7, 5.416e-7
-0.284, -1.139e-6, -5.976e-7, 5.416e-7
-0.285, -1.142e-6, -5.991e-7, 5.425e-7
-0.286, -1.137e-6, -5.979e-7, 5.395e-7
-0.287, -1.138e-6, -5.954e-7, 5.422e-7
-0.288, -1.135e-6, -5.948e-7, 5.407e-7
-0.289, -1.136e-6, -5.969e-7, 5.392e-7
-0.290, -1.138e-6, -5.963e-7, 5.419e-7
-0.291, -1.138e-6, -5.982e-7, 5.401e-7
-0.292, -1.136e-6, -5.976e-7, 5.389e-7
-0.293, -1.137e-6, -5.982e-7, 5.385e-7
-0.294, -1.132e-6, -5.948e-7, 5.376e-7
-0.295, -1.132e-6, -5.951e-7, 5.373e-7
-0.296, -1.133e-6, -5.951e-7, 5.382e-7
-0.297, -1.137e-6, -6.009e-7, 5.358e-7
-0.298, -1.131e-6, -5.948e-7, 5.361e-7
-0.299, -1.129e-6, -5.918e-7, 5.376e-7
-0.300, -1.132e-6, -5.969e-7, 5.349e-7
-0.301, -1.132e-6, -5.957e-7, 5.364e-7
-0.302, -1.133e-6, -5.966e-7, 5.364e-7
-0.303, -1.127e-6, -5.939e-7, 5.331e-7
-0.304, -1.134e-6, -5.976e-7, 5.361e-7
-0.305, -1.131e-6, -5.948e-7, 5.361e-7
-0.306, -1.127e-6, -5.942e-7, 5.331e-7
-0.307, -1.131e-6, -5.963e-7, 5.343e-7
-0.308, -1.128e-6, -5.933e-7, 5.343e-7
-0.309, -1.128e-6, -5.951e-7, 5.324e-7
-0.310, -1.129e-6, -5.973e-7, 5.321e-7
-0.311, -1.127e-6, -5.930e-7, 5.337e-7
-0.312, -1.129e-6, -5.969e-7, 5.318e-7
-0.313, -1.130e-6, -5.973e-7, 5.331e-7
-0.314, -1.127e-6, -5.942e-7, 5.327e-7
-0.315, -1.127e-6, -5.963e-7, 5.303e-7
-0.316, -1.126e-6, -5.939e-7, 5.321e-7
-0.317, -1.127e-6, -5.948e-7, 5.318e-7
-0.318, -1.128e-6, -5.973e-7, 5.309e-7
-0.319, -1.130e-6, -5.976e-7, 5.321e-7
-0.320, -1.125e-6, -5.948e-7, 5.303e-7
-0.321, -1.122e-6, -5.939e-7, 5.285e-7
-0.322, -1.122e-6, -5.939e-7, 5.282e-7
-0.323, -1.121e-6, -5.942e-7, 5.269e-7
-0.324, -1.121e-6, -5.930e-7, 5.279e-7
-0.325, -1.123e-6, -5.945e-7, 5.288e-7
-0.326, -1.121e-6, -5.927e-7, 5.279e-7
-0.327, -1.122e-6, -5.942e-7, 5.282e-7
-0.328, -1.120e-6, -5.948e-7, 5.254e-7
-0.329, -1.116e-6, -5.924e-7, 5.233e-7
-0.330, -1.118e-6, -5.927e-7, 5.251e-7
-0.331, -1.119e-6, -5.945e-7, 5.248e-7
-0.332, -1.120e-6, -5.948e-7, 5.251e-7
-0.333, -1.121e-6, -5.942e-7, 5.266e-7
-0.334, -1.117e-6, -5.924e-7, 5.251e-7
-0.335, -1.118e-6, -5.936e-7, 5.245e-7
-0.336, -1.117e-6, -5.921e-7, 5.248e-7
-0.337, -1.115e-6, -5.921e-7, 5.230e-7
-0.338, -1.117e-6, -5.945e-7, 5.221e-7
-0.339, -1.115e-6, -5.927e-7, 5.221e-7
-0.340, -1.118e-6, -5.948e-7, 5.230e-7
-0.341, -1.117e-6, -5.936e-7, 5.233e-7
-0.342, -1.114e-6, -5.918e-7, 5.227e-7
-0.343, -1.115e-6, -5.948e-7, 5.202e-7
-0.344, -1.118e-6, -5.966e-7, 5.215e-7
-0.345, -1.119e-6, -5.963e-7, 5.227e-7
-0.346, -1.122e-6, -6.015e-7, 5.208e-7
-0.347, -1.117e-6, -5.966e-7, 5.208e-7
-0.348, -1.114e-6, -5.939e-7, 5.199e-7
-0.349, -1.117e-6, -5.991e-7, 5.181e-7
-0.350, -1.117e-6, -5.945e-7, 5.224e-7
-0.351, -1.117e-6, -5.960e-7, 5.205e-7
-0.352, -1.121e-6, -6.031e-7, 5.184e-7
-0.353, -1.116e-6, -5.957e-7, 5.205e-7
-0.354, -1.114e-6, -5.960e-7, 5.184e-7
-0.355, -1.112e-6, -5.942e-7, 5.178e-7
-0.356, -1.116e-6, -5.960e-7, 5.196e-7
-0.357, -1.113e-6, -5.957e-7, 5.172e-7
-0.358, -1.113e-6, -5.954e-7, 5.172e-7
-0.359, -1.113e-6, -5.951e-7, 5.181e-7
-0.360, -1.116e-6, -5.976e-7, 5.187e-7
-0.361, -1.116e-6, -5.991e-7, 5.166e-7
-0.362, -1.119e-6, -6.009e-7, 5.181e-7
-0.363, -1.117e-6, -5.988e-7, 5.181e-7
-0.364, -1.116e-6, -5.988e-7, 5.169e-7
-0.365, -1.117e-6, -6.003e-7, 5.163e-7
-0.366, -1.114e-6, -5.982e-7, 5.154e-7
-0.367, -1.116e-6, -5.991e-7, 5.166e-7
-0.368, -1.113e-6, -5.979e-7, 5.147e-7
-0.369, -1.114e-6, -6.000e-7, 5.141e-7
-0.370, -1.117e-6, -6.012e-7, 5.154e-7
-0.371, -1.115e-6, -6.006e-7, 5.144e-7
-0.372, -1.117e-6, -6.027e-7, 5.141e-7
-0.373, -1.117e-6, -6.031e-7, 5.135e-7
-0.374, -1.114e-6, -6.015e-7, 5.126e-7
-0.375, -1.115e-6, -6.018e-7, 5.129e-7
-0.376, -1.116e-6, -6.034e-7, 5.129e-7
-0.377, -1.117e-6, -6.043e-7, 5.126e-7
-0.378, -1.115e-6, -6.031e-7, 5.123e-7
-0.379, -1.114e-6, -6.021e-7, 5.117e-7
-0.380, -1.114e-6, -6.034e-7, 5.111e-7
-0.381, -1.115e-6, -6.024e-7, 5.126e-7
-0.382, -1.113e-6, -6.031e-7, 5.102e-7
-0.383, -1.114e-6, -6.043e-7, 5.096e-7
-0.384, -1.118e-6, -6.073e-7, 5.111e-7
-0.385, -1.114e-6, -6.049e-7, 5.096e-7
-0.386, -1.112e-6, -6.040e-7, 5.083e-7
-0.387, -1.116e-6, -6.061e-7, 5.102e-7
-0.388, -1.111e-6, -6.055e-7, 5.056e-7
-0.389, -1.118e-6, -6.110e-7, 5.071e-7
-0.390, -1.114e-6, -6.061e-7, 5.077e-7
-0.391, -1.114e-6, -6.082e-7, 5.062e-7
-0.392, -1.114e-6, -6.079e-7, 5.062e-7
-0.393, -1.114e-6, -6.073e-7, 5.071e-7
-0.394, -1.112e-6, -6.085e-7, 5.035e-7
-0.395, -1.112e-6, -6.085e-7, 5.038e-7
-0.396, -1.114e-6, -6.082e-7, 5.056e-7
-0.397, -1.112e-6, -6.107e-7, 5.013e-7
-0.398, -1.118e-6, -6.125e-7, 5.053e-7
-0.399, -1.114e-6, -6.098e-7, 5.041e-7
-0.400, -1.111e-6, -6.088e-7, 5.019e-7
