Mar. 20, 2018   16:00:18
Square Wave Voltammetry
File: c:\users\electrochemist\desktop\2018\20032018_unbufarray_unpap\64_g1_ph9,96_2.txt
Data Source:  Experiment
Instrument Model:  CHI1040A
Header: 
Note: 

Init E (V) = 0.7
Final E (V) = -0.4
Incr E (V) = 0.001
Amplitude (V) = 0.1
Frequency (Hz) = 152
Quiet Time (sec) = 2
Sensitivity (A/V) = 1e-6

Difference:

Forward:

Reverse:

Potential/V, Diff(i/A), For(i/A), Rev(i/A)

0.699, -9.966e-7, -2.295e-7, 7.671e-7
0.698, -1.161e-6, -4.688e-7, 6.917e-7
0.697, -1.157e-6, -4.880e-7, 6.686e-7
0.696, -1.153e-6, -4.904e-7, 6.628e-7
0.695, -1.139e-6, -4.920e-7, 6.472e-7
0.694, -1.136e-6, -4.956e-7, 6.405e-7
0.693, -1.130e-6, -4.926e-7, 6.377e-7
0.692, -1.120e-6, -4.941e-7, 6.261e-7
0.691, -1.116e-6, -4.959e-7, 6.203e-7
0.690, -1.114e-6, -4.944e-7, 6.200e-7
0.689, -1.101e-6, -4.953e-7, 6.054e-7
0.688, -1.102e-6, -4.959e-7, 6.063e-7
0.687, -1.095e-6, -4.901e-7, 6.051e-7
0.686, -1.087e-6, -4.917e-7, 5.956e-7
0.685, -1.088e-6, -4.929e-7, 5.950e-7
0.684, -1.081e-6, -4.895e-7, 5.920e-7
0.683, -1.075e-6, -4.914e-7, 5.834e-7
0.682, -1.076e-6, -4.938e-7, 5.822e-7
0.681, -1.069e-6, -4.880e-7, 5.810e-7
0.680, -1.067e-6, -4.917e-7, 5.758e-7
0.679, -1.063e-6, -4.910e-7, 5.724e-7
0.678, -1.061e-6, -4.880e-7, 5.730e-7
0.677, -1.054e-6, -4.898e-7, 5.645e-7
0.676, -1.054e-6, -4.907e-7, 5.630e-7
0.675, -1.052e-6, -4.871e-7, 5.645e-7
0.674, -1.044e-6, -4.862e-7, 5.578e-7
0.673, -1.047e-6, -4.904e-7, 5.563e-7
0.672, -1.040e-6, -4.856e-7, 5.547e-7
0.671, -1.036e-6, -4.859e-7, 5.502e-7
0.670, -1.037e-6, -4.889e-7, 5.480e-7
0.669, -1.027e-6, -4.856e-7, 5.413e-7
0.668, -1.028e-6, -4.862e-7, 5.422e-7
0.667, -1.030e-6, -4.871e-7, 5.428e-7
0.666, -1.022e-6, -4.846e-7, 5.373e-7
0.665, -1.022e-6, -4.856e-7, 5.367e-7
0.664, -1.019e-6, -4.846e-7, 5.343e-7
0.663, -1.016e-6, -4.843e-7, 5.321e-7
0.662, -1.016e-6, -4.837e-7, 5.325e-7
0.661, -1.011e-6, -4.810e-7, 5.303e-7
0.660, -1.007e-6, -4.834e-7, 5.239e-7
0.659, -1.008e-6, -4.822e-7, 5.254e-7
0.658, -1.005e-6, -4.819e-7, 5.236e-7
0.657, -1.003e-6, -4.840e-7, 5.190e-7
0.656, -1.001e-6, -4.816e-7, 5.193e-7
0.655, -9.970e-7, -4.813e-7, 5.157e-7
0.654, -9.957e-7, -4.810e-7, 5.148e-7
0.653, -9.970e-7, -4.819e-7, 5.151e-7
0.652, -9.915e-7, -4.782e-7, 5.132e-7
0.651, -9.939e-7, -4.807e-7, 5.132e-7
0.650, -9.893e-7, -4.779e-7, 5.114e-7
0.649, -9.902e-7, -4.779e-7, 5.123e-7
0.648, -9.866e-7, -4.807e-7, 5.059e-7
0.647, -9.857e-7, -4.795e-7, 5.062e-7
0.646, -9.835e-7, -4.785e-7, 5.050e-7
0.645, -9.826e-7, -4.791e-7, 5.035e-7
0.644, -9.820e-7, -4.791e-7, 5.029e-7
0.643, -9.789e-7, -4.785e-7, 5.004e-7
0.642, -9.783e-7, -4.807e-7, 4.977e-7
0.641, -9.771e-7, -4.773e-7, 4.998e-7
0.640, -9.753e-7, -4.788e-7, 4.964e-7
0.639, -9.771e-7, -4.822e-7, 4.949e-7
0.638, -9.725e-7, -4.776e-7, 4.949e-7
0.637, -9.707e-7, -4.785e-7, 4.922e-7
0.636, -9.725e-7, -4.795e-7, 4.931e-7
0.635, -9.680e-7, -4.767e-7, 4.913e-7
0.634, -9.698e-7, -4.791e-7, 4.906e-7
0.633, -9.680e-7, -4.782e-7, 4.897e-7
0.632, -9.686e-7, -4.782e-7, 4.903e-7
0.631, -9.658e-7, -4.782e-7, 4.876e-7
0.630, -9.689e-7, -4.807e-7, 4.882e-7
0.629, -9.667e-7, -4.776e-7, 4.891e-7
0.628, -9.646e-7, -4.785e-7, 4.861e-7
0.627, -9.640e-7, -4.795e-7, 4.845e-7
0.626, -9.640e-7, -4.795e-7, 4.845e-7
0.625, -9.631e-7, -4.795e-7, 4.836e-7
0.624, -9.622e-7, -4.782e-7, 4.839e-7
0.623, -9.576e-7, -4.764e-7, 4.812e-7
0.622, -9.616e-7, -4.798e-7, 4.818e-7
0.621, -9.622e-7, -4.785e-7, 4.836e-7
0.620, -9.573e-7, -4.761e-7, 4.812e-7
0.619, -9.594e-7, -4.810e-7, 4.784e-7
0.618, -9.616e-7, -4.791e-7, 4.824e-7
0.617, -9.555e-7, -4.779e-7, 4.775e-7
0.616, -9.555e-7, -4.813e-7, 4.742e-7
0.615, -9.606e-7, -4.798e-7, 4.809e-7
0.614, -9.558e-7, -4.779e-7, 4.778e-7
0.613, -9.588e-7, -4.828e-7, 4.760e-7
0.612, -9.588e-7, -4.810e-7, 4.778e-7
0.611, -9.524e-7, -4.776e-7, 4.748e-7
0.610, -9.530e-7, -4.795e-7, 4.736e-7
0.609, -9.573e-7, -4.798e-7, 4.775e-7
0.608, -9.515e-7, -4.776e-7, 4.739e-7
0.607, -9.527e-7, -4.807e-7, 4.720e-7
0.606, -9.545e-7, -4.807e-7, 4.739e-7
0.605, -9.545e-7, -4.810e-7, 4.736e-7
0.604, -9.545e-7, -4.831e-7, 4.714e-7
0.603, -9.521e-7, -4.791e-7, 4.729e-7
0.602, -9.527e-7, -4.822e-7, 4.705e-7
0.601, -9.484e-7, -4.785e-7, 4.699e-7
0.600, -9.493e-7, -4.785e-7, 4.708e-7
0.599, -9.545e-7, -4.828e-7, 4.717e-7
0.598, -9.521e-7, -4.810e-7, 4.711e-7
0.597, -9.539e-7, -4.837e-7, 4.702e-7
0.596, -9.527e-7, -4.834e-7, 4.693e-7
0.595, -9.542e-7, -4.819e-7, 4.723e-7
0.594, -9.515e-7, -4.831e-7, 4.684e-7
0.593, -9.533e-7, -4.825e-7, 4.708e-7
0.592, -9.521e-7, -4.828e-7, 4.693e-7
0.591, -9.518e-7, -4.822e-7, 4.696e-7
0.590, -9.539e-7, -4.846e-7, 4.693e-7
0.589, -9.527e-7, -4.843e-7, 4.684e-7
0.588, -9.497e-7, -4.837e-7, 4.659e-7
0.587, -9.533e-7, -4.846e-7, 4.687e-7
0.586, -9.518e-7, -4.843e-7, 4.675e-7
0.585, -9.521e-7, -4.856e-7, 4.665e-7
0.584, -9.561e-7, -4.865e-7, 4.696e-7
0.583, -9.555e-7, -4.871e-7, 4.684e-7
0.582, -9.530e-7, -4.843e-7, 4.687e-7
0.581, -9.548e-7, -4.883e-7, 4.665e-7
0.580, -9.512e-7, -4.828e-7, 4.684e-7
0.579, -9.527e-7, -4.883e-7, 4.644e-7
0.578, -9.558e-7, -4.886e-7, 4.671e-7
0.577, -9.518e-7, -4.853e-7, 4.665e-7
0.576, -9.493e-7, -4.843e-7, 4.650e-7
0.575, -9.551e-7, -4.880e-7, 4.671e-7
0.574, -9.524e-7, -4.865e-7, 4.659e-7
0.573, -9.500e-7, -4.862e-7, 4.638e-7
0.572, -9.573e-7, -4.901e-7, 4.671e-7
0.571, -9.533e-7, -4.868e-7, 4.665e-7
0.570, -9.536e-7, -4.886e-7, 4.650e-7
0.569, -9.576e-7, -4.901e-7, 4.675e-7
0.568, -9.487e-7, -4.846e-7, 4.641e-7
0.567, -9.573e-7, -4.910e-7, 4.662e-7
0.566, -9.536e-7, -4.874e-7, 4.662e-7
0.565, -9.515e-7, -4.895e-7, 4.620e-7
0.564, -9.564e-7, -4.926e-7, 4.638e-7
0.563, -9.555e-7, -4.886e-7, 4.668e-7
0.562, -9.527e-7, -4.898e-7, 4.629e-7
0.561, -9.536e-7, -4.904e-7, 4.632e-7
0.560, -9.539e-7, -4.892e-7, 4.647e-7
0.559, -9.500e-7, -4.895e-7, 4.604e-7
0.558, -9.548e-7, -4.929e-7, 4.620e-7
0.557, -9.567e-7, -4.898e-7, 4.668e-7
0.556, -9.545e-7, -4.929e-7, 4.617e-7
0.555, -9.561e-7, -4.938e-7, 4.623e-7
0.554, -9.536e-7, -4.895e-7, 4.641e-7
0.553, -9.530e-7, -4.926e-7, 4.604e-7
0.552, -9.533e-7, -4.914e-7, 4.620e-7
0.551, -9.573e-7, -4.917e-7, 4.656e-7
0.550, -9.527e-7, -4.926e-7, 4.601e-7
0.549, -9.539e-7, -4.917e-7, 4.623e-7
0.548, -9.548e-7, -4.910e-7, 4.638e-7
0.547, -9.542e-7, -4.920e-7, 4.623e-7
0.546, -9.567e-7, -4.932e-7, 4.635e-7
0.545, -9.554e-7, -4.926e-7, 4.629e-7
0.544, -9.542e-7, -4.941e-7, 4.601e-7
0.543, -9.591e-7, -4.962e-7, 4.629e-7
0.542, -9.567e-7, -4.929e-7, 4.638e-7
0.541, -9.561e-7, -4.938e-7, 4.623e-7
0.540, -9.582e-7, -4.968e-7, 4.613e-7
0.539, -9.558e-7, -4.935e-7, 4.623e-7
0.538, -9.512e-7, -4.920e-7, 4.592e-7
0.537, -9.585e-7, -4.972e-7, 4.613e-7
0.536, -9.555e-7, -4.953e-7, 4.601e-7
0.535, -9.558e-7, -4.953e-7, 4.604e-7
0.534, -9.570e-7, -4.950e-7, 4.620e-7
0.533, -9.558e-7, -4.956e-7, 4.601e-7
0.532, -9.579e-7, -4.968e-7, 4.610e-7
0.531, -9.539e-7, -4.944e-7, 4.595e-7
0.530, -9.567e-7, -4.968e-7, 4.598e-7
0.529, -9.600e-7, -4.996e-7, 4.604e-7
0.528, -9.570e-7, -4.959e-7, 4.610e-7
0.527, -9.576e-7, -4.978e-7, 4.598e-7
0.526, -9.622e-7, -4.996e-7, 4.626e-7
0.525, -9.564e-7, -4.953e-7, 4.610e-7
0.524, -9.591e-7, -4.987e-7, 4.604e-7
0.523, -9.594e-7, -4.987e-7, 4.607e-7
0.522, -9.570e-7, -4.972e-7, 4.598e-7
0.521, -9.561e-7, -4.981e-7, 4.580e-7
0.520, -9.616e-7, -4.999e-7, 4.617e-7
0.519, -9.564e-7, -4.965e-7, 4.598e-7
0.518, -9.594e-7, -5.011e-7, 4.583e-7
0.517, -9.588e-7, -4.993e-7, 4.595e-7
0.516, -9.585e-7, -4.990e-7, 4.595e-7
0.515, -9.603e-7, -5.023e-7, 4.580e-7
0.514, -9.631e-7, -5.020e-7, 4.610e-7
0.513, -9.628e-7, -5.017e-7, 4.610e-7
0.512, -9.643e-7, -5.057e-7, 4.586e-7
0.511, -9.631e-7, -5.014e-7, 4.617e-7
0.510, -9.652e-7, -5.033e-7, 4.620e-7
0.509, -9.670e-7, -5.045e-7, 4.626e-7
0.508, -9.622e-7, -5.026e-7, 4.595e-7
0.507, -9.637e-7, -5.045e-7, 4.592e-7
0.506, -9.674e-7, -5.060e-7, 4.613e-7
0.505, -9.664e-7, -5.036e-7, 4.629e-7
0.504, -9.625e-7, -5.033e-7, 4.592e-7
0.503, -9.683e-7, -5.066e-7, 4.617e-7
0.502, -9.689e-7, -5.042e-7, 4.647e-7
0.501, -9.646e-7, -5.057e-7, 4.589e-7
0.500, -9.701e-7, -5.075e-7, 4.626e-7
0.499, -9.670e-7, -5.033e-7, 4.638e-7
0.498, -9.701e-7, -5.097e-7, 4.604e-7
0.497, -9.731e-7, -5.081e-7, 4.650e-7
0.496, -9.677e-7, -5.060e-7, 4.617e-7
0.495, -9.686e-7, -5.100e-7, 4.586e-7
0.494, -9.756e-7, -5.097e-7, 4.659e-7
0.493, -9.725e-7, -5.078e-7, 4.647e-7
0.492, -9.738e-7, -5.115e-7, 4.623e-7
0.491, -9.768e-7, -5.127e-7, 4.641e-7
0.490, -9.750e-7, -5.103e-7, 4.647e-7
0.489, -9.771e-7, -5.149e-7, 4.623e-7
0.488, -9.789e-7, -5.124e-7, 4.665e-7
0.487, -9.728e-7, -5.097e-7, 4.632e-7
0.486, -9.774e-7, -5.145e-7, 4.629e-7
0.485, -9.799e-7, -5.142e-7, 4.656e-7
0.484, -9.774e-7, -5.121e-7, 4.653e-7
0.483, -9.814e-7, -5.173e-7, 4.641e-7
0.482, -9.796e-7, -5.115e-7, 4.681e-7
0.481, -9.823e-7, -5.152e-7, 4.671e-7
0.480, -9.808e-7, -5.161e-7, 4.647e-7
0.479, -9.860e-7, -5.179e-7, 4.681e-7
0.478, -9.832e-7, -5.176e-7, 4.656e-7
0.477, -9.863e-7, -5.185e-7, 4.678e-7
0.476, -9.887e-7, -5.182e-7, 4.705e-7
0.475, -9.851e-7, -5.191e-7, 4.659e-7
0.474, -9.838e-7, -5.161e-7, 4.678e-7
0.473, -9.912e-7, -5.228e-7, 4.684e-7
0.472, -9.912e-7, -5.225e-7, 4.687e-7
0.471, -9.899e-7, -5.225e-7, 4.675e-7
0.470, -9.918e-7, -5.231e-7, 4.687e-7
0.469, -9.939e-7, -5.231e-7, 4.708e-7
0.468, -9.921e-7, -5.216e-7, 4.705e-7
0.467, -9.933e-7, -5.249e-7, 4.684e-7
0.466, -9.939e-7, -5.243e-7, 4.696e-7
0.465, -9.951e-7, -5.234e-7, 4.717e-7
0.464, -9.976e-7, -5.258e-7, 4.717e-7
0.463, -9.988e-7, -5.289e-7, 4.699e-7
0.462, -1.001e-6, -5.274e-7, 4.736e-7
0.461, -9.957e-7, -5.271e-7, 4.687e-7
0.460, -9.976e-7, -5.283e-7, 4.693e-7
0.459, -1.001e-6, -5.280e-7, 4.726e-7
0.458, -1.002e-6, -5.289e-7, 4.726e-7
0.457, -1.003e-6, -5.310e-7, 4.717e-7
0.456, -1.000e-6, -5.264e-7, 4.739e-7
0.455, -1.004e-6, -5.332e-7, 4.711e-7
0.454, -1.007e-6, -5.332e-7, 4.739e-7
0.453, -1.006e-6, -5.307e-7, 4.754e-7
0.452, -1.009e-6, -5.332e-7, 4.757e-7
0.451, -1.008e-6, -5.350e-7, 4.732e-7
0.450, -1.014e-6, -5.347e-7, 4.790e-7
0.449, -1.007e-6, -5.350e-7, 4.723e-7
0.448, -1.013e-6, -5.362e-7, 4.766e-7
0.447, -1.012e-6, -5.350e-7, 4.772e-7
0.446, -1.013e-6, -5.377e-7, 4.748e-7
0.445, -1.016e-6, -5.399e-7, 4.766e-7
0.444, -1.015e-6, -5.365e-7, 4.784e-7
0.443, -1.016e-6, -5.402e-7, 4.760e-7
0.442, -1.016e-6, -5.387e-7, 4.775e-7
0.441, -1.019e-6, -5.399e-7, 4.794e-7
0.440, -1.017e-6, -5.414e-7, 4.757e-7
0.439, -1.017e-6, -5.399e-7, 4.772e-7
0.438, -1.017e-6, -5.405e-7, 4.769e-7
0.437, -1.020e-6, -5.435e-7, 4.769e-7
0.436, -1.025e-6, -5.435e-7, 4.815e-7
0.435, -1.019e-6, -5.411e-7, 4.775e-7
0.434, -1.026e-6, -5.457e-7, 4.800e-7
0.433, -1.027e-6, -5.454e-7, 4.815e-7
0.432, -1.024e-6, -5.441e-7, 4.800e-7
0.431, -1.028e-6, -5.478e-7, 4.806e-7
0.430, -1.027e-6, -5.454e-7, 4.815e-7
0.429, -1.024e-6, -5.469e-7, 4.772e-7
0.428, -1.031e-6, -5.481e-7, 4.824e-7
0.427, -1.027e-6, -5.454e-7, 4.821e-7
0.426, -1.030e-6, -5.493e-7, 4.806e-7
0.425, -1.032e-6, -5.509e-7, 4.812e-7
0.424, -1.031e-6, -5.469e-7, 4.842e-7
0.423, -1.030e-6, -5.509e-7, 4.794e-7
0.422, -1.035e-6, -5.533e-7, 4.818e-7
0.421, -1.034e-6, -5.496e-7, 4.839e-7
0.420, -1.035e-6, -5.533e-7, 4.818e-7
0.419, -1.036e-6, -5.530e-7, 4.827e-7
0.418, -1.038e-6, -5.512e-7, 4.867e-7
0.417, -1.038e-6, -5.542e-7, 4.836e-7
0.416, -1.038e-6, -5.579e-7, 4.806e-7
0.415, -1.042e-6, -5.542e-7, 4.873e-7
0.414, -1.042e-6, -5.585e-7, 4.830e-7
0.413, -1.044e-6, -5.585e-7, 4.855e-7
0.412, -1.043e-6, -5.564e-7, 4.864e-7
0.411, -1.046e-6, -5.588e-7, 4.873e-7
0.410, -1.046e-6, -5.588e-7, 4.870e-7
0.409, -1.047e-6, -5.597e-7, 4.870e-7
0.408, -1.045e-6, -5.606e-7, 4.845e-7
0.407, -1.049e-6, -5.603e-7, 4.882e-7
0.406, -1.047e-6, -5.591e-7, 4.879e-7
0.405, -1.051e-6, -5.631e-7, 4.879e-7
0.404, -1.052e-6, -5.631e-7, 4.894e-7
0.403, -1.054e-6, -5.655e-7, 4.885e-7
0.402, -1.056e-6, -5.658e-7, 4.900e-7
0.401, -1.056e-6, -5.664e-7, 4.900e-7
0.400, -1.052e-6, -5.649e-7, 4.876e-7
0.399, -1.056e-6, -5.667e-7, 4.894e-7
0.398, -1.058e-6, -5.667e-7, 4.916e-7
0.397, -1.057e-6, -5.673e-7, 4.894e-7
0.396, -1.060e-6, -5.679e-7, 4.922e-7
0.395, -1.062e-6, -5.686e-7, 4.934e-7
0.394, -1.061e-6, -5.701e-7, 4.909e-7
0.393, -1.064e-6, -5.704e-7, 4.937e-7
0.392, -1.060e-6, -5.698e-7, 4.903e-7
0.391, -1.062e-6, -5.719e-7, 4.903e-7
0.390, -1.065e-6, -5.731e-7, 4.919e-7
0.389, -1.067e-6, -5.737e-7, 4.937e-7
0.388, -1.067e-6, -5.756e-7, 4.909e-7
0.387, -1.068e-6, -5.744e-7, 4.937e-7
0.386, -1.069e-6, -5.756e-7, 4.937e-7
0.385, -1.071e-6, -5.765e-7, 4.943e-7
0.384, -1.074e-6, -5.777e-7, 4.961e-7
0.383, -1.073e-6, -5.771e-7, 4.955e-7
0.382, -1.075e-6, -5.799e-7, 4.949e-7
0.381, -1.078e-6, -5.783e-7, 4.998e-7
0.380, -1.076e-6, -5.808e-7, 4.952e-7
0.379, -1.082e-6, -5.835e-7, 4.983e-7
0.378, -1.081e-6, -5.811e-7, 4.998e-7
0.377, -1.078e-6, -5.823e-7, 4.961e-7
0.376, -1.085e-6, -5.850e-7, 4.995e-7
0.375, -1.085e-6, -5.823e-7, 5.025e-7
0.374, -1.083e-6, -5.853e-7, 4.977e-7
0.373, -1.087e-6, -5.866e-7, 5.001e-7
0.372, -1.084e-6, -5.832e-7, 5.010e-7
0.371, -1.090e-6, -5.884e-7, 5.013e-7
0.370, -1.094e-6, -5.887e-7, 5.050e-7
0.369, -1.092e-6, -5.890e-7, 5.032e-7
0.368, -1.092e-6, -5.899e-7, 5.025e-7
0.367, -1.101e-6, -5.933e-7, 5.077e-7
0.366, -1.096e-6, -5.899e-7, 5.059e-7
0.365, -1.099e-6, -5.948e-7, 5.038e-7
0.364, -1.101e-6, -5.933e-7, 5.074e-7
0.363, -1.100e-6, -5.951e-7, 5.050e-7
0.362, -1.105e-6, -5.991e-7, 5.056e-7
0.361, -1.106e-6, -5.982e-7, 5.080e-7
0.360, -1.103e-6, -5.963e-7, 5.065e-7
0.359, -1.107e-6, -6.015e-7, 5.056e-7
0.358, -1.109e-6, -5.997e-7, 5.093e-7
0.357, -1.110e-6, -6.012e-7, 5.093e-7
0.356, -1.112e-6, -6.040e-7, 5.077e-7
0.355, -1.117e-6, -6.033e-7, 5.138e-7
0.354, -1.114e-6, -6.027e-7, 5.114e-7
0.353, -1.117e-6, -6.061e-7, 5.114e-7
0.352, -1.119e-6, -6.067e-7, 5.126e-7
0.351, -1.124e-6, -6.085e-7, 5.154e-7
0.350, -1.120e-6, -6.085e-7, 5.117e-7
0.349, -1.123e-6, -6.076e-7, 5.151e-7
0.348, -1.124e-6, -6.082e-7, 5.160e-7
0.347, -1.129e-6, -6.119e-7, 5.169e-7
0.346, -1.126e-6, -6.095e-7, 5.163e-7
0.345, -1.128e-6, -6.104e-7, 5.175e-7
0.344, -1.133e-6, -6.149e-7, 5.181e-7
0.343, -1.132e-6, -6.134e-7, 5.187e-7
0.342, -1.134e-6, -6.165e-7, 5.175e-7
0.341, -1.136e-6, -6.171e-7, 5.190e-7
0.340, -1.142e-6, -6.189e-7, 5.230e-7
0.339, -1.143e-6, -6.201e-7, 5.227e-7
0.338, -1.143e-6, -6.198e-7, 5.227e-7
0.337, -1.143e-6, -6.204e-7, 5.221e-7
0.336, -1.147e-6, -6.244e-7, 5.224e-7
0.335, -1.150e-6, -6.241e-7, 5.260e-7
0.334, -1.149e-6, -6.241e-7, 5.251e-7
0.333, -1.154e-6, -6.272e-7, 5.270e-7
0.332, -1.157e-6, -6.287e-7, 5.279e-7
0.331, -1.154e-6, -6.275e-7, 5.263e-7
0.330, -1.161e-6, -6.299e-7, 5.306e-7
0.329, -1.162e-6, -6.323e-7, 5.300e-7
0.328, -1.160e-6, -6.302e-7, 5.300e-7
0.327, -1.163e-6, -6.342e-7, 5.285e-7
0.326, -1.167e-6, -6.329e-7, 5.337e-7
0.325, -1.166e-6, -6.378e-7, 5.279e-7
0.324, -1.168e-6, -6.360e-7, 5.321e-7
0.323, -1.169e-6, -6.357e-7, 5.337e-7
0.322, -1.175e-6, -6.397e-7, 5.349e-7
0.321, -1.175e-6, -6.387e-7, 5.358e-7
0.320, -1.176e-6, -6.412e-7, 5.349e-7
0.319, -1.177e-6, -6.427e-7, 5.340e-7
0.318, -1.184e-6, -6.455e-7, 5.386e-7
0.317, -1.180e-6, -6.412e-7, 5.389e-7
0.316, -1.179e-6, -6.455e-7, 5.340e-7
0.315, -1.189e-6, -6.476e-7, 5.413e-7
0.314, -1.188e-6, -6.458e-7, 5.422e-7
0.313, -1.185e-6, -6.467e-7, 5.386e-7
0.312, -1.193e-6, -6.510e-7, 5.419e-7
0.311, -1.190e-6, -6.482e-7, 5.416e-7
0.310, -1.194e-6, -6.543e-7, 5.398e-7
0.309, -1.198e-6, -6.534e-7, 5.450e-7
0.308, -1.195e-6, -6.510e-7, 5.437e-7
0.307, -1.203e-6, -6.592e-7, 5.434e-7
0.306, -1.202e-6, -6.558e-7, 5.465e-7
0.305, -1.201e-6, -6.561e-7, 5.450e-7
0.304, -1.207e-6, -6.610e-7, 5.462e-7
0.303, -1.209e-6, -6.589e-7, 5.498e-7
0.302, -1.209e-6, -6.601e-7, 5.489e-7
0.301, -1.212e-6, -6.625e-7, 5.498e-7
0.300, -1.215e-6, -6.622e-7, 5.523e-7
0.299, -1.211e-6, -6.619e-7, 5.495e-7
0.298, -1.216e-6, -6.668e-7, 5.495e-7
0.297, -1.218e-6, -6.638e-7, 5.547e-7
0.296, -1.219e-6, -6.687e-7, 5.508e-7
0.295, -1.222e-6, -6.683e-7, 5.532e-7
0.294, -1.225e-6, -6.683e-7, 5.569e-7
0.293, -1.224e-6, -6.717e-7, 5.526e-7
0.292, -1.231e-6, -6.748e-7, 5.566e-7
0.291, -1.231e-6, -6.717e-7, 5.590e-7
0.290, -1.231e-6, -6.754e-7, 5.559e-7
0.289, -1.239e-6, -6.784e-7, 5.602e-7
0.288, -1.240e-6, -6.766e-7, 5.633e-7
0.287, -1.239e-6, -6.799e-7, 5.587e-7
0.286, -1.241e-6, -6.802e-7, 5.605e-7
0.285, -1.240e-6, -6.796e-7, 5.602e-7
0.284, -1.243e-6, -6.827e-7, 5.599e-7
0.283, -1.247e-6, -6.839e-7, 5.627e-7
0.282, -1.246e-6, -6.818e-7, 5.642e-7
0.281, -1.248e-6, -6.851e-7, 5.633e-7
0.280, -1.251e-6, -6.864e-7, 5.651e-7
0.279, -1.256e-6, -6.879e-7, 5.678e-7
0.278, -1.255e-6, -6.894e-7, 5.654e-7
0.277, -1.257e-6, -6.909e-7, 5.657e-7
0.276, -1.261e-6, -6.931e-7, 5.675e-7
0.275, -1.262e-6, -6.937e-7, 5.685e-7
0.274, -1.266e-6, -6.937e-7, 5.721e-7
0.273, -1.262e-6, -6.925e-7, 5.697e-7
0.272, -1.266e-6, -6.958e-7, 5.703e-7
0.271, -1.271e-6, -6.986e-7, 5.721e-7
0.270, -1.272e-6, -7.004e-7, 5.715e-7
0.269, -1.276e-6, -7.001e-7, 5.755e-7
0.268, -1.276e-6, -7.010e-7, 5.749e-7
0.267, -1.279e-6, -7.037e-7, 5.752e-7
0.266, -1.282e-6, -7.041e-7, 5.779e-7
0.265, -1.282e-6, -7.047e-7, 5.770e-7
0.264, -1.283e-6, -7.071e-7, 5.764e-7
0.263, -1.287e-6, -7.071e-7, 5.804e-7
0.262, -1.286e-6, -7.065e-7, 5.794e-7
0.261, -1.291e-6, -7.098e-7, 5.807e-7
0.260, -1.295e-6, -7.095e-7, 5.855e-7
0.259, -1.294e-6, -7.123e-7, 5.819e-7
0.258, -1.299e-6, -7.153e-7, 5.840e-7
0.257, -1.300e-6, -7.150e-7, 5.849e-7
0.256, -1.301e-6, -7.163e-7, 5.843e-7
0.255, -1.305e-6, -7.205e-7, 5.843e-7
0.254, -1.308e-6, -7.181e-7, 5.898e-7
0.253, -1.310e-6, -7.218e-7, 5.880e-7
0.252, -1.314e-6, -7.242e-7, 5.898e-7
0.251, -1.317e-6, -7.251e-7, 5.920e-7
0.250, -1.316e-6, -7.248e-7, 5.910e-7
0.249, -1.320e-6, -7.285e-7, 5.910e-7
0.248, -1.323e-6, -7.275e-7, 5.950e-7
0.247, -1.324e-6, -7.291e-7, 5.947e-7
0.246, -1.325e-6, -7.309e-7, 5.944e-7
0.245, -1.328e-6, -7.324e-7, 5.959e-7
0.244, -1.331e-6, -7.352e-7, 5.962e-7
0.243, -1.335e-6, -7.361e-7, 5.993e-7
0.242, -1.338e-6, -7.364e-7, 6.017e-7
0.241, -1.342e-6, -7.416e-7, 6.002e-7
0.240, -1.347e-6, -7.428e-7, 6.039e-7
0.239, -1.343e-6, -7.391e-7, 6.036e-7
0.238, -1.349e-6, -7.462e-7, 6.026e-7
0.237, -1.352e-6, -7.449e-7, 6.069e-7
0.236, -1.349e-6, -7.431e-7, 6.057e-7
0.235, -1.352e-6, -7.477e-7, 6.039e-7
0.234, -1.358e-6, -7.507e-7, 6.072e-7
0.233, -1.357e-6, -7.492e-7, 6.078e-7
0.232, -1.360e-6, -7.544e-7, 6.057e-7
0.231, -1.366e-6, -7.541e-7, 6.124e-7
0.230, -1.365e-6, -7.535e-7, 6.115e-7
0.229, -1.367e-6, -7.559e-7, 6.112e-7
0.228, -1.375e-6, -7.587e-7, 6.167e-7
0.227, -1.373e-6, -7.581e-7, 6.151e-7
0.226, -1.378e-6, -7.648e-7, 6.136e-7
0.225, -1.386e-6, -7.651e-7, 6.209e-7
0.224, -1.383e-6, -7.651e-7, 6.182e-7
0.223, -1.385e-6, -7.672e-7, 6.179e-7
0.222, -1.393e-6, -7.687e-7, 6.240e-7
0.221, -1.392e-6, -7.700e-7, 6.222e-7
0.220, -1.396e-6, -7.739e-7, 6.225e-7
0.219, -1.400e-6, -7.733e-7, 6.264e-7
0.218, -1.401e-6, -7.755e-7, 6.255e-7
0.217, -1.405e-6, -7.782e-7, 6.264e-7
0.216, -1.410e-6, -7.779e-7, 6.316e-7
0.215, -1.407e-6, -7.791e-7, 6.283e-7
0.214, -1.415e-6, -7.834e-7, 6.319e-7
0.213, -1.417e-6, -7.831e-7, 6.341e-7
0.212, -1.420e-6, -7.867e-7, 6.328e-7
0.211, -1.423e-6, -7.867e-7, 6.359e-7
0.210, -1.428e-6, -7.913e-7, 6.362e-7
0.209, -1.430e-6, -7.929e-7, 6.368e-7
0.208, -1.431e-6, -7.922e-7, 6.386e-7
0.207, -1.433e-6, -7.932e-7, 6.399e-7
0.206, -1.436e-6, -7.962e-7, 6.402e-7
0.205, -1.442e-6, -7.965e-7, 6.451e-7
0.204, -1.446e-6, -8.023e-7, 6.441e-7
0.203, -1.451e-6, -8.048e-7, 6.460e-7
0.202, -1.451e-6, -8.035e-7, 6.475e-7
0.201, -1.451e-6, -8.038e-7, 6.469e-7
0.200, -1.458e-6, -8.099e-7, 6.484e-7
0.199, -1.461e-6, -8.081e-7, 6.530e-7
0.198, -1.463e-6, -8.133e-7, 6.496e-7
0.197, -1.466e-6, -8.133e-7, 6.530e-7
0.196, -1.474e-6, -8.160e-7, 6.582e-7
0.195, -1.473e-6, -8.173e-7, 6.554e-7
0.194, -1.478e-6, -8.197e-7, 6.582e-7
0.193, -1.482e-6, -8.212e-7, 6.609e-7
0.192, -1.481e-6, -8.218e-7, 6.594e-7
0.191, -1.489e-6, -8.252e-7, 6.637e-7
0.190, -1.491e-6, -8.264e-7, 6.643e-7
0.189, -1.492e-6, -8.289e-7, 6.631e-7
0.188, -1.500e-6, -8.310e-7, 6.685e-7
0.187, -1.499e-6, -8.304e-7, 6.689e-7
0.186, -1.503e-6, -8.347e-7, 6.679e-7
0.185, -1.505e-6, -8.344e-7, 6.707e-7
0.184, -1.510e-6, -8.374e-7, 6.722e-7
0.183, -1.511e-6, -8.402e-7, 6.704e-7
0.182, -1.519e-6, -8.432e-7, 6.759e-7
0.181, -1.516e-6, -8.408e-7, 6.753e-7
0.180, -1.522e-6, -8.460e-7, 6.756e-7
0.179, -1.525e-6, -8.478e-7, 6.777e-7
0.178, -1.525e-6, -8.481e-7, 6.768e-7
0.177, -1.530e-6, -8.508e-7, 6.795e-7
0.176, -1.535e-6, -8.514e-7, 6.838e-7
0.175, -1.537e-6, -8.533e-7, 6.835e-7
0.174, -1.542e-6, -8.569e-7, 6.847e-7
0.173, -1.549e-6, -8.591e-7, 6.896e-7
0.172, -1.549e-6, -8.624e-7, 6.866e-7
0.171, -1.553e-6, -8.649e-7, 6.884e-7
0.170, -1.557e-6, -8.646e-7, 6.927e-7
0.169, -1.559e-6, -8.691e-7, 6.902e-7
0.168, -1.565e-6, -8.716e-7, 6.939e-7
0.167, -1.565e-6, -8.701e-7, 6.954e-7
0.166, -1.568e-6, -8.731e-7, 6.948e-7
0.165, -1.576e-6, -8.786e-7, 6.975e-7
0.164, -1.579e-6, -8.771e-7, 7.021e-7
0.163, -1.580e-6, -8.801e-7, 6.997e-7
0.162, -1.585e-6, -8.838e-7, 7.015e-7
0.161, -1.590e-6, -8.847e-7, 7.052e-7
0.160, -1.590e-6, -8.865e-7, 7.036e-7
0.159, -1.595e-6, -8.896e-7, 7.058e-7
0.158, -1.601e-6, -8.914e-7, 7.097e-7
0.157, -1.603e-6, -8.926e-7, 7.104e-7
0.156, -1.608e-6, -8.963e-7, 7.119e-7
0.155, -1.612e-6, -8.972e-7, 7.143e-7
0.154, -1.612e-6, -9.012e-7, 7.104e-7
0.153, -1.619e-6, -9.018e-7, 7.174e-7
0.152, -1.624e-6, -9.058e-7, 7.183e-7
0.151, -1.627e-6, -9.079e-7, 7.189e-7
0.150, -1.633e-6, -9.113e-7, 7.213e-7
0.149, -1.636e-6, -9.140e-7, 7.216e-7
0.148, -1.635e-6, -9.143e-7, 7.210e-7
0.147, -1.645e-6, -9.186e-7, 7.265e-7
0.146, -1.643e-6, -9.171e-7, 7.256e-7
0.145, -1.654e-6, -9.238e-7, 7.305e-7
0.144, -1.654e-6, -9.210e-7, 7.329e-7
0.143, -1.655e-6, -9.259e-7, 7.296e-7
0.142, -1.661e-6, -9.268e-7, 7.345e-7
0.141, -1.666e-6, -9.299e-7, 7.357e-7
0.140, -1.670e-6, -9.338e-7, 7.357e-7
0.139, -1.675e-6, -9.363e-7, 7.387e-7
0.138, -1.675e-6, -9.366e-7, 7.384e-7
0.137, -1.680e-6, -9.412e-7, 7.390e-7
0.136, -1.685e-6, -9.433e-7, 7.421e-7
0.135, -1.687e-6, -9.430e-7, 7.439e-7
0.134, -1.693e-6, -9.494e-7, 7.439e-7
0.133, -1.701e-6, -9.509e-7, 7.503e-7
0.132, -1.704e-6, -9.543e-7, 7.494e-7
0.131, -1.705e-6, -9.558e-7, 7.491e-7
0.130, -1.717e-6, -9.607e-7, 7.558e-7
0.129, -1.719e-6, -9.631e-7, 7.555e-7
0.128, -1.722e-6, -9.656e-7, 7.567e-7
0.127, -1.726e-6, -9.677e-7, 7.586e-7
0.126, -1.730e-6, -9.695e-7, 7.607e-7
0.125, -1.738e-6, -9.741e-7, 7.638e-7
0.124, -1.744e-6, -9.775e-7, 7.668e-7
0.123, -1.746e-6, -9.787e-7, 7.671e-7
0.122, -1.751e-6, -9.833e-7, 7.680e-7
0.121, -1.756e-6, -9.851e-7, 7.714e-7
0.120, -1.757e-6, -9.869e-7, 7.705e-7
0.119, -1.767e-6, -9.915e-7, 7.750e-7
0.118, -1.767e-6, -9.918e-7, 7.750e-7
0.117, -1.775e-6, -9.970e-7, 7.781e-7
0.116, -1.783e-6, -1.001e-6, 7.821e-7
0.115, -1.787e-6, -1.002e-6, 7.848e-7
0.114, -1.789e-6, -1.007e-6, 7.824e-7
0.113, -1.799e-6, -1.012e-6, 7.873e-7
0.112, -1.802e-6, -1.012e-6, 7.903e-7
0.111, -1.808e-6, -1.018e-6, 7.903e-7
0.110, -1.812e-6, -1.018e-6, 7.937e-7
0.109, -1.815e-6, -1.019e-6, 7.958e-7
0.108, -1.824e-6, -1.029e-6, 7.949e-7
0.107, -1.832e-6, -1.030e-6, 8.022e-7
0.106, -1.832e-6, -1.030e-6, 8.019e-7
0.105, -1.838e-6, -1.036e-6, 8.016e-7
0.104, -1.849e-6, -1.040e-6, 8.092e-7
0.103, -1.850e-6, -1.042e-6, 8.086e-7
0.102, -1.855e-6, -1.047e-6, 8.083e-7
0.101, -1.865e-6, -1.049e-6, 8.162e-7
0.100, -1.869e-6, -1.051e-6, 8.178e-7
0.099, -1.871e-6, -1.056e-6, 8.150e-7
0.098, -1.881e-6, -1.059e-6, 8.217e-7
0.097, -1.884e-6, -1.061e-6, 8.227e-7
0.096, -1.891e-6, -1.068e-6, 8.223e-7
0.095, -1.900e-6, -1.071e-6, 8.297e-7
0.094, -1.904e-6, -1.074e-6, 8.297e-7
0.093, -1.909e-6, -1.078e-6, 8.309e-7
0.092, -1.919e-6, -1.083e-6, 8.361e-7
0.091, -1.924e-6, -1.084e-6, 8.397e-7
0.090, -1.930e-6, -1.089e-6, 8.407e-7
0.089, -1.937e-6, -1.093e-6, 8.434e-7
0.088, -1.940e-6, -1.097e-6, 8.425e-7
0.087, -1.948e-6, -1.101e-6, 8.465e-7
0.086, -1.957e-6, -1.106e-6, 8.513e-7
0.085, -1.963e-6, -1.109e-6, 8.544e-7
0.084, -1.972e-6, -1.112e-6, 8.596e-7
0.083, -1.976e-6, -1.117e-6, 8.596e-7
0.082, -1.981e-6, -1.120e-6, 8.608e-7
0.081, -1.983e-6, -1.122e-6, 8.614e-7
0.080, -1.991e-6, -1.127e-6, 8.638e-7
0.079, -1.998e-6, -1.131e-6, 8.678e-7
0.078, -2.009e-6, -1.134e-6, 8.754e-7
0.077, -2.012e-6, -1.140e-6, 8.727e-7
0.076, -2.024e-6, -1.146e-6, 8.776e-7
0.075, -2.024e-6, -1.143e-6, 8.809e-7
0.074, -2.032e-6, -1.151e-6, 8.809e-7
0.073, -2.043e-6, -1.157e-6, 8.867e-7
0.072, -2.048e-6, -1.158e-6, 8.901e-7
0.071, -2.056e-6, -1.165e-6, 8.904e-7
0.070, -2.065e-6, -1.168e-6, 8.965e-7
0.069, -2.069e-6, -1.172e-6, 8.968e-7
0.068, -2.074e-6, -1.175e-6, 8.989e-7
0.067, -2.084e-6, -1.180e-6, 9.038e-7
0.066, -2.093e-6, -1.184e-6, 9.093e-7
0.065, -2.098e-6, -1.189e-6, 9.090e-7
0.064, -2.107e-6, -1.194e-6, 9.136e-7
0.063, -2.111e-6, -1.196e-6, 9.154e-7
0.062, -2.121e-6, -1.202e-6, 9.191e-7
0.061, -2.127e-6, -1.205e-6, 9.215e-7
0.060, -2.132e-6, -1.206e-6, 9.255e-7
0.059, -2.139e-6, -1.213e-6, 9.258e-7
0.058, -2.150e-6, -1.218e-6, 9.325e-7
0.057, -2.154e-6, -1.221e-6, 9.331e-7
0.056, -2.162e-6, -1.227e-6, 9.349e-7
0.055, -2.172e-6, -1.231e-6, 9.411e-7
0.054, -2.174e-6, -1.233e-6, 9.407e-7
0.053, -2.186e-6, -1.239e-6, 9.472e-7
0.052, -2.194e-6, -1.242e-6, 9.514e-7
0.051, -2.198e-6, -1.247e-6, 9.511e-7
0.050, -2.206e-6, -1.253e-6, 9.530e-7
0.049, -2.213e-6, -1.253e-6, 9.600e-7
0.048, -2.222e-6, -1.262e-6, 9.603e-7
0.047, -2.231e-6, -1.267e-6, 9.639e-7
0.046, -2.241e-6, -1.269e-6, 9.716e-7
0.045, -2.242e-6, -1.273e-6, 9.688e-7
0.044, -2.259e-6, -1.283e-6, 9.761e-7
0.043, -2.265e-6, -1.283e-6, 9.822e-7
0.042, -2.266e-6, -1.286e-6, 9.804e-7
0.041, -2.281e-6, -1.296e-6, 9.847e-7
0.040, -2.284e-6, -1.293e-6, 9.914e-7
0.039, -2.293e-6, -1.301e-6, 9.923e-7
0.038, -2.302e-6, -1.307e-6, 9.951e-7
0.037, -2.309e-6, -1.310e-6, 9.996e-7
0.036, -2.315e-6, -1.314e-6, 1.001e-6
0.035, -2.326e-6, -1.321e-6, 1.005e-6
0.034, -2.335e-6, -1.324e-6, 1.011e-6
0.033, -2.341e-6, -1.328e-6, 1.013e-6
0.032, -2.347e-6, -1.333e-6, 1.014e-6
0.031, -2.357e-6, -1.336e-6, 1.022e-6
0.030, -2.361e-6, -1.341e-6, 1.020e-6
0.029, -2.374e-6, -1.347e-6, 1.027e-6
0.028, -2.381e-6, -1.349e-6, 1.032e-6
0.027, -2.387e-6, -1.354e-6, 1.033e-6
0.026, -2.401e-6, -1.361e-6, 1.040e-6
0.025, -2.405e-6, -1.363e-6, 1.042e-6
0.024, -2.410e-6, -1.367e-6, 1.042e-6
0.023, -2.424e-6, -1.375e-6, 1.049e-6
0.022, -2.431e-6, -1.377e-6, 1.054e-6
0.021, -2.436e-6, -1.382e-6, 1.054e-6
0.020, -2.446e-6, -1.386e-6, 1.060e-6
0.019, -2.456e-6, -1.392e-6, 1.064e-6
0.018, -2.462e-6, -1.395e-6, 1.067e-6
0.017, -2.471e-6, -1.400e-6, 1.071e-6
0.016, -2.476e-6, -1.404e-6, 1.072e-6
0.015, -2.487e-6, -1.407e-6, 1.080e-6
0.014, -2.494e-6, -1.412e-6, 1.081e-6
0.013, -2.503e-6, -1.418e-6, 1.086e-6
0.012, -2.511e-6, -1.421e-6, 1.090e-6
0.011, -2.518e-6, -1.425e-6, 1.093e-6
0.010, -2.526e-6, -1.430e-6, 1.096e-6
0.009, -2.536e-6, -1.433e-6, 1.102e-6
0.008, -2.543e-6, -1.439e-6, 1.105e-6
0.007, -2.554e-6, -1.445e-6, 1.109e-6
0.006, -2.563e-6, -1.449e-6, 1.114e-6
0.005, -2.569e-6, -1.452e-6, 1.117e-6
0.004, -2.578e-6, -1.458e-6, 1.120e-6
0.003, -2.588e-6, -1.464e-6, 1.124e-6
0.002, -2.594e-6, -1.465e-6, 1.128e-6
0.001, -2.603e-6, -1.472e-6, 1.131e-6
0.000, -2.612e-6, -1.474e-6, 1.138e-6
-0.001, -2.620e-6, -1.479e-6, 1.141e-6
-0.002, -2.627e-6, -1.483e-6, 1.145e-6
-0.003, -2.640e-6, -1.489e-6, 1.151e-6
-0.004, -2.642e-6, -1.491e-6, 1.151e-6
-0.005, -2.651e-6, -1.497e-6, 1.155e-6
-0.006, -2.663e-6, -1.500e-6, 1.163e-6
-0.007, -2.670e-6, -1.505e-6, 1.165e-6
-0.008, -2.679e-6, -1.511e-6, 1.168e-6
-0.009, -2.686e-6, -1.514e-6, 1.173e-6
-0.010, -2.695e-6, -1.519e-6, 1.176e-6
-0.011, -2.703e-6, -1.523e-6, 1.180e-6
-0.012, -2.715e-6, -1.526e-6, 1.189e-6
-0.013, -2.720e-6, -1.530e-6, 1.189e-6
-0.014, -2.729e-6, -1.533e-6, 1.196e-6
-0.015, -2.736e-6, -1.537e-6, 1.198e-6
-0.016, -2.741e-6, -1.541e-6, 1.199e-6
-0.017, -2.757e-6, -1.548e-6, 1.209e-6
-0.018, -2.757e-6, -1.549e-6, 1.208e-6
-0.019, -2.767e-6, -1.556e-6, 1.211e-6
-0.020, -2.779e-6, -1.558e-6, 1.221e-6
-0.021, -2.782e-6, -1.561e-6, 1.222e-6
-0.022, -2.797e-6, -1.571e-6, 1.225e-6
-0.023, -2.807e-6, -1.572e-6, 1.235e-6
-0.024, -2.807e-6, -1.573e-6, 1.235e-6
-0.025, -2.819e-6, -1.580e-6, 1.239e-6
-0.026, -2.830e-6, -1.583e-6, 1.247e-6
-0.027, -2.830e-6, -1.583e-6, 1.247e-6
-0.028, -2.840e-6, -1.591e-6, 1.249e-6
-0.029, -2.852e-6, -1.596e-6, 1.256e-6
-0.030, -2.857e-6, -1.596e-6, 1.260e-6
-0.031, -2.864e-6, -1.602e-6, 1.262e-6
-0.032, -2.875e-6, -1.604e-6, 1.271e-6
-0.033, -2.883e-6, -1.607e-6, 1.275e-6
-0.034, -2.889e-6, -1.614e-6, 1.275e-6
-0.035, -2.901e-6, -1.616e-6, 1.285e-6
-0.036, -2.904e-6, -1.618e-6, 1.286e-6
-0.037, -2.914e-6, -1.624e-6, 1.289e-6
-0.038, -2.923e-6, -1.628e-6, 1.295e-6
-0.039, -2.925e-6, -1.629e-6, 1.296e-6
-0.040, -2.937e-6, -1.635e-6, 1.302e-6
-0.041, -2.945e-6, -1.638e-6, 1.308e-6
-0.042, -2.950e-6, -1.640e-6, 1.310e-6
-0.043, -2.958e-6, -1.643e-6, 1.315e-6
-0.044, -2.963e-6, -1.645e-6, 1.318e-6
-0.045, -2.973e-6, -1.651e-6, 1.322e-6
-0.046, -2.979e-6, -1.653e-6, 1.326e-6
-0.047, -2.986e-6, -1.657e-6, 1.329e-6
-0.048, -2.992e-6, -1.659e-6, 1.333e-6
-0.049, -3.001e-6, -1.662e-6, 1.339e-6
-0.050, -3.006e-6, -1.665e-6, 1.341e-6
-0.051, -3.013e-6, -1.667e-6, 1.346e-6
-0.052, -3.021e-6, -1.669e-6, 1.352e-6
-0.053, -3.026e-6, -1.674e-6, 1.352e-6
-0.054, -3.037e-6, -1.678e-6, 1.359e-6
-0.055, -3.041e-6, -1.677e-6, 1.364e-6
-0.056, -3.047e-6, -1.682e-6, 1.365e-6
-0.057, -3.053e-6, -1.685e-6, 1.369e-6
-0.058, -3.058e-6, -1.685e-6, 1.373e-6
-0.059, -3.064e-6, -1.689e-6, 1.375e-6
-0.060, -3.072e-6, -1.692e-6, 1.380e-6
-0.061, -3.077e-6, -1.692e-6, 1.385e-6
-0.062, -3.084e-6, -1.698e-6, 1.385e-6
-0.063, -3.091e-6, -1.700e-6, 1.391e-6
-0.064, -3.098e-6, -1.702e-6, 1.396e-6
-0.065, -3.101e-6, -1.703e-6, 1.398e-6
-0.066, -3.110e-6, -1.707e-6, 1.403e-6
-0.067, -3.111e-6, -1.707e-6, 1.404e-6
-0.068, -3.120e-6, -1.710e-6, 1.409e-6
-0.069, -3.123e-6, -1.712e-6, 1.411e-6
-0.070, -3.127e-6, -1.712e-6, 1.415e-6
-0.071, -3.133e-6, -1.717e-6, 1.416e-6
-0.072, -3.139e-6, -1.716e-6, 1.423e-6
-0.073, -3.141e-6, -1.716e-6, 1.426e-6
-0.074, -3.149e-6, -1.721e-6, 1.428e-6
-0.075, -3.156e-6, -1.723e-6, 1.434e-6
-0.076, -3.158e-6, -1.722e-6, 1.436e-6
-0.077, -3.163e-6, -1.727e-6, 1.436e-6
-0.078, -3.169e-6, -1.727e-6, 1.442e-6
-0.079, -3.172e-6, -1.729e-6, 1.443e-6
-0.080, -3.180e-6, -1.732e-6, 1.448e-6
-0.081, -3.182e-6, -1.731e-6, 1.452e-6
-0.082, -3.187e-6, -1.734e-6, 1.453e-6
-0.083, -3.192e-6, -1.736e-6, 1.456e-6
-0.084, -3.196e-6, -1.735e-6, 1.461e-6
-0.085, -3.195e-6, -1.734e-6, 1.460e-6
-0.086, -3.204e-6, -1.739e-6, 1.464e-6
-0.087, -3.208e-6, -1.737e-6, 1.471e-6
-0.088, -3.208e-6, -1.738e-6, 1.470e-6
-0.089, -3.213e-6, -1.740e-6, 1.473e-6
-0.090, -3.217e-6, -1.739e-6, 1.478e-6
-0.091, -3.222e-6, -1.744e-6, 1.478e-6
-0.092, -3.225e-6, -1.745e-6, 1.480e-6
-0.093, -3.226e-6, -1.742e-6, 1.484e-6
-0.094, -3.229e-6, -1.744e-6, 1.485e-6
-0.095, -3.235e-6, -1.746e-6, 1.489e-6
-0.096, -3.235e-6, -1.743e-6, 1.492e-6
-0.097, -3.238e-6, -1.746e-6, 1.492e-6
-0.098, -3.240e-6, -1.747e-6, 1.493e-6
-0.099, -3.243e-6, -1.745e-6, 1.498e-6
-0.100, -3.247e-6, -1.747e-6, 1.500e-6
-0.101, -3.245e-6, -1.745e-6, 1.500e-6
-0.102, -3.252e-6, -1.748e-6, 1.504e-6
-0.103, -3.250e-6, -1.748e-6, 1.502e-6
-0.104, -3.255e-6, -1.749e-6, 1.507e-6
-0.105, -3.258e-6, -1.749e-6, 1.510e-6
-0.106, -3.257e-6, -1.747e-6, 1.510e-6
-0.107, -3.260e-6, -1.746e-6, 1.514e-6
-0.108, -3.261e-6, -1.746e-6, 1.516e-6
-0.109, -3.262e-6, -1.745e-6, 1.516e-6
-0.110, -3.265e-6, -1.746e-6, 1.519e-6
-0.111, -3.268e-6, -1.749e-6, 1.519e-6
-0.112, -3.267e-6, -1.746e-6, 1.521e-6
-0.113, -3.264e-6, -1.743e-6, 1.521e-6
-0.114, -3.268e-6, -1.745e-6, 1.523e-6
-0.115, -3.272e-6, -1.746e-6, 1.526e-6
-0.116, -3.269e-6, -1.742e-6, 1.527e-6
-0.117, -3.274e-6, -1.746e-6, 1.529e-6
-0.118, -3.278e-6, -1.745e-6, 1.533e-6
-0.119, -3.272e-6, -1.741e-6, 1.531e-6
-0.120, -3.276e-6, -1.743e-6, 1.532e-6
-0.121, -3.280e-6, -1.744e-6, 1.536e-6
-0.122, -3.276e-6, -1.740e-6, 1.536e-6
-0.123, -3.276e-6, -1.739e-6, 1.538e-6
-0.124, -3.280e-6, -1.743e-6, 1.537e-6
-0.125, -3.279e-6, -1.742e-6, 1.537e-6
-0.126, -3.276e-6, -1.739e-6, 1.538e-6
-0.127, -3.278e-6, -1.736e-6, 1.542e-6
-0.128, -3.278e-6, -1.734e-6, 1.544e-6
-0.129, -3.278e-6, -1.736e-6, 1.542e-6
-0.130, -3.276e-6, -1.732e-6, 1.545e-6
-0.131, -3.275e-6, -1.734e-6, 1.541e-6
-0.132, -3.275e-6, -1.731e-6, 1.543e-6
-0.133, -3.277e-6, -1.730e-6, 1.546e-6
-0.134, -3.276e-6, -1.730e-6, 1.546e-6
-0.135, -3.273e-6, -1.727e-6, 1.546e-6
-0.136, -3.276e-6, -1.726e-6, 1.550e-6
-0.137, -3.276e-6, -1.729e-6, 1.547e-6
-0.138, -3.273e-6, -1.724e-6, 1.549e-6
-0.139, -3.271e-6, -1.720e-6, 1.551e-6
-0.140, -3.272e-6, -1.724e-6, 1.548e-6
-0.141, -3.276e-6, -1.724e-6, 1.552e-6
-0.142, -3.274e-6, -1.719e-6, 1.555e-6
-0.143, -3.269e-6, -1.719e-6, 1.550e-6
-0.144, -3.270e-6, -1.717e-6, 1.552e-6
-0.145, -3.266e-6, -1.713e-6, 1.553e-6
-0.146, -3.270e-6, -1.717e-6, 1.553e-6
-0.147, -3.265e-6, -1.712e-6, 1.553e-6
-0.148, -3.259e-6, -1.706e-6, 1.554e-6
-0.149, -3.265e-6, -1.715e-6, 1.550e-6
-0.150, -3.260e-6, -1.707e-6, 1.553e-6
-0.151, -3.255e-6, -1.702e-6, 1.553e-6
-0.152, -3.251e-6, -1.703e-6, 1.548e-6
-0.153, -3.255e-6, -1.702e-6, 1.553e-6
-0.154, -3.252e-6, -1.698e-6, 1.554e-6
-0.155, -3.250e-6, -1.699e-6, 1.550e-6
-0.156, -3.254e-6, -1.700e-6, 1.554e-6
-0.157, -3.251e-6, -1.699e-6, 1.551e-6
-0.158, -3.247e-6, -1.697e-6, 1.551e-6
-0.159, -3.246e-6, -1.694e-6, 1.552e-6
-0.160, -3.240e-6, -1.690e-6, 1.550e-6
-0.161, -3.237e-6, -1.688e-6, 1.549e-6
-0.162, -3.242e-6, -1.691e-6, 1.551e-6
-0.163, -3.238e-6, -1.684e-6, 1.554e-6
-0.164, -3.232e-6, -1.684e-6, 1.548e-6
-0.165, -3.232e-6, -1.682e-6, 1.550e-6
-0.166, -3.226e-6, -1.678e-6, 1.548e-6
-0.167, -3.226e-6, -1.678e-6, 1.548e-6
-0.168, -3.226e-6, -1.678e-6, 1.548e-6
-0.169, -3.219e-6, -1.673e-6, 1.546e-6
-0.170, -3.220e-6, -1.675e-6, 1.545e-6
-0.171, -3.214e-6, -1.669e-6, 1.545e-6
-0.172, -3.214e-6, -1.670e-6, 1.544e-6
-0.173, -3.207e-6, -1.664e-6, 1.543e-6
-0.174, -3.205e-6, -1.663e-6, 1.543e-6
-0.175, -3.204e-6, -1.663e-6, 1.542e-6
-0.176, -3.198e-6, -1.657e-6, 1.540e-6
-0.177, -3.198e-6, -1.658e-6, 1.539e-6
-0.178, -3.195e-6, -1.657e-6, 1.538e-6
-0.179, -3.193e-6, -1.655e-6, 1.539e-6
-0.180, -3.188e-6, -1.652e-6, 1.536e-6
-0.181, -3.189e-6, -1.652e-6, 1.536e-6
-0.182, -3.184e-6, -1.649e-6, 1.536e-6
-0.183, -3.179e-6, -1.646e-6, 1.532e-6
-0.184, -3.177e-6, -1.643e-6, 1.534e-6
-0.185, -3.172e-6, -1.640e-6, 1.533e-6
-0.186, -3.168e-6, -1.638e-6, 1.529e-6
-0.187, -3.171e-6, -1.641e-6, 1.529e-6
-0.188, -3.161e-6, -1.634e-6, 1.527e-6
-0.189, -3.158e-6, -1.635e-6, 1.523e-6
-0.190, -3.156e-6, -1.630e-6, 1.526e-6
-0.191, -3.154e-6, -1.628e-6, 1.526e-6
-0.192, -3.149e-6, -1.629e-6, 1.520e-6
-0.193, -3.148e-6, -1.626e-6, 1.522e-6
-0.194, -3.146e-6, -1.626e-6, 1.520e-6
-0.195, -3.132e-6, -1.616e-6, 1.516e-6
-0.196, -3.132e-6, -1.617e-6, 1.515e-6
-0.197, -3.125e-6, -1.613e-6, 1.512e-6
-0.198, -3.125e-6, -1.615e-6, 1.510e-6
-0.199, -3.127e-6, -1.614e-6, 1.513e-6
-0.200, -3.116e-6, -1.607e-6, 1.509e-6
-0.201, -3.113e-6, -1.607e-6, 1.506e-6
-0.202, -3.110e-6, -1.605e-6, 1.506e-6
-0.203, -3.101e-6, -1.600e-6, 1.501e-6
-0.204, -3.104e-6, -1.602e-6, 1.502e-6
-0.205, -3.102e-6, -1.601e-6, 1.501e-6
-0.206, -3.097e-6, -1.598e-6, 1.499e-6
-0.207, -3.095e-6, -1.599e-6, 1.496e-6
-0.208, -3.083e-6, -1.589e-6, 1.494e-6
-0.209, -3.082e-6, -1.593e-6, 1.490e-6
-0.210, -3.081e-6, -1.591e-6, 1.490e-6
-0.211, -3.077e-6, -1.587e-6, 1.490e-6
-0.212, -3.070e-6, -1.584e-6, 1.487e-6
-0.213, -3.071e-6, -1.587e-6, 1.484e-6
-0.214, -3.062e-6, -1.578e-6, 1.484e-6
-0.215, -3.065e-6, -1.582e-6, 1.482e-6
-0.216, -3.058e-6, -1.579e-6, 1.479e-6
-0.217, -3.058e-6, -1.578e-6, 1.480e-6
-0.218, -3.050e-6, -1.577e-6, 1.473e-6
-0.219, -3.043e-6, -1.573e-6, 1.471e-6
-0.220, -3.043e-6, -1.569e-6, 1.474e-6
-0.221, -3.035e-6, -1.567e-6, 1.468e-6
-0.222, -3.034e-6, -1.565e-6, 1.470e-6
-0.223, -3.030e-6, -1.563e-6, 1.467e-6
-0.224, -3.020e-6, -1.558e-6, 1.462e-6
-0.225, -3.023e-6, -1.561e-6, 1.461e-6
-0.226, -3.014e-6, -1.552e-6, 1.462e-6
-0.227, -3.011e-6, -1.555e-6, 1.456e-6
-0.228, -3.005e-6, -1.551e-6, 1.454e-6
-0.229, -3.002e-6, -1.550e-6, 1.452e-6
-0.230, -2.997e-6, -1.547e-6, 1.450e-6
-0.231, -3.000e-6, -1.551e-6, 1.449e-6
-0.232, -2.990e-6, -1.544e-6, 1.445e-6
-0.233, -2.984e-6, -1.540e-6, 1.444e-6
-0.234, -2.985e-6, -1.544e-6, 1.442e-6
-0.235, -2.979e-6, -1.540e-6, 1.439e-6
-0.236, -2.978e-6, -1.538e-6, 1.440e-6
-0.237, -2.974e-6, -1.539e-6, 1.435e-6
-0.238, -2.965e-6, -1.533e-6, 1.431e-6
-0.239, -2.965e-6, -1.534e-6, 1.431e-6
-0.240, -2.956e-6, -1.526e-6, 1.431e-6
-0.241, -2.962e-6, -1.534e-6, 1.427e-6
-0.242, -2.956e-6, -1.530e-6, 1.425e-6
-0.243, -2.950e-6, -1.529e-6, 1.421e-6
-0.244, -2.945e-6, -1.526e-6, 1.420e-6
-0.245, -2.942e-6, -1.524e-6, 1.418e-6
-0.246, -2.936e-6, -1.521e-6, 1.415e-6
-0.247, -2.934e-6, -1.521e-6, 1.413e-6
-0.248, -2.935e-6, -1.522e-6, 1.413e-6
-0.249, -2.923e-6, -1.517e-6, 1.407e-6
-0.250, -2.919e-6, -1.514e-6, 1.405e-6
-0.251, -2.920e-6, -1.515e-6, 1.405e-6
-0.252, -2.913e-6, -1.512e-6, 1.401e-6
-0.253, -2.907e-6, -1.509e-6, 1.398e-6
-0.254, -2.906e-6, -1.508e-6, 1.398e-6
-0.255, -2.904e-6, -1.510e-6, 1.394e-6
-0.256, -2.902e-6, -1.512e-6, 1.391e-6
-0.257, -2.898e-6, -1.505e-6, 1.393e-6
-0.258, -2.895e-6, -1.507e-6, 1.388e-6
-0.259, -2.886e-6, -1.500e-6, 1.386e-6
-0.260, -2.888e-6, -1.500e-6, 1.387e-6
-0.261, -2.883e-6, -1.501e-6, 1.382e-6
-0.262, -2.882e-6, -1.499e-6, 1.383e-6
-0.263, -2.883e-6, -1.502e-6, 1.381e-6
-0.264, -2.875e-6, -1.497e-6, 1.378e-6
-0.265, -2.875e-6, -1.500e-6, 1.375e-6
-0.266, -2.870e-6, -1.494e-6, 1.376e-6
-0.267, -2.864e-6, -1.495e-6, 1.369e-6
-0.268, -2.868e-6, -1.496e-6, 1.372e-6
-0.269, -2.865e-6, -1.496e-6, 1.369e-6
-0.270, -2.857e-6, -1.492e-6, 1.366e-6
-0.271, -2.855e-6, -1.489e-6, 1.366e-6
-0.272, -2.848e-6, -1.486e-6, 1.362e-6
-0.273, -2.850e-6, -1.492e-6, 1.359e-6
-0.274, -2.850e-6, -1.490e-6, 1.360e-6
-0.275, -2.845e-6, -1.490e-6, 1.355e-6
-0.276, -2.842e-6, -1.488e-6, 1.354e-6
-0.277, -2.846e-6, -1.492e-6, 1.354e-6
-0.278, -2.836e-6, -1.485e-6, 1.350e-6
-0.279, -2.840e-6, -1.493e-6, 1.348e-6
-0.280, -2.836e-6, -1.490e-6, 1.346e-6
-0.281, -2.827e-6, -1.483e-6, 1.344e-6
-0.282, -2.820e-6, -1.479e-6, 1.341e-6
-0.283, -2.831e-6, -1.487e-6, 1.344e-6
-0.284, -2.819e-6, -1.480e-6, 1.339e-6
-0.285, -2.816e-6, -1.483e-6, 1.333e-6
-0.286, -2.816e-6, -1.481e-6, 1.334e-6
-0.287, -2.811e-6, -1.477e-6, 1.333e-6
-0.288, -2.810e-6, -1.481e-6, 1.329e-6
-0.289, -2.813e-6, -1.481e-6, 1.332e-6
-0.290, -2.804e-6, -1.477e-6, 1.327e-6
-0.291, -2.805e-6, -1.479e-6, 1.326e-6
-0.292, -2.805e-6, -1.478e-6, 1.327e-6
-0.293, -2.805e-6, -1.482e-6, 1.323e-6
-0.294, -2.799e-6, -1.478e-6, 1.321e-6
-0.295, -2.797e-6, -1.478e-6, 1.319e-6
-0.296, -2.796e-6, -1.479e-6, 1.317e-6
-0.297, -2.793e-6, -1.478e-6, 1.315e-6
-0.298, -2.790e-6, -1.477e-6, 1.313e-6
-0.299, -2.793e-6, -1.481e-6, 1.312e-6
-0.300, -2.783e-6, -1.473e-6, 1.310e-6
-0.301, -2.783e-6, -1.473e-6, 1.310e-6
-0.302, -2.780e-6, -1.472e-6, 1.308e-6
-0.303, -2.783e-6, -1.475e-6, 1.308e-6
-0.304, -2.778e-6, -1.471e-6, 1.307e-6
-0.305, -2.779e-6, -1.477e-6, 1.302e-6
-0.306, -2.778e-6, -1.474e-6, 1.303e-6
-0.307, -2.771e-6, -1.473e-6, 1.298e-6
-0.308, -2.778e-6, -1.478e-6, 1.300e-6
-0.309, -2.770e-6, -1.472e-6, 1.297e-6
-0.310, -2.774e-6, -1.476e-6, 1.298e-6
-0.311, -2.771e-6, -1.475e-6, 1.296e-6
-0.312, -2.768e-6, -1.472e-6, 1.295e-6
-0.313, -2.763e-6, -1.475e-6, 1.288e-6
-0.314, -2.766e-6, -1.477e-6, 1.290e-6
-0.315, -2.759e-6, -1.471e-6, 1.288e-6
-0.316, -2.760e-6, -1.473e-6, 1.286e-6
-0.317, -2.758e-6, -1.472e-6, 1.286e-6
-0.318, -2.761e-6, -1.475e-6, 1.286e-6
-0.319, -2.754e-6, -1.473e-6, 1.282e-6
-0.320, -2.755e-6, -1.474e-6, 1.281e-6
-0.321, -2.758e-6, -1.479e-6, 1.279e-6
-0.322, -2.754e-6, -1.476e-6, 1.279e-6
-0.323, -2.753e-6, -1.476e-6, 1.276e-6
-0.324, -2.746e-6, -1.471e-6, 1.275e-6
-0.325, -2.746e-6, -1.472e-6, 1.274e-6
-0.326, -2.743e-6, -1.471e-6, 1.273e-6
-0.327, -2.744e-6, -1.472e-6, 1.272e-6
-0.328, -2.747e-6, -1.479e-6, 1.267e-6
-0.329, -2.744e-6, -1.473e-6, 1.271e-6
-0.330, -2.740e-6, -1.476e-6, 1.264e-6
-0.331, -2.740e-6, -1.476e-6, 1.265e-6
-0.332, -2.735e-6, -1.472e-6, 1.264e-6
-0.333, -2.732e-6, -1.472e-6, 1.260e-6
-0.334, -2.735e-6, -1.475e-6, 1.260e-6
-0.335, -2.730e-6, -1.471e-6, 1.259e-6
-0.336, -2.726e-6, -1.469e-6, 1.256e-6
-0.337, -2.733e-6, -1.479e-6, 1.254e-6
-0.338, -2.735e-6, -1.475e-6, 1.259e-6
-0.339, -2.731e-6, -1.479e-6, 1.252e-6
-0.340, -2.732e-6, -1.480e-6, 1.252e-6
-0.341, -2.725e-6, -1.475e-6, 1.250e-6
-0.342, -2.724e-6, -1.478e-6, 1.247e-6
-0.343, -2.723e-6, -1.476e-6, 1.247e-6
-0.344, -2.720e-6, -1.471e-6, 1.249e-6
-0.345, -2.721e-6, -1.478e-6, 1.243e-6
-0.346, -2.724e-6, -1.479e-6, 1.246e-6
-0.347, -2.721e-6, -1.476e-6, 1.245e-6
-0.348, -2.716e-6, -1.475e-6, 1.241e-6
-0.349, -2.719e-6, -1.481e-6, 1.238e-6
-0.350, -2.713e-6, -1.472e-6, 1.240e-6
-0.351, -2.711e-6, -1.476e-6, 1.236e-6
-0.352, -2.715e-6, -1.480e-6, 1.235e-6
-0.353, -2.710e-6, -1.476e-6, 1.234e-6
-0.354, -2.712e-6, -1.479e-6, 1.232e-6
-0.355, -2.713e-6, -1.480e-6, 1.233e-6
-0.356, -2.712e-6, -1.479e-6, 1.233e-6
-0.357, -2.707e-6, -1.479e-6, 1.229e-6
-0.358, -2.706e-6, -1.480e-6, 1.227e-6
-0.359, -2.710e-6, -1.483e-6, 1.227e-6
-0.360, -2.707e-6, -1.483e-6, 1.225e-6
-0.361, -2.706e-6, -1.482e-6, 1.224e-6
-0.362, -2.701e-6, -1.479e-6, 1.222e-6
-0.363, -2.704e-6, -1.483e-6, 1.221e-6
-0.364, -2.705e-6, -1.484e-6, 1.221e-6
-0.365, -2.701e-6, -1.483e-6, 1.218e-6
-0.366, -2.703e-6, -1.486e-6, 1.217e-6
-0.367, -2.702e-6, -1.485e-6, 1.216e-6
-0.368, -2.692e-6, -1.480e-6, 1.213e-6
-0.369, -2.699e-6, -1.487e-6, 1.213e-6
-0.370, -2.698e-6, -1.485e-6, 1.213e-6
-0.371, -2.695e-6, -1.484e-6, 1.211e-6
-0.372, -2.699e-6, -1.488e-6, 1.211e-6
-0.373, -2.696e-6, -1.485e-6, 1.211e-6
-0.374, -2.693e-6, -1.486e-6, 1.207e-6
-0.375, -2.695e-6, -1.488e-6, 1.207e-6
-0.376, -2.694e-6, -1.489e-6, 1.205e-6
-0.377, -2.693e-6, -1.489e-6, 1.203e-6
-0.378, -2.697e-6, -1.492e-6, 1.205e-6
-0.379, -2.689e-6, -1.489e-6, 1.200e-6
-0.380, -2.695e-6, -1.495e-6, 1.200e-6
-0.381, -2.689e-6, -1.490e-6, 1.199e-6
-0.382, -2.693e-6, -1.496e-6, 1.197e-6
-0.383, -2.694e-6, -1.498e-6, 1.196e-6
-0.384, -2.691e-6, -1.494e-6, 1.197e-6
-0.385, -2.691e-6, -1.497e-6, 1.194e-6
-0.386, -2.689e-6, -1.498e-6, 1.191e-6
-0.387, -2.691e-6, -1.496e-6, 1.195e-6
-0.388, -2.692e-6, -1.500e-6, 1.192e-6
-0.389, -2.689e-6, -1.502e-6, 1.187e-6
-0.390, -2.689e-6, -1.498e-6, 1.191e-6
-0.391, -2.695e-6, -1.508e-6, 1.186e-6
-0.392, -2.699e-6, -1.512e-6, 1.187e-6
-0.393, -2.689e-6, -1.502e-6, 1.187e-6
-0.394, -2.689e-6, -1.505e-6, 1.184e-6
-0.395, -2.691e-6, -1.507e-6, 1.183e-6
-0.396, -2.686e-6, -1.502e-6, 1.184e-6
-0.397, -2.690e-6, -1.511e-6, 1.179e-6
-0.398, -2.692e-6, -1.510e-6, 1.182e-6
-0.399, -2.689e-6, -1.510e-6, 1.180e-6
-0.400, -2.689e-6, -1.512e-6, 1.176e-6
