Mar. 20, 2018   16:00:29
Square Wave Voltammetry
File: c:\users\electrochemist\desktop\2018\20032018_unbufarray_unpap\64_g1_ph9,96_3.txt
Data Source:  Experiment
Instrument Model:  CHI1040A
Header: 
Note: 

Init E (V) = 0.7
Final E (V) = -0.4
Incr E (V) = 0.001
Amplitude (V) = 0.1
Frequency (Hz) = 152
Quiet Time (sec) = 2
Sensitivity (A/V) = 1e-6

Difference:

Forward:

Reverse:
Ep = -0.157V
ip = 2.299e-7A
Ah = 2.605e-8VA

Potential/V, Diff(i/A), For(i/A), Rev(i/A)

0.699, -9.768e-7, -2.277e-7, 7.491e-7
0.698, -1.148e-6, -4.682e-7, 6.798e-7
0.697, -1.146e-6, -4.856e-7, 6.600e-7
0.696, -1.135e-6, -4.874e-7, 6.472e-7
0.695, -1.126e-6, -4.920e-7, 6.341e-7
0.694, -1.121e-6, -4.926e-7, 6.289e-7
0.693, -1.112e-6, -4.907e-7, 6.213e-7
0.692, -1.107e-6, -4.923e-7, 6.148e-7
0.691, -1.105e-6, -4.904e-7, 6.142e-7
0.690, -1.096e-6, -4.898e-7, 6.060e-7
0.689, -1.091e-6, -4.914e-7, 5.993e-7
0.688, -1.089e-6, -4.901e-7, 5.993e-7
0.687, -1.083e-6, -4.901e-7, 5.926e-7
0.686, -1.078e-6, -4.907e-7, 5.871e-7
0.685, -1.077e-6, -4.892e-7, 5.874e-7
0.684, -1.068e-6, -4.877e-7, 5.807e-7
0.683, -1.070e-6, -4.914e-7, 5.785e-7
0.682, -1.061e-6, -4.862e-7, 5.749e-7
0.681, -1.061e-6, -4.904e-7, 5.703e-7
0.680, -1.060e-6, -4.907e-7, 5.688e-7
0.679, -1.051e-6, -4.834e-7, 5.672e-7
0.678, -1.047e-6, -4.871e-7, 5.599e-7
0.677, -1.048e-6, -4.895e-7, 5.581e-7
0.676, -1.045e-6, -4.840e-7, 5.611e-7
0.675, -1.038e-6, -4.856e-7, 5.520e-7
0.674, -1.038e-6, -4.877e-7, 5.508e-7
0.673, -1.033e-6, -4.825e-7, 5.502e-7
0.672, -1.028e-6, -4.837e-7, 5.440e-7
0.671, -1.027e-6, -4.840e-7, 5.425e-7
0.670, -1.031e-6, -4.843e-7, 5.462e-7
0.669, -1.023e-6, -4.846e-7, 5.386e-7
0.668, -1.022e-6, -4.840e-7, 5.383e-7
0.667, -1.019e-6, -4.813e-7, 5.376e-7
0.666, -1.013e-6, -4.825e-7, 5.309e-7
0.665, -1.011e-6, -4.822e-7, 5.288e-7
0.664, -1.009e-6, -4.779e-7, 5.312e-7
0.663, -1.007e-6, -4.813e-7, 5.260e-7
0.662, -1.008e-6, -4.810e-7, 5.267e-7
0.661, -1.004e-6, -4.804e-7, 5.239e-7
0.660, -9.997e-7, -4.788e-7, 5.209e-7
0.659, -1.000e-6, -4.819e-7, 5.181e-7
0.658, -1.001e-6, -4.798e-7, 5.215e-7
0.657, -9.973e-7, -4.804e-7, 5.169e-7
0.656, -9.936e-7, -4.801e-7, 5.135e-7
0.655, -9.954e-7, -4.801e-7, 5.154e-7
0.654, -9.881e-7, -4.801e-7, 5.080e-7
0.653, -9.896e-7, -4.788e-7, 5.108e-7
0.652, -9.875e-7, -4.801e-7, 5.074e-7
0.651, -9.884e-7, -4.791e-7, 5.093e-7
0.650, -9.793e-7, -4.755e-7, 5.038e-7
0.649, -9.802e-7, -4.776e-7, 5.025e-7
0.648, -9.860e-7, -4.801e-7, 5.059e-7
0.647, -9.765e-7, -4.752e-7, 5.013e-7
0.646, -9.774e-7, -4.782e-7, 4.992e-7
0.645, -9.750e-7, -4.785e-7, 4.964e-7
0.644, -9.756e-7, -4.773e-7, 4.983e-7
0.643, -9.728e-7, -4.776e-7, 4.952e-7
0.642, -9.738e-7, -4.782e-7, 4.955e-7
0.641, -9.716e-7, -4.764e-7, 4.952e-7
0.640, -9.698e-7, -4.758e-7, 4.940e-7
0.639, -9.707e-7, -4.773e-7, 4.934e-7
0.638, -9.661e-7, -4.752e-7, 4.910e-7
0.637, -9.652e-7, -4.788e-7, 4.864e-7
0.636, -9.683e-7, -4.758e-7, 4.925e-7
0.635, -9.689e-7, -4.798e-7, 4.891e-7
0.634, -9.655e-7, -4.795e-7, 4.861e-7
0.633, -9.640e-7, -4.776e-7, 4.864e-7
0.632, -9.606e-7, -4.758e-7, 4.848e-7
0.631, -9.619e-7, -4.788e-7, 4.830e-7
0.630, -9.597e-7, -4.740e-7, 4.858e-7
0.629, -9.576e-7, -4.755e-7, 4.821e-7
0.628, -9.622e-7, -4.788e-7, 4.833e-7
0.627, -9.567e-7, -4.752e-7, 4.815e-7
0.626, -9.554e-7, -4.764e-7, 4.790e-7
0.625, -9.570e-7, -4.776e-7, 4.794e-7
0.624, -9.555e-7, -4.752e-7, 4.803e-7
0.623, -9.539e-7, -4.791e-7, 4.748e-7
0.622, -9.561e-7, -4.770e-7, 4.790e-7
0.621, -9.524e-7, -4.740e-7, 4.784e-7
0.620, -9.515e-7, -4.788e-7, 4.726e-7
0.619, -9.524e-7, -4.776e-7, 4.748e-7
0.618, -9.484e-7, -4.737e-7, 4.748e-7
0.617, -9.521e-7, -4.779e-7, 4.742e-7
0.616, -9.533e-7, -4.782e-7, 4.751e-7
0.615, -9.512e-7, -4.758e-7, 4.754e-7
0.614, -9.490e-7, -4.785e-7, 4.705e-7
0.613, -9.545e-7, -4.782e-7, 4.763e-7
0.612, -9.451e-7, -4.746e-7, 4.705e-7
0.611, -9.503e-7, -4.795e-7, 4.708e-7
0.610, -9.527e-7, -4.782e-7, 4.745e-7
0.609, -9.469e-7, -4.770e-7, 4.699e-7
0.608, -9.497e-7, -4.795e-7, 4.702e-7
0.607, -9.493e-7, -4.770e-7, 4.723e-7
0.606, -9.484e-7, -4.761e-7, 4.723e-7
0.605, -9.469e-7, -4.804e-7, 4.665e-7
0.604, -9.493e-7, -4.776e-7, 4.717e-7
0.603, -9.472e-7, -4.776e-7, 4.696e-7
0.602, -9.506e-7, -4.807e-7, 4.699e-7
0.601, -9.475e-7, -4.773e-7, 4.702e-7
0.600, -9.475e-7, -4.795e-7, 4.681e-7
0.599, -9.420e-7, -4.761e-7, 4.659e-7
0.598, -9.454e-7, -4.791e-7, 4.662e-7
0.597, -9.484e-7, -4.807e-7, 4.678e-7
0.596, -9.475e-7, -4.807e-7, 4.668e-7
0.595, -9.475e-7, -4.804e-7, 4.671e-7
0.594, -9.448e-7, -4.813e-7, 4.635e-7
0.593, -9.457e-7, -4.804e-7, 4.653e-7
0.592, -9.448e-7, -4.801e-7, 4.647e-7
0.591, -9.451e-7, -4.819e-7, 4.632e-7
0.590, -9.500e-7, -4.825e-7, 4.675e-7
0.589, -9.451e-7, -4.807e-7, 4.644e-7
0.588, -9.500e-7, -4.846e-7, 4.653e-7
0.587, -9.503e-7, -4.828e-7, 4.675e-7
0.586, -9.487e-7, -4.822e-7, 4.665e-7
0.585, -9.481e-7, -4.831e-7, 4.650e-7
0.584, -9.487e-7, -4.831e-7, 4.656e-7
0.583, -9.457e-7, -4.822e-7, 4.635e-7
0.582, -9.524e-7, -4.868e-7, 4.656e-7
0.581, -9.469e-7, -4.822e-7, 4.647e-7
0.580, -9.451e-7, -4.831e-7, 4.620e-7
0.579, -9.503e-7, -4.849e-7, 4.653e-7
0.578, -9.472e-7, -4.834e-7, 4.638e-7
0.577, -9.451e-7, -4.846e-7, 4.604e-7
0.576, -9.484e-7, -4.849e-7, 4.635e-7
0.575, -9.481e-7, -4.831e-7, 4.650e-7
0.574, -9.472e-7, -4.862e-7, 4.610e-7
0.573, -9.493e-7, -4.865e-7, 4.629e-7
0.572, -9.487e-7, -4.840e-7, 4.647e-7
0.571, -9.478e-7, -4.856e-7, 4.623e-7
0.570, -9.497e-7, -4.880e-7, 4.617e-7
0.569, -9.487e-7, -4.849e-7, 4.638e-7
0.568, -9.500e-7, -4.880e-7, 4.620e-7
0.567, -9.509e-7, -4.889e-7, 4.620e-7
0.566, -9.475e-7, -4.859e-7, 4.617e-7
0.565, -9.487e-7, -4.871e-7, 4.617e-7
0.564, -9.506e-7, -4.877e-7, 4.629e-7
0.563, -9.451e-7, -4.853e-7, 4.598e-7
0.562, -9.530e-7, -4.910e-7, 4.620e-7
0.561, -9.518e-7, -4.874e-7, 4.644e-7
0.560, -9.466e-7, -4.889e-7, 4.577e-7
0.559, -9.475e-7, -4.898e-7, 4.577e-7
0.558, -9.503e-7, -4.886e-7, 4.617e-7
0.557, -9.500e-7, -4.907e-7, 4.592e-7
0.556, -9.521e-7, -4.910e-7, 4.610e-7
0.555, -9.515e-7, -4.883e-7, 4.632e-7
0.554, -9.503e-7, -4.892e-7, 4.610e-7
0.553, -9.521e-7, -4.920e-7, 4.601e-7
0.552, -9.542e-7, -4.898e-7, 4.644e-7
0.551, -9.487e-7, -4.898e-7, 4.589e-7
0.550, -9.536e-7, -4.923e-7, 4.613e-7
0.549, -9.490e-7, -4.895e-7, 4.595e-7
0.548, -9.503e-7, -4.923e-7, 4.580e-7
0.547, -9.558e-7, -4.926e-7, 4.632e-7
0.546, -9.530e-7, -4.917e-7, 4.613e-7
0.545, -9.512e-7, -4.923e-7, 4.589e-7
0.544, -9.542e-7, -4.938e-7, 4.604e-7
0.543, -9.521e-7, -4.901e-7, 4.620e-7
0.542, -9.515e-7, -4.932e-7, 4.583e-7
0.541, -9.536e-7, -4.953e-7, 4.583e-7
0.540, -9.512e-7, -4.901e-7, 4.610e-7
0.539, -9.576e-7, -4.962e-7, 4.613e-7
0.538, -9.530e-7, -4.938e-7, 4.592e-7
0.537, -9.527e-7, -4.926e-7, 4.601e-7
0.536, -9.536e-7, -4.944e-7, 4.592e-7
0.535, -9.555e-7, -4.959e-7, 4.595e-7
0.534, -9.536e-7, -4.944e-7, 4.592e-7
0.533, -9.536e-7, -4.947e-7, 4.589e-7
0.532, -9.527e-7, -4.935e-7, 4.592e-7
0.531, -9.536e-7, -4.941e-7, 4.595e-7
0.530, -9.548e-7, -4.953e-7, 4.595e-7
0.529, -9.545e-7, -4.962e-7, 4.583e-7
0.528, -9.555e-7, -4.956e-7, 4.598e-7
0.527, -9.576e-7, -4.975e-7, 4.601e-7
0.526, -9.551e-7, -4.972e-7, 4.580e-7
0.525, -9.524e-7, -4.965e-7, 4.559e-7
0.524, -9.555e-7, -4.965e-7, 4.589e-7
0.523, -9.561e-7, -4.956e-7, 4.604e-7
0.522, -9.548e-7, -4.993e-7, 4.556e-7
0.521, -9.533e-7, -4.956e-7, 4.577e-7
0.520, -9.558e-7, -4.972e-7, 4.586e-7
0.519, -9.564e-7, -4.996e-7, 4.568e-7
0.518, -9.579e-7, -4.984e-7, 4.595e-7
0.517, -9.606e-7, -5.017e-7, 4.589e-7
0.516, -9.658e-7, -5.057e-7, 4.601e-7
0.515, -9.625e-7, -5.017e-7, 4.607e-7
0.514, -9.594e-7, -4.990e-7, 4.604e-7
0.513, -9.597e-7, -5.017e-7, 4.580e-7
0.512, -9.628e-7, -5.020e-7, 4.607e-7
0.511, -9.603e-7, -5.008e-7, 4.595e-7
0.510, -9.612e-7, -5.014e-7, 4.598e-7
0.509, -9.628e-7, -5.011e-7, 4.617e-7
0.508, -9.609e-7, -5.014e-7, 4.595e-7
0.507, -9.628e-7, -5.039e-7, 4.589e-7
0.506, -9.622e-7, -5.014e-7, 4.607e-7
0.505, -9.622e-7, -5.020e-7, 4.601e-7
0.504, -9.616e-7, -5.026e-7, 4.589e-7
0.503, -9.628e-7, -5.020e-7, 4.607e-7
0.502, -9.634e-7, -5.036e-7, 4.598e-7
0.501, -9.677e-7, -5.066e-7, 4.610e-7
0.500, -9.677e-7, -5.048e-7, 4.629e-7
0.499, -9.631e-7, -5.048e-7, 4.583e-7
0.498, -9.655e-7, -5.066e-7, 4.589e-7
0.497, -9.643e-7, -5.039e-7, 4.604e-7
0.496, -9.655e-7, -5.084e-7, 4.571e-7
0.495, -9.686e-7, -5.063e-7, 4.623e-7
0.494, -9.670e-7, -5.060e-7, 4.610e-7
0.493, -9.689e-7, -5.084e-7, 4.604e-7
0.492, -9.698e-7, -5.069e-7, 4.629e-7
0.491, -9.698e-7, -5.075e-7, 4.623e-7
0.490, -9.719e-7, -5.127e-7, 4.592e-7
0.489, -9.765e-7, -5.106e-7, 4.659e-7
0.488, -9.725e-7, -5.094e-7, 4.632e-7
0.487, -9.753e-7, -5.109e-7, 4.644e-7
0.486, -9.768e-7, -5.115e-7, 4.653e-7
0.485, -9.728e-7, -5.091e-7, 4.638e-7
0.484, -9.783e-7, -5.152e-7, 4.632e-7
0.483, -9.768e-7, -5.124e-7, 4.644e-7
0.482, -9.747e-7, -5.130e-7, 4.617e-7
0.481, -9.759e-7, -5.139e-7, 4.620e-7
0.480, -9.783e-7, -5.133e-7, 4.650e-7
0.479, -9.759e-7, -5.121e-7, 4.638e-7
0.478, -9.793e-7, -5.158e-7, 4.635e-7
0.477, -9.829e-7, -5.155e-7, 4.675e-7
0.476, -9.805e-7, -5.161e-7, 4.644e-7
0.475, -9.838e-7, -5.170e-7, 4.668e-7
0.474, -9.835e-7, -5.167e-7, 4.668e-7
0.473, -9.832e-7, -5.170e-7, 4.662e-7
0.472, -9.912e-7, -5.216e-7, 4.696e-7
0.471, -9.887e-7, -5.197e-7, 4.690e-7
0.470, -9.890e-7, -5.222e-7, 4.668e-7
0.469, -9.896e-7, -5.210e-7, 4.687e-7
0.468, -9.866e-7, -5.197e-7, 4.668e-7
0.467, -9.915e-7, -5.234e-7, 4.681e-7
0.466, -9.939e-7, -5.243e-7, 4.696e-7
0.465, -9.942e-7, -5.234e-7, 4.708e-7
0.464, -9.970e-7, -5.280e-7, 4.690e-7
0.463, -9.927e-7, -5.231e-7, 4.696e-7
0.462, -9.945e-7, -5.243e-7, 4.702e-7
0.461, -9.970e-7, -5.268e-7, 4.702e-7
0.460, -1.000e-6, -5.283e-7, 4.720e-7
0.459, -9.960e-7, -5.268e-7, 4.693e-7
0.458, -9.982e-7, -5.292e-7, 4.690e-7
0.457, -1.000e-6, -5.280e-7, 4.723e-7
0.456, -1.000e-6, -5.286e-7, 4.714e-7
0.455, -1.004e-6, -5.319e-7, 4.723e-7
0.454, -1.001e-6, -5.292e-7, 4.717e-7
0.453, -1.001e-6, -5.298e-7, 4.711e-7
0.452, -1.005e-6, -5.322e-7, 4.723e-7
0.451, -1.005e-6, -5.304e-7, 4.748e-7
0.450, -1.005e-6, -5.329e-7, 4.723e-7
0.449, -1.009e-6, -5.350e-7, 4.742e-7
0.448, -1.007e-6, -5.335e-7, 4.739e-7
0.447, -1.009e-6, -5.359e-7, 4.726e-7
0.446, -1.013e-6, -5.371e-7, 4.757e-7
0.445, -1.014e-6, -5.365e-7, 4.775e-7
0.444, -1.013e-6, -5.390e-7, 4.736e-7
0.443, -1.013e-6, -5.365e-7, 4.763e-7
0.442, -1.009e-6, -5.347e-7, 4.748e-7
0.441, -1.013e-6, -5.390e-7, 4.739e-7
0.440, -1.017e-6, -5.390e-7, 4.784e-7
0.439, -1.016e-6, -5.377e-7, 4.781e-7
0.438, -1.016e-6, -5.408e-7, 4.754e-7
0.437, -1.019e-6, -5.417e-7, 4.772e-7
0.436, -1.015e-6, -5.396e-7, 4.757e-7
0.435, -1.024e-6, -5.432e-7, 4.803e-7
0.434, -1.019e-6, -5.393e-7, 4.794e-7
0.433, -1.019e-6, -5.426e-7, 4.760e-7
0.432, -1.023e-6, -5.451e-7, 4.775e-7
0.431, -1.023e-6, -5.420e-7, 4.812e-7
0.430, -1.021e-6, -5.463e-7, 4.751e-7
0.429, -1.027e-6, -5.478e-7, 4.787e-7
0.428, -1.026e-6, -5.457e-7, 4.803e-7
0.427, -1.025e-6, -5.454e-7, 4.794e-7
0.426, -1.029e-6, -5.496e-7, 4.794e-7
0.425, -1.029e-6, -5.463e-7, 4.830e-7
0.424, -1.027e-6, -5.484e-7, 4.784e-7
0.423, -1.034e-6, -5.524e-7, 4.815e-7
0.422, -1.030e-6, -5.475e-7, 4.827e-7
0.421, -1.027e-6, -5.478e-7, 4.794e-7
0.420, -1.036e-6, -5.539e-7, 4.818e-7
0.419, -1.035e-6, -5.506e-7, 4.842e-7
0.418, -1.032e-6, -5.518e-7, 4.800e-7
0.417, -1.035e-6, -5.527e-7, 4.821e-7
0.416, -1.038e-6, -5.524e-7, 4.852e-7
0.415, -1.037e-6, -5.542e-7, 4.824e-7
0.414, -1.040e-6, -5.564e-7, 4.839e-7
0.413, -1.038e-6, -5.530e-7, 4.845e-7
0.412, -1.041e-6, -5.570e-7, 4.836e-7
0.411, -1.043e-6, -5.576e-7, 4.855e-7
0.410, -1.040e-6, -5.554e-7, 4.848e-7
0.409, -1.045e-6, -5.600e-7, 4.855e-7
0.408, -1.043e-6, -5.570e-7, 4.864e-7
0.407, -1.044e-6, -5.582e-7, 4.855e-7
0.406, -1.049e-6, -5.625e-7, 4.861e-7
0.405, -1.045e-6, -5.588e-7, 4.867e-7
0.404, -1.045e-6, -5.603e-7, 4.845e-7
0.403, -1.051e-6, -5.643e-7, 4.870e-7
0.402, -1.047e-6, -5.609e-7, 4.858e-7
0.401, -1.049e-6, -5.631e-7, 4.864e-7
0.400, -1.053e-6, -5.637e-7, 4.897e-7
0.399, -1.051e-6, -5.618e-7, 4.888e-7
0.398, -1.051e-6, -5.658e-7, 4.855e-7
0.397, -1.054e-6, -5.649e-7, 4.888e-7
0.396, -1.056e-6, -5.667e-7, 4.894e-7
0.395, -1.057e-6, -5.692e-7, 4.876e-7
0.394, -1.060e-6, -5.692e-7, 4.913e-7
0.393, -1.062e-6, -5.680e-7, 4.937e-7
0.392, -1.060e-6, -5.701e-7, 4.894e-7
0.391, -1.061e-6, -5.689e-7, 4.922e-7
0.390, -1.062e-6, -5.695e-7, 4.928e-7
0.389, -1.063e-6, -5.719e-7, 4.909e-7
0.388, -1.066e-6, -5.719e-7, 4.940e-7
0.387, -1.067e-6, -5.750e-7, 4.916e-7
0.386, -1.071e-6, -5.774e-7, 4.937e-7
0.385, -1.070e-6, -5.753e-7, 4.943e-7
0.384, -1.067e-6, -5.737e-7, 4.928e-7
0.383, -1.073e-6, -5.780e-7, 4.952e-7
0.382, -1.074e-6, -5.771e-7, 4.967e-7
0.381, -1.072e-6, -5.780e-7, 4.943e-7
0.380, -1.076e-6, -5.786e-7, 4.971e-7
0.379, -1.076e-6, -5.777e-7, 4.980e-7
0.378, -1.079e-6, -5.805e-7, 4.986e-7
0.377, -1.081e-6, -5.838e-7, 4.977e-7
0.376, -1.079e-6, -5.811e-7, 4.977e-7
0.375, -1.083e-6, -5.860e-7, 4.967e-7
0.374, -1.088e-6, -5.850e-7, 5.028e-7
0.373, -1.083e-6, -5.826e-7, 5.001e-7
0.372, -1.088e-6, -5.875e-7, 5.004e-7
0.371, -1.089e-6, -5.856e-7, 5.035e-7
0.370, -1.090e-6, -5.878e-7, 5.025e-7
0.369, -1.093e-6, -5.911e-7, 5.016e-7
0.368, -1.096e-6, -5.914e-7, 5.050e-7
0.367, -1.093e-6, -5.896e-7, 5.035e-7
0.366, -1.093e-6, -5.930e-7, 4.998e-7
0.365, -1.101e-6, -5.930e-7, 5.083e-7
0.364, -1.097e-6, -5.927e-7, 5.044e-7
0.363, -1.100e-6, -5.969e-7, 5.028e-7
0.362, -1.104e-6, -5.951e-7, 5.086e-7
0.361, -1.099e-6, -5.924e-7, 5.062e-7
0.360, -1.106e-6, -5.994e-7, 5.062e-7
0.359, -1.108e-6, -5.985e-7, 5.096e-7
0.358, -1.109e-6, -5.988e-7, 5.099e-7
0.357, -1.109e-6, -6.009e-7, 5.083e-7
0.356, -1.117e-6, -6.027e-7, 5.141e-7
0.355, -1.112e-6, -6.000e-7, 5.117e-7
0.354, -1.114e-6, -6.043e-7, 5.102e-7
0.353, -1.114e-6, -6.033e-7, 5.108e-7
0.352, -1.115e-6, -6.030e-7, 5.117e-7
0.351, -1.121e-6, -6.058e-7, 5.154e-7
0.350, -1.122e-6, -6.067e-7, 5.154e-7
0.349, -1.122e-6, -6.076e-7, 5.141e-7
0.348, -1.127e-6, -6.116e-7, 5.151e-7
0.347, -1.127e-6, -6.110e-7, 5.157e-7
0.346, -1.129e-6, -6.137e-7, 5.154e-7
0.345, -1.129e-6, -6.104e-7, 5.184e-7
0.344, -1.131e-6, -6.125e-7, 5.187e-7
0.343, -1.136e-6, -6.162e-7, 5.199e-7
0.342, -1.136e-6, -6.146e-7, 5.212e-7
0.341, -1.135e-6, -6.149e-7, 5.202e-7
0.340, -1.142e-6, -6.192e-7, 5.227e-7
0.339, -1.140e-6, -6.168e-7, 5.230e-7
0.338, -1.139e-6, -6.204e-7, 5.184e-7
0.337, -1.146e-6, -6.223e-7, 5.233e-7
0.336, -1.145e-6, -6.214e-7, 5.239e-7
0.335, -1.144e-6, -6.220e-7, 5.221e-7
0.334, -1.148e-6, -6.244e-7, 5.239e-7
0.333, -1.150e-6, -6.232e-7, 5.267e-7
0.332, -1.152e-6, -6.253e-7, 5.267e-7
0.331, -1.158e-6, -6.290e-7, 5.294e-7
0.330, -1.153e-6, -6.275e-7, 5.254e-7
0.329, -1.156e-6, -6.281e-7, 5.282e-7
0.328, -1.160e-6, -6.311e-7, 5.288e-7
0.327, -1.163e-6, -6.323e-7, 5.306e-7
0.326, -1.165e-6, -6.345e-7, 5.303e-7
0.325, -1.168e-6, -6.345e-7, 5.334e-7
0.324, -1.169e-6, -6.336e-7, 5.352e-7
0.323, -1.168e-6, -6.363e-7, 5.312e-7
0.322, -1.174e-6, -6.384e-7, 5.352e-7
0.321, -1.176e-6, -6.400e-7, 5.361e-7
0.320, -1.174e-6, -6.409e-7, 5.334e-7
0.319, -1.177e-6, -6.403e-7, 5.367e-7
0.318, -1.176e-6, -6.400e-7, 5.361e-7
0.317, -1.180e-6, -6.449e-7, 5.355e-7
0.316, -1.183e-6, -6.439e-7, 5.392e-7
0.315, -1.185e-6, -6.452e-7, 5.395e-7
0.314, -1.187e-6, -6.491e-7, 5.379e-7
0.313, -1.190e-6, -6.473e-7, 5.422e-7
0.312, -1.186e-6, -6.479e-7, 5.386e-7
0.311, -1.194e-6, -6.516e-7, 5.428e-7
0.310, -1.193e-6, -6.500e-7, 5.434e-7
0.309, -1.193e-6, -6.519e-7, 5.410e-7
0.308, -1.198e-6, -6.555e-7, 5.428e-7
0.307, -1.199e-6, -6.528e-7, 5.459e-7
0.306, -1.198e-6, -6.552e-7, 5.428e-7
0.305, -1.204e-6, -6.583e-7, 5.453e-7
0.304, -1.205e-6, -6.552e-7, 5.501e-7
0.303, -1.204e-6, -6.586e-7, 5.459e-7
0.302, -1.210e-6, -6.619e-7, 5.480e-7
0.301, -1.211e-6, -6.607e-7, 5.498e-7
0.300, -1.211e-6, -6.622e-7, 5.483e-7
0.299, -1.215e-6, -6.644e-7, 5.511e-7
0.298, -1.214e-6, -6.622e-7, 5.517e-7
0.297, -1.211e-6, -6.616e-7, 5.498e-7
0.296, -1.219e-6, -6.656e-7, 5.532e-7
0.295, -1.221e-6, -6.665e-7, 5.547e-7
0.294, -1.223e-6, -6.702e-7, 5.532e-7
0.293, -1.229e-6, -6.726e-7, 5.566e-7
0.292, -1.226e-6, -6.699e-7, 5.556e-7
0.291, -1.227e-6, -6.741e-7, 5.532e-7
0.290, -1.232e-6, -6.745e-7, 5.578e-7
0.289, -1.229e-6, -6.732e-7, 5.563e-7
0.288, -1.230e-6, -6.741e-7, 5.559e-7
0.287, -1.237e-6, -6.772e-7, 5.593e-7
0.286, -1.237e-6, -6.769e-7, 5.596e-7
0.285, -1.241e-6, -6.818e-7, 5.593e-7
0.284, -1.240e-6, -6.799e-7, 5.599e-7
0.283, -1.241e-6, -6.821e-7, 5.593e-7
0.282, -1.247e-6, -6.836e-7, 5.636e-7
0.281, -1.245e-6, -6.815e-7, 5.639e-7
0.280, -1.249e-6, -6.857e-7, 5.636e-7
0.279, -1.250e-6, -6.848e-7, 5.651e-7
0.278, -1.253e-6, -6.873e-7, 5.654e-7
0.277, -1.254e-6, -6.906e-7, 5.633e-7
0.276, -1.257e-6, -6.900e-7, 5.666e-7
0.275, -1.258e-6, -6.900e-7, 5.685e-7
0.274, -1.263e-6, -6.946e-7, 5.685e-7
0.273, -1.263e-6, -6.931e-7, 5.700e-7
0.272, -1.265e-6, -6.946e-7, 5.709e-7
0.271, -1.269e-6, -6.976e-7, 5.712e-7
0.270, -1.273e-6, -6.979e-7, 5.749e-7
0.269, -1.270e-6, -6.961e-7, 5.743e-7
0.268, -1.274e-6, -7.022e-7, 5.718e-7
0.267, -1.275e-6, -6.995e-7, 5.758e-7
0.266, -1.278e-6, -7.031e-7, 5.749e-7
0.265, -1.282e-6, -7.053e-7, 5.770e-7
0.264, -1.284e-6, -7.050e-7, 5.788e-7
0.263, -1.283e-6, -7.062e-7, 5.773e-7
0.262, -1.288e-6, -7.092e-7, 5.785e-7
0.261, -1.290e-6, -7.095e-7, 5.804e-7
0.260, -1.292e-6, -7.111e-7, 5.807e-7
0.259, -1.297e-6, -7.150e-7, 5.819e-7
0.258, -1.298e-6, -7.135e-7, 5.846e-7
0.257, -1.296e-6, -7.147e-7, 5.813e-7
0.256, -1.303e-6, -7.178e-7, 5.852e-7
0.255, -1.301e-6, -7.163e-7, 5.849e-7
0.254, -1.305e-6, -7.199e-7, 5.849e-7
0.253, -1.312e-6, -7.239e-7, 5.886e-7
0.252, -1.312e-6, -7.214e-7, 5.910e-7
0.251, -1.314e-6, -7.263e-7, 5.880e-7
0.250, -1.318e-6, -7.263e-7, 5.920e-7
0.249, -1.318e-6, -7.260e-7, 5.920e-7
0.248, -1.322e-6, -7.309e-7, 5.913e-7
0.247, -1.325e-6, -7.291e-7, 5.962e-7
0.246, -1.324e-6, -7.300e-7, 5.941e-7
0.245, -1.330e-6, -7.343e-7, 5.962e-7
0.244, -1.333e-6, -7.352e-7, 5.981e-7
0.243, -1.333e-6, -7.330e-7, 5.999e-7
0.242, -1.339e-6, -7.395e-7, 5.999e-7
0.241, -1.341e-6, -7.385e-7, 6.023e-7
0.240, -1.341e-6, -7.391e-7, 6.020e-7
0.239, -1.348e-6, -7.456e-7, 6.026e-7
0.238, -1.350e-6, -7.443e-7, 6.057e-7
0.237, -1.348e-6, -7.428e-7, 6.054e-7
0.236, -1.354e-6, -7.498e-7, 6.045e-7
0.235, -1.359e-6, -7.504e-7, 6.087e-7
0.234, -1.357e-6, -7.489e-7, 6.084e-7
0.233, -1.360e-6, -7.526e-7, 6.078e-7
0.232, -1.363e-6, -7.529e-7, 6.106e-7
0.231, -1.365e-6, -7.535e-7, 6.118e-7
0.230, -1.371e-6, -7.571e-7, 6.139e-7
0.229, -1.373e-6, -7.596e-7, 6.136e-7
0.228, -1.376e-6, -7.608e-7, 6.155e-7
0.227, -1.380e-6, -7.608e-7, 6.194e-7
0.226, -1.381e-6, -7.633e-7, 6.173e-7
0.225, -1.384e-6, -7.663e-7, 6.179e-7
0.224, -1.390e-6, -7.681e-7, 6.216e-7
0.223, -1.390e-6, -7.678e-7, 6.222e-7
0.222, -1.395e-6, -7.715e-7, 6.231e-7
0.221, -1.397e-6, -7.709e-7, 6.261e-7
0.220, -1.396e-6, -7.724e-7, 6.240e-7
0.219, -1.404e-6, -7.761e-7, 6.277e-7
0.218, -1.404e-6, -7.776e-7, 6.267e-7
0.217, -1.409e-6, -7.797e-7, 6.295e-7
0.216, -1.413e-6, -7.810e-7, 6.319e-7
0.215, -1.414e-6, -7.825e-7, 6.313e-7
0.214, -1.416e-6, -7.831e-7, 6.332e-7
0.213, -1.421e-6, -7.874e-7, 6.335e-7
0.212, -1.425e-6, -7.889e-7, 6.365e-7
0.211, -1.424e-6, -7.886e-7, 6.350e-7
0.210, -1.428e-6, -7.910e-7, 6.368e-7
0.209, -1.434e-6, -7.935e-7, 6.405e-7
0.208, -1.433e-6, -7.938e-7, 6.389e-7
0.207, -1.439e-6, -7.980e-7, 6.411e-7
0.206, -1.441e-6, -7.968e-7, 6.441e-7
0.205, -1.445e-6, -8.008e-7, 6.438e-7
0.204, -1.450e-6, -8.026e-7, 6.469e-7
0.203, -1.452e-6, -8.017e-7, 6.499e-7
0.202, -1.456e-6, -8.078e-7, 6.481e-7
0.201, -1.457e-6, -8.078e-7, 6.493e-7
0.200, -1.458e-6, -8.060e-7, 6.518e-7
0.199, -1.462e-6, -8.115e-7, 6.502e-7
0.198, -1.467e-6, -8.124e-7, 6.542e-7
0.197, -1.470e-6, -8.139e-7, 6.560e-7
0.196, -1.473e-6, -8.179e-7, 6.554e-7
0.195, -1.475e-6, -8.182e-7, 6.570e-7
0.194, -1.478e-6, -8.200e-7, 6.582e-7
0.193, -1.481e-6, -8.246e-7, 6.566e-7
0.192, -1.486e-6, -8.237e-7, 6.621e-7
0.191, -1.484e-6, -8.228e-7, 6.615e-7
0.190, -1.492e-6, -8.298e-7, 6.621e-7
0.189, -1.493e-6, -8.258e-7, 6.667e-7
0.188, -1.499e-6, -8.322e-7, 6.667e-7
0.187, -1.504e-6, -8.359e-7, 6.676e-7
0.186, -1.503e-6, -8.322e-7, 6.707e-7
0.185, -1.507e-6, -8.356e-7, 6.713e-7
0.184, -1.510e-6, -8.398e-7, 6.701e-7
0.183, -1.512e-6, -8.389e-7, 6.728e-7
0.182, -1.514e-6, -8.417e-7, 6.722e-7
0.181, -1.521e-6, -8.463e-7, 6.747e-7
0.180, -1.523e-6, -8.466e-7, 6.765e-7
0.179, -1.524e-6, -8.484e-7, 6.759e-7
0.178, -1.531e-6, -8.524e-7, 6.789e-7
0.177, -1.532e-6, -8.505e-7, 6.811e-7
0.176, -1.535e-6, -8.548e-7, 6.801e-7
0.175, -1.542e-6, -8.582e-7, 6.838e-7
0.174, -1.547e-6, -8.585e-7, 6.890e-7
0.173, -1.547e-6, -8.615e-7, 6.856e-7
0.172, -1.548e-6, -8.618e-7, 6.866e-7
0.171, -1.554e-6, -8.627e-7, 6.911e-7
0.170, -1.559e-6, -8.673e-7, 6.914e-7
0.169, -1.562e-6, -8.691e-7, 6.933e-7
0.168, -1.565e-6, -8.704e-7, 6.948e-7
0.167, -1.568e-6, -8.731e-7, 6.945e-7
0.166, -1.573e-6, -8.749e-7, 6.985e-7
0.165, -1.576e-6, -8.774e-7, 6.988e-7
0.164, -1.578e-6, -8.792e-7, 6.988e-7
0.163, -1.581e-6, -8.804e-7, 7.003e-7
0.162, -1.586e-6, -8.835e-7, 7.027e-7
0.161, -1.588e-6, -8.853e-7, 7.030e-7
0.160, -1.590e-6, -8.859e-7, 7.046e-7
0.159, -1.596e-6, -8.905e-7, 7.058e-7
0.158, -1.600e-6, -8.914e-7, 7.088e-7
0.157, -1.601e-6, -8.945e-7, 7.067e-7
0.156, -1.606e-6, -8.963e-7, 7.097e-7
0.155, -1.614e-6, -9.009e-7, 7.131e-7
0.154, -1.613e-6, -8.981e-7, 7.149e-7
0.153, -1.618e-6, -9.033e-7, 7.143e-7
0.152, -1.624e-6, -9.052e-7, 7.186e-7
0.151, -1.624e-6, -9.067e-7, 7.177e-7
0.150, -1.630e-6, -9.103e-7, 7.192e-7
0.149, -1.635e-6, -9.122e-7, 7.226e-7
0.148, -1.638e-6, -9.134e-7, 7.247e-7
0.147, -1.643e-6, -9.195e-7, 7.235e-7
0.146, -1.647e-6, -9.201e-7, 7.271e-7
0.145, -1.650e-6, -9.207e-7, 7.290e-7
0.144, -1.657e-6, -9.265e-7, 7.308e-7
0.143, -1.661e-6, -9.283e-7, 7.326e-7
0.142, -1.662e-6, -9.293e-7, 7.326e-7
0.141, -1.668e-6, -9.332e-7, 7.351e-7
0.140, -1.673e-6, -9.335e-7, 7.393e-7
0.139, -1.675e-6, -9.378e-7, 7.375e-7
0.138, -1.683e-6, -9.402e-7, 7.424e-7
0.137, -1.688e-6, -9.427e-7, 7.448e-7
0.136, -1.688e-6, -9.454e-7, 7.430e-7
0.135, -1.695e-6, -9.488e-7, 7.458e-7
0.134, -1.697e-6, -9.479e-7, 7.494e-7
0.133, -1.704e-6, -9.543e-7, 7.494e-7
0.132, -1.710e-6, -9.582e-7, 7.522e-7
0.131, -1.714e-6, -9.573e-7, 7.567e-7
0.130, -1.717e-6, -9.622e-7, 7.543e-7
0.129, -1.722e-6, -9.650e-7, 7.567e-7
0.128, -1.729e-6, -9.665e-7, 7.622e-7
0.127, -1.732e-6, -9.729e-7, 7.595e-7
0.126, -1.736e-6, -9.735e-7, 7.622e-7
0.125, -1.742e-6, -9.766e-7, 7.656e-7
0.124, -1.747e-6, -9.796e-7, 7.674e-7
0.123, -1.756e-6, -9.848e-7, 7.708e-7
0.122, -1.756e-6, -9.848e-7, 7.708e-7
0.121, -1.760e-6, -9.875e-7, 7.720e-7
0.120, -1.766e-6, -9.903e-7, 7.754e-7
0.119, -1.775e-6, -9.924e-7, 7.824e-7
0.118, -1.779e-6, -9.991e-7, 7.796e-7
0.117, -1.786e-6, -1.003e-6, 7.833e-7
0.116, -1.788e-6, -1.002e-6, 7.866e-7
0.115, -1.790e-6, -1.007e-6, 7.833e-7
0.114, -1.800e-6, -1.009e-6, 7.906e-7
0.113, -1.800e-6, -1.010e-6, 7.900e-7
0.112, -1.810e-6, -1.019e-6, 7.909e-7
0.111, -1.813e-6, -1.018e-6, 7.955e-7
0.110, -1.816e-6, -1.021e-6, 7.952e-7
0.109, -1.825e-6, -1.027e-6, 7.973e-7
0.108, -1.829e-6, -1.027e-6, 8.025e-7
0.107, -1.835e-6, -1.032e-6, 8.034e-7
0.106, -1.840e-6, -1.036e-6, 8.037e-7
0.105, -1.850e-6, -1.040e-6, 8.092e-7
0.104, -1.852e-6, -1.043e-6, 8.092e-7
0.103, -1.859e-6, -1.047e-6, 8.120e-7
0.102, -1.863e-6, -1.049e-6, 8.141e-7
0.101, -1.872e-6, -1.056e-6, 8.165e-7
0.100, -1.878e-6, -1.057e-6, 8.205e-7
0.099, -1.883e-6, -1.060e-6, 8.220e-7
0.098, -1.885e-6, -1.062e-6, 8.230e-7
0.097, -1.892e-6, -1.067e-6, 8.257e-7
0.096, -1.902e-6, -1.072e-6, 8.303e-7
0.095, -1.905e-6, -1.074e-6, 8.312e-7
0.094, -1.912e-6, -1.076e-6, 8.352e-7
0.093, -1.918e-6, -1.080e-6, 8.376e-7
0.092, -1.924e-6, -1.085e-6, 8.391e-7
0.091, -1.931e-6, -1.089e-6, 8.428e-7
0.090, -1.936e-6, -1.092e-6, 8.443e-7
0.089, -1.946e-6, -1.098e-6, 8.477e-7
0.088, -1.952e-6, -1.100e-6, 8.519e-7
0.087, -1.958e-6, -1.106e-6, 8.523e-7
0.086, -1.966e-6, -1.110e-6, 8.556e-7
0.085, -1.969e-6, -1.112e-6, 8.574e-7
0.084, -1.977e-6, -1.116e-6, 8.608e-7
0.083, -1.983e-6, -1.121e-6, 8.620e-7
0.082, -1.988e-6, -1.121e-6, 8.678e-7
0.081, -1.994e-6, -1.128e-6, 8.660e-7
0.080, -1.999e-6, -1.130e-6, 8.690e-7
0.079, -2.006e-6, -1.132e-6, 8.739e-7
0.078, -2.013e-6, -1.139e-6, 8.742e-7
0.077, -2.019e-6, -1.142e-6, 8.773e-7
0.076, -2.026e-6, -1.146e-6, 8.806e-7
0.075, -2.037e-6, -1.153e-6, 8.837e-7
0.074, -2.043e-6, -1.155e-6, 8.876e-7
0.073, -2.045e-6, -1.156e-6, 8.886e-7
0.072, -2.059e-6, -1.167e-6, 8.919e-7
0.071, -2.062e-6, -1.166e-6, 8.959e-7
0.070, -2.065e-6, -1.168e-6, 8.965e-7
0.069, -2.076e-6, -1.177e-6, 8.986e-7
0.068, -2.083e-6, -1.179e-6, 9.044e-7
0.067, -2.086e-6, -1.180e-6, 9.066e-7
0.066, -2.097e-6, -1.189e-6, 9.075e-7
0.065, -2.106e-6, -1.192e-6, 9.145e-7
0.064, -2.110e-6, -1.196e-6, 9.148e-7
0.063, -2.120e-6, -1.201e-6, 9.182e-7
0.062, -2.128e-6, -1.204e-6, 9.237e-7
0.061, -2.130e-6, -1.208e-6, 9.215e-7
0.060, -2.140e-6, -1.215e-6, 9.249e-7
0.059, -2.146e-6, -1.212e-6, 9.331e-7
0.058, -2.154e-6, -1.220e-6, 9.340e-7
0.057, -2.162e-6, -1.224e-6, 9.374e-7
0.056, -2.168e-6, -1.226e-6, 9.414e-7
0.055, -2.173e-6, -1.232e-6, 9.411e-7
0.054, -2.183e-6, -1.239e-6, 9.444e-7
0.053, -2.190e-6, -1.241e-6, 9.493e-7
0.052, -2.194e-6, -1.244e-6, 9.499e-7
0.051, -2.205e-6, -1.251e-6, 9.542e-7
0.050, -2.211e-6, -1.252e-6, 9.584e-7
0.049, -2.214e-6, -1.256e-6, 9.578e-7
0.048, -2.230e-6, -1.266e-6, 9.642e-7
0.047, -2.237e-6, -1.267e-6, 9.694e-7
0.046, -2.243e-6, -1.271e-6, 9.722e-7
0.045, -2.254e-6, -1.279e-6, 9.752e-7
0.044, -2.257e-6, -1.280e-6, 9.768e-7
0.043, -2.263e-6, -1.284e-6, 9.786e-7
0.042, -2.272e-6, -1.289e-6, 9.826e-7
0.041, -2.282e-6, -1.295e-6, 9.877e-7
0.040, -2.287e-6, -1.299e-6, 9.887e-7
0.039, -2.296e-6, -1.301e-6, 9.954e-7
0.038, -2.305e-6, -1.307e-6, 9.972e-7
0.037, -2.312e-6, -1.311e-6, 1.001e-6
0.036, -2.320e-6, -1.315e-6, 1.005e-6
0.035, -2.326e-6, -1.319e-6, 1.007e-6
0.034, -2.336e-6, -1.325e-6, 1.012e-6
0.033, -2.342e-6, -1.327e-6, 1.015e-6
0.032, -2.350e-6, -1.334e-6, 1.017e-6
0.031, -2.362e-6, -1.338e-6, 1.024e-6
0.030, -2.365e-6, -1.341e-6, 1.024e-6
0.029, -2.376e-6, -1.348e-6, 1.028e-6
0.028, -2.385e-6, -1.351e-6, 1.034e-6
0.027, -2.391e-6, -1.355e-6, 1.036e-6
0.026, -2.402e-6, -1.363e-6, 1.039e-6
0.025, -2.408e-6, -1.365e-6, 1.043e-6
0.024, -2.415e-6, -1.369e-6, 1.046e-6
0.023, -2.427e-6, -1.377e-6, 1.050e-6
0.022, -2.433e-6, -1.378e-6, 1.055e-6
0.021, -2.439e-6, -1.382e-6, 1.056e-6
0.020, -2.450e-6, -1.389e-6, 1.061e-6
0.019, -2.459e-6, -1.391e-6, 1.068e-6
0.018, -2.468e-6, -1.399e-6, 1.069e-6
0.017, -2.476e-6, -1.403e-6, 1.073e-6
0.016, -2.482e-6, -1.405e-6, 1.077e-6
0.015, -2.491e-6, -1.411e-6, 1.080e-6
0.014, -2.505e-6, -1.418e-6, 1.087e-6
0.013, -2.510e-6, -1.417e-6, 1.093e-6
0.012, -2.515e-6, -1.425e-6, 1.090e-6
0.011, -2.528e-6, -1.430e-6, 1.097e-6
0.010, -2.532e-6, -1.431e-6, 1.101e-6
0.009, -2.542e-6, -1.437e-6, 1.105e-6
0.008, -2.550e-6, -1.443e-6, 1.107e-6
0.007, -2.558e-6, -1.445e-6, 1.113e-6
0.006, -2.569e-6, -1.454e-6, 1.115e-6
0.005, -2.578e-6, -1.456e-6, 1.122e-6
0.004, -2.584e-6, -1.457e-6, 1.127e-6
0.003, -2.593e-6, -1.466e-6, 1.127e-6
0.002, -2.603e-6, -1.470e-6, 1.133e-6
0.001, -2.610e-6, -1.472e-6, 1.138e-6
0.000, -2.619e-6, -1.479e-6, 1.139e-6
-0.001, -2.633e-6, -1.485e-6, 1.148e-6
-0.002, -2.634e-6, -1.485e-6, 1.149e-6
-0.003, -2.646e-6, -1.493e-6, 1.153e-6
-0.004, -2.655e-6, -1.496e-6, 1.160e-6
-0.005, -2.660e-6, -1.499e-6, 1.161e-6
-0.006, -2.671e-6, -1.507e-6, 1.164e-6
-0.007, -2.681e-6, -1.510e-6, 1.171e-6
-0.008, -2.685e-6, -1.511e-6, 1.174e-6
-0.009, -2.697e-6, -1.520e-6, 1.177e-6
-0.010, -2.705e-6, -1.521e-6, 1.184e-6
-0.011, -2.712e-6, -1.526e-6, 1.187e-6
-0.012, -2.724e-6, -1.532e-6, 1.192e-6
-0.013, -2.731e-6, -1.536e-6, 1.196e-6
-0.014, -2.738e-6, -1.538e-6, 1.200e-6
-0.015, -2.746e-6, -1.544e-6, 1.203e-6
-0.016, -2.756e-6, -1.548e-6, 1.209e-6
-0.017, -2.760e-6, -1.549e-6, 1.211e-6
-0.018, -2.772e-6, -1.556e-6, 1.216e-6
-0.019, -2.782e-6, -1.562e-6, 1.221e-6
-0.020, -2.787e-6, -1.563e-6, 1.224e-6
-0.021, -2.798e-6, -1.569e-6, 1.229e-6
-0.022, -2.804e-6, -1.572e-6, 1.232e-6
-0.023, -2.814e-6, -1.577e-6, 1.237e-6
-0.024, -2.820e-6, -1.579e-6, 1.241e-6
-0.025, -2.829e-6, -1.584e-6, 1.245e-6
-0.026, -2.836e-6, -1.588e-6, 1.249e-6
-0.027, -2.848e-6, -1.593e-6, 1.255e-6
-0.028, -2.856e-6, -1.598e-6, 1.258e-6
-0.029, -2.862e-6, -1.601e-6, 1.261e-6
-0.030, -2.872e-6, -1.603e-6, 1.269e-6
-0.031, -2.879e-6, -1.608e-6, 1.271e-6
-0.032, -2.886e-6, -1.612e-6, 1.275e-6
-0.033, -2.894e-6, -1.613e-6, 1.281e-6
-0.034, -2.901e-6, -1.617e-6, 1.283e-6
-0.035, -2.911e-6, -1.623e-6, 1.287e-6
-0.036, -2.920e-6, -1.625e-6, 1.294e-6
-0.037, -2.922e-6, -1.627e-6, 1.295e-6
-0.038, -2.934e-6, -1.631e-6, 1.303e-6
-0.039, -2.941e-6, -1.635e-6, 1.306e-6
-0.040, -2.950e-6, -1.641e-6, 1.308e-6
-0.041, -2.950e-6, -1.638e-6, 1.312e-6
-0.042, -2.958e-6, -1.642e-6, 1.316e-6
-0.043, -2.970e-6, -1.651e-6, 1.319e-6
-0.044, -2.975e-6, -1.650e-6, 1.325e-6
-0.045, -2.982e-6, -1.653e-6, 1.329e-6
-0.046, -2.988e-6, -1.658e-6, 1.330e-6
-0.047, -2.998e-6, -1.660e-6, 1.337e-6
-0.048, -3.001e-6, -1.663e-6, 1.338e-6
-0.049, -3.009e-6, -1.669e-6, 1.340e-6
-0.050, -3.014e-6, -1.668e-6, 1.346e-6
-0.051, -3.022e-6, -1.670e-6, 1.352e-6
-0.052, -3.031e-6, -1.677e-6, 1.354e-6
-0.053, -3.037e-6, -1.676e-6, 1.361e-6
-0.054, -3.041e-6, -1.679e-6, 1.362e-6
-0.055, -3.051e-6, -1.684e-6, 1.366e-6
-0.056, -3.057e-6, -1.686e-6, 1.371e-6
-0.057, -3.063e-6, -1.688e-6, 1.376e-6
-0.058, -3.067e-6, -1.693e-6, 1.375e-6
-0.059, -3.075e-6, -1.691e-6, 1.384e-6
-0.060, -3.079e-6, -1.694e-6, 1.385e-6
-0.061, -3.087e-6, -1.698e-6, 1.389e-6
-0.062, -3.089e-6, -1.698e-6, 1.391e-6
-0.063, -3.096e-6, -1.703e-6, 1.393e-6
-0.064, -3.105e-6, -1.706e-6, 1.399e-6
-0.065, -3.110e-6, -1.704e-6, 1.406e-6
-0.066, -3.111e-6, -1.707e-6, 1.404e-6
-0.067, -3.121e-6, -1.712e-6, 1.409e-6
-0.068, -3.124e-6, -1.710e-6, 1.414e-6
-0.069, -3.128e-6, -1.713e-6, 1.415e-6
-0.070, -3.136e-6, -1.718e-6, 1.418e-6
-0.071, -3.139e-6, -1.716e-6, 1.423e-6
-0.072, -3.144e-6, -1.718e-6, 1.426e-6
-0.073, -3.155e-6, -1.725e-6, 1.430e-6
-0.074, -3.154e-6, -1.722e-6, 1.432e-6
-0.075, -3.159e-6, -1.723e-6, 1.435e-6
-0.076, -3.165e-6, -1.727e-6, 1.438e-6
-0.077, -3.169e-6, -1.726e-6, 1.443e-6
-0.078, -3.174e-6, -1.728e-6, 1.445e-6
-0.079, -3.175e-6, -1.729e-6, 1.446e-6
-0.080, -3.182e-6, -1.730e-6, 1.452e-6
-0.081, -3.184e-6, -1.732e-6, 1.452e-6
-0.082, -3.189e-6, -1.733e-6, 1.456e-6
-0.083, -3.193e-6, -1.735e-6, 1.458e-6
-0.084, -3.201e-6, -1.737e-6, 1.464e-6
-0.085, -3.201e-6, -1.735e-6, 1.466e-6
-0.086, -3.204e-6, -1.738e-6, 1.466e-6
-0.087, -3.212e-6, -1.740e-6, 1.472e-6
-0.088, -3.215e-6, -1.740e-6, 1.474e-6
-0.089, -3.215e-6, -1.740e-6, 1.475e-6
-0.090, -3.220e-6, -1.741e-6, 1.479e-6
-0.091, -3.224e-6, -1.742e-6, 1.482e-6
-0.092, -3.226e-6, -1.744e-6, 1.481e-6
-0.093, -3.230e-6, -1.745e-6, 1.485e-6
-0.094, -3.233e-6, -1.745e-6, 1.489e-6
-0.095, -3.235e-6, -1.746e-6, 1.489e-6
-0.096, -3.240e-6, -1.746e-6, 1.494e-6
-0.097, -3.241e-6, -1.746e-6, 1.495e-6
-0.098, -3.244e-6, -1.747e-6, 1.497e-6
-0.099, -3.249e-6, -1.746e-6, 1.503e-6
-0.100, -3.246e-6, -1.746e-6, 1.500e-6
-0.101, -3.252e-6, -1.749e-6, 1.503e-6
-0.102, -3.254e-6, -1.746e-6, 1.508e-6
-0.103, -3.255e-6, -1.746e-6, 1.508e-6
-0.104, -3.257e-6, -1.748e-6, 1.509e-6
-0.105, -3.259e-6, -1.745e-6, 1.514e-6
-0.106, -3.261e-6, -1.748e-6, 1.513e-6
-0.107, -3.266e-6, -1.749e-6, 1.517e-6
-0.108, -3.265e-6, -1.745e-6, 1.520e-6
-0.109, -3.267e-6, -1.749e-6, 1.518e-6
-0.110, -3.273e-6, -1.750e-6, 1.523e-6
-0.111, -3.272e-6, -1.746e-6, 1.526e-6
-0.112, -3.270e-6, -1.745e-6, 1.525e-6
-0.113, -3.280e-6, -1.752e-6, 1.528e-6
-0.114, -3.274e-6, -1.745e-6, 1.528e-6
-0.115, -3.276e-6, -1.746e-6, 1.530e-6
-0.116, -3.281e-6, -1.748e-6, 1.533e-6
-0.117, -3.280e-6, -1.745e-6, 1.535e-6
-0.118, -3.281e-6, -1.747e-6, 1.534e-6
-0.119, -3.280e-6, -1.743e-6, 1.538e-6
-0.120, -3.283e-6, -1.743e-6, 1.540e-6
-0.121, -3.280e-6, -1.744e-6, 1.536e-6
-0.122, -3.285e-6, -1.743e-6, 1.543e-6
-0.123, -3.282e-6, -1.740e-6, 1.542e-6
-0.124, -3.281e-6, -1.740e-6, 1.542e-6
-0.125, -3.285e-6, -1.742e-6, 1.544e-6
-0.126, -3.285e-6, -1.738e-6, 1.547e-6
-0.127, -3.287e-6, -1.741e-6, 1.546e-6
-0.128, -3.289e-6, -1.741e-6, 1.549e-6
-0.129, -3.287e-6, -1.735e-6, 1.551e-6
-0.130, -3.287e-6, -1.738e-6, 1.549e-6
-0.131, -3.289e-6, -1.737e-6, 1.552e-6
-0.132, -3.284e-6, -1.733e-6, 1.552e-6
-0.133, -3.283e-6, -1.733e-6, 1.550e-6
-0.134, -3.285e-6, -1.732e-6, 1.554e-6
-0.135, -3.286e-6, -1.732e-6, 1.555e-6
-0.136, -3.286e-6, -1.733e-6, 1.553e-6
-0.137, -3.283e-6, -1.727e-6, 1.557e-6
-0.138, -3.283e-6, -1.726e-6, 1.556e-6
-0.139, -3.282e-6, -1.727e-6, 1.555e-6
-0.140, -3.281e-6, -1.725e-6, 1.556e-6
-0.141, -3.279e-6, -1.721e-6, 1.558e-6
-0.142, -3.280e-6, -1.722e-6, 1.558e-6
-0.143, -3.281e-6, -1.723e-6, 1.558e-6
-0.144, -3.276e-6, -1.719e-6, 1.557e-6
-0.145, -3.275e-6, -1.715e-6, 1.560e-6
-0.146, -3.276e-6, -1.716e-6, 1.560e-6
-0.147, -3.274e-6, -1.714e-6, 1.560e-6
-0.148, -3.275e-6, -1.715e-6, 1.560e-6
-0.149, -3.270e-6, -1.712e-6, 1.558e-6
-0.150, -3.271e-6, -1.711e-6, 1.560e-6
-0.151, -3.266e-6, -1.708e-6, 1.558e-6
-0.152, -3.267e-6, -1.708e-6, 1.559e-6
-0.153, -3.263e-6, -1.706e-6, 1.557e-6
-0.154, -3.262e-6, -1.702e-6, 1.560e-6
-0.155, -3.259e-6, -1.701e-6, 1.558e-6
-0.156, -3.262e-6, -1.702e-6, 1.559e-6
-0.157, -3.258e-6, -1.697e-6, 1.561e-6
-0.158, -3.257e-6, -1.698e-6, 1.559e-6
-0.159, -3.257e-6, -1.698e-6, 1.559e-6
-0.160, -3.249e-6, -1.691e-6, 1.558e-6
-0.161, -3.248e-6, -1.692e-6, 1.556e-6
-0.162, -3.248e-6, -1.691e-6, 1.557e-6
-0.163, -3.248e-6, -1.690e-6, 1.558e-6
-0.164, -3.239e-6, -1.685e-6, 1.554e-6
-0.165, -3.240e-6, -1.684e-6, 1.556e-6
-0.166, -3.234e-6, -1.681e-6, 1.554e-6
-0.167, -3.233e-6, -1.680e-6, 1.553e-6
-0.168, -3.231e-6, -1.677e-6, 1.554e-6
-0.169, -3.228e-6, -1.675e-6, 1.553e-6
-0.170, -3.226e-6, -1.676e-6, 1.550e-6
-0.171, -3.223e-6, -1.671e-6, 1.551e-6
-0.172, -3.220e-6, -1.671e-6, 1.549e-6
-0.173, -3.215e-6, -1.667e-6, 1.548e-6
-0.174, -3.216e-6, -1.667e-6, 1.550e-6
-0.175, -3.208e-6, -1.661e-6, 1.547e-6
-0.176, -3.205e-6, -1.661e-6, 1.544e-6
-0.177, -3.203e-6, -1.655e-6, 1.548e-6
-0.178, -3.198e-6, -1.656e-6, 1.543e-6
-0.179, -3.198e-6, -1.657e-6, 1.541e-6
-0.180, -3.191e-6, -1.648e-6, 1.543e-6
-0.181, -3.187e-6, -1.649e-6, 1.539e-6
-0.182, -3.187e-6, -1.649e-6, 1.538e-6
-0.183, -3.188e-6, -1.647e-6, 1.540e-6
-0.184, -3.179e-6, -1.645e-6, 1.534e-6
-0.185, -3.179e-6, -1.643e-6, 1.536e-6
-0.186, -3.174e-6, -1.638e-6, 1.535e-6
-0.187, -3.167e-6, -1.635e-6, 1.532e-6
-0.188, -3.165e-6, -1.636e-6, 1.529e-6
-0.189, -3.160e-6, -1.629e-6, 1.531e-6
-0.190, -3.154e-6, -1.626e-6, 1.528e-6
-0.191, -3.155e-6, -1.630e-6, 1.525e-6
-0.192, -3.149e-6, -1.624e-6, 1.525e-6
-0.193, -3.146e-6, -1.624e-6, 1.522e-6
-0.194, -3.144e-6, -1.623e-6, 1.521e-6
-0.195, -3.139e-6, -1.617e-6, 1.521e-6
-0.196, -3.132e-6, -1.613e-6, 1.519e-6
-0.197, -3.130e-6, -1.613e-6, 1.517e-6
-0.198, -3.128e-6, -1.612e-6, 1.516e-6
-0.199, -3.121e-6, -1.609e-6, 1.513e-6
-0.200, -3.121e-6, -1.609e-6, 1.513e-6
-0.201, -3.115e-6, -1.605e-6, 1.510e-6
-0.202, -3.108e-6, -1.600e-6, 1.508e-6
-0.203, -3.104e-6, -1.599e-6, 1.505e-6
-0.204, -3.103e-6, -1.597e-6, 1.505e-6
-0.205, -3.099e-6, -1.597e-6, 1.502e-6
-0.206, -3.095e-6, -1.595e-6, 1.500e-6
-0.207, -3.090e-6, -1.593e-6, 1.497e-6
-0.208, -3.086e-6, -1.589e-6, 1.497e-6
-0.209, -3.082e-6, -1.587e-6, 1.496e-6
-0.210, -3.081e-6, -1.588e-6, 1.493e-6
-0.211, -3.077e-6, -1.584e-6, 1.493e-6
-0.212, -3.067e-6, -1.578e-6, 1.488e-6
-0.213, -3.062e-6, -1.577e-6, 1.485e-6
-0.214, -3.064e-6, -1.579e-6, 1.485e-6
-0.215, -3.055e-6, -1.570e-6, 1.485e-6
-0.216, -3.055e-6, -1.574e-6, 1.481e-6
-0.217, -3.046e-6, -1.566e-6, 1.480e-6
-0.218, -3.045e-6, -1.567e-6, 1.478e-6
-0.219, -3.044e-6, -1.569e-6, 1.474e-6
-0.220, -3.035e-6, -1.562e-6, 1.473e-6
-0.221, -3.032e-6, -1.561e-6, 1.470e-6
-0.222, -3.030e-6, -1.562e-6, 1.467e-6
-0.223, -3.026e-6, -1.556e-6, 1.469e-6
-0.224, -3.016e-6, -1.555e-6, 1.462e-6
-0.225, -3.015e-6, -1.553e-6, 1.462e-6
-0.226, -3.012e-6, -1.550e-6, 1.462e-6
-0.227, -3.004e-6, -1.547e-6, 1.457e-6
-0.228, -2.999e-6, -1.546e-6, 1.453e-6
-0.229, -2.997e-6, -1.543e-6, 1.454e-6
-0.230, -2.995e-6, -1.544e-6, 1.451e-6
-0.231, -2.992e-6, -1.542e-6, 1.450e-6
-0.232, -2.987e-6, -1.540e-6, 1.448e-6
-0.233, -2.984e-6, -1.539e-6, 1.445e-6
-0.234, -2.984e-6, -1.541e-6, 1.443e-6
-0.235, -2.977e-6, -1.536e-6, 1.441e-6
-0.236, -2.969e-6, -1.532e-6, 1.437e-6
-0.237, -2.968e-6, -1.531e-6, 1.437e-6
-0.238, -2.966e-6, -1.528e-6, 1.438e-6
-0.239, -2.963e-6, -1.532e-6, 1.431e-6
-0.240, -2.960e-6, -1.526e-6, 1.434e-6
-0.241, -2.955e-6, -1.525e-6, 1.430e-6
-0.242, -2.951e-6, -1.525e-6, 1.426e-6
-0.243, -2.948e-6, -1.520e-6, 1.428e-6
-0.244, -2.945e-6, -1.520e-6, 1.425e-6
-0.245, -2.938e-6, -1.520e-6, 1.418e-6
-0.246, -2.937e-6, -1.519e-6, 1.418e-6
-0.247, -2.929e-6, -1.512e-6, 1.417e-6
-0.248, -2.929e-6, -1.516e-6, 1.413e-6
-0.249, -2.922e-6, -1.510e-6, 1.413e-6
-0.250, -2.923e-6, -1.511e-6, 1.412e-6
-0.251, -2.921e-6, -1.515e-6, 1.406e-6
-0.252, -2.921e-6, -1.512e-6, 1.409e-6
-0.253, -2.911e-6, -1.507e-6, 1.404e-6
-0.254, -2.908e-6, -1.507e-6, 1.401e-6
-0.255, -2.903e-6, -1.504e-6, 1.399e-6
-0.256, -2.901e-6, -1.502e-6, 1.399e-6
-0.257, -2.903e-6, -1.508e-6, 1.395e-6
-0.258, -2.894e-6, -1.501e-6, 1.394e-6
-0.259, -2.892e-6, -1.500e-6, 1.392e-6
-0.260, -2.889e-6, -1.499e-6, 1.390e-6
-0.261, -2.885e-6, -1.496e-6, 1.390e-6
-0.262, -2.878e-6, -1.493e-6, 1.386e-6
-0.263, -2.881e-6, -1.499e-6, 1.382e-6
-0.264, -2.874e-6, -1.493e-6, 1.381e-6
-0.265, -2.871e-6, -1.490e-6, 1.380e-6
-0.266, -2.874e-6, -1.495e-6, 1.379e-6
-0.267, -2.869e-6, -1.492e-6, 1.378e-6
-0.268, -2.867e-6, -1.491e-6, 1.376e-6
-0.269, -2.861e-6, -1.489e-6, 1.372e-6
-0.270, -2.863e-6, -1.493e-6, 1.370e-6
-0.271, -2.855e-6, -1.486e-6, 1.369e-6
-0.272, -2.856e-6, -1.488e-6, 1.369e-6
-0.273, -2.855e-6, -1.491e-6, 1.364e-6
-0.274, -2.848e-6, -1.486e-6, 1.362e-6
-0.275, -2.848e-6, -1.485e-6, 1.362e-6
-0.276, -2.843e-6, -1.485e-6, 1.359e-6
-0.277, -2.841e-6, -1.483e-6, 1.358e-6
-0.278, -2.843e-6, -1.484e-6, 1.359e-6
-0.279, -2.833e-6, -1.480e-6, 1.353e-6
-0.280, -2.835e-6, -1.483e-6, 1.352e-6
-0.281, -2.831e-6, -1.482e-6, 1.349e-6
-0.282, -2.830e-6, -1.482e-6, 1.348e-6
-0.283, -2.826e-6, -1.479e-6, 1.347e-6
-0.284, -2.821e-6, -1.477e-6, 1.344e-6
-0.285, -2.822e-6, -1.479e-6, 1.342e-6
-0.286, -2.815e-6, -1.475e-6, 1.340e-6
-0.287, -2.811e-6, -1.472e-6, 1.339e-6
-0.288, -2.810e-6, -1.476e-6, 1.334e-6
-0.289, -2.811e-6, -1.474e-6, 1.336e-6
-0.290, -2.810e-6, -1.475e-6, 1.334e-6
-0.291, -2.801e-6, -1.470e-6, 1.331e-6
-0.292, -2.806e-6, -1.474e-6, 1.332e-6
-0.293, -2.801e-6, -1.472e-6, 1.329e-6
-0.294, -2.799e-6, -1.474e-6, 1.325e-6
-0.295, -2.797e-6, -1.471e-6, 1.326e-6
-0.296, -2.798e-6, -1.473e-6, 1.325e-6
-0.297, -2.792e-6, -1.474e-6, 1.318e-6
-0.298, -2.788e-6, -1.468e-6, 1.321e-6
-0.299, -2.789e-6, -1.472e-6, 1.317e-6
-0.300, -2.783e-6, -1.470e-6, 1.313e-6
-0.301, -2.781e-6, -1.465e-6, 1.315e-6
-0.302, -2.776e-6, -1.464e-6, 1.312e-6
-0.303, -2.780e-6, -1.470e-6, 1.310e-6
-0.304, -2.774e-6, -1.463e-6, 1.311e-6
-0.305, -2.770e-6, -1.465e-6, 1.305e-6
-0.306, -2.770e-6, -1.466e-6, 1.304e-6
-0.307, -2.771e-6, -1.466e-6, 1.305e-6
-0.308, -2.768e-6, -1.467e-6, 1.301e-6
-0.309, -2.767e-6, -1.469e-6, 1.297e-6
-0.310, -2.762e-6, -1.462e-6, 1.300e-6
-0.311, -2.763e-6, -1.466e-6, 1.297e-6
-0.312, -2.761e-6, -1.467e-6, 1.294e-6
-0.313, -2.761e-6, -1.466e-6, 1.295e-6
-0.314, -2.756e-6, -1.466e-6, 1.290e-6
-0.315, -2.756e-6, -1.465e-6, 1.290e-6
-0.316, -2.752e-6, -1.461e-6, 1.292e-6
-0.317, -2.752e-6, -1.465e-6, 1.286e-6
-0.318, -2.754e-6, -1.468e-6, 1.286e-6
-0.319, -2.748e-6, -1.461e-6, 1.287e-6
-0.320, -2.745e-6, -1.463e-6, 1.282e-6
-0.321, -2.745e-6, -1.465e-6, 1.280e-6
-0.322, -2.742e-6, -1.462e-6, 1.280e-6
-0.323, -2.737e-6, -1.461e-6, 1.276e-6
-0.324, -2.738e-6, -1.461e-6, 1.277e-6
-0.325, -2.733e-6, -1.459e-6, 1.274e-6
-0.326, -2.733e-6, -1.461e-6, 1.272e-6
-0.327, -2.733e-6, -1.462e-6, 1.271e-6
-0.328, -2.730e-6, -1.461e-6, 1.268e-6
-0.329, -2.726e-6, -1.459e-6, 1.267e-6
-0.330, -2.725e-6, -1.459e-6, 1.266e-6
-0.331, -2.722e-6, -1.458e-6, 1.264e-6
-0.332, -2.723e-6, -1.460e-6, 1.263e-6
-0.333, -2.721e-6, -1.460e-6, 1.261e-6
-0.334, -2.723e-6, -1.461e-6, 1.262e-6
-0.335, -2.720e-6, -1.460e-6, 1.260e-6
-0.336, -2.716e-6, -1.460e-6, 1.256e-6
-0.337, -2.716e-6, -1.461e-6, 1.254e-6
-0.338, -2.714e-6, -1.457e-6, 1.257e-6
-0.339, -2.714e-6, -1.461e-6, 1.254e-6
-0.340, -2.713e-6, -1.461e-6, 1.252e-6
-0.341, -2.716e-6, -1.463e-6, 1.253e-6
-0.342, -2.711e-6, -1.462e-6, 1.250e-6
-0.343, -2.711e-6, -1.462e-6, 1.249e-6
-0.344, -2.712e-6, -1.463e-6, 1.249e-6
-0.345, -2.705e-6, -1.461e-6, 1.245e-6
-0.346, -2.705e-6, -1.462e-6, 1.243e-6
-0.347, -2.705e-6, -1.461e-6, 1.243e-6
-0.348, -2.704e-6, -1.464e-6, 1.241e-6
-0.349, -2.699e-6, -1.460e-6, 1.239e-6
-0.350, -2.704e-6, -1.462e-6, 1.241e-6
-0.351, -2.701e-6, -1.464e-6, 1.237e-6
-0.352, -2.699e-6, -1.464e-6, 1.235e-6
-0.353, -2.697e-6, -1.460e-6, 1.237e-6
-0.354, -2.697e-6, -1.464e-6, 1.232e-6
-0.355, -2.698e-6, -1.466e-6, 1.232e-6
-0.356, -2.691e-6, -1.459e-6, 1.232e-6
-0.357, -2.689e-6, -1.461e-6, 1.228e-6
-0.358, -2.695e-6, -1.466e-6, 1.229e-6
-0.359, -2.693e-6, -1.464e-6, 1.229e-6
-0.360, -2.689e-6, -1.465e-6, 1.225e-6
-0.361, -2.693e-6, -1.465e-6, 1.227e-6
-0.362, -2.686e-6, -1.462e-6, 1.225e-6
-0.363, -2.688e-6, -1.467e-6, 1.221e-6
-0.364, -2.690e-6, -1.466e-6, 1.224e-6
-0.365, -2.685e-6, -1.463e-6, 1.222e-6
-0.366, -2.686e-6, -1.467e-6, 1.219e-6
-0.367, -2.693e-6, -1.472e-6, 1.221e-6
-0.368, -2.684e-6, -1.466e-6, 1.218e-6
-0.369, -2.685e-6, -1.468e-6, 1.217e-6
-0.370, -2.689e-6, -1.472e-6, 1.218e-6
-0.371, -2.681e-6, -1.465e-6, 1.216e-6
-0.372, -2.686e-6, -1.474e-6, 1.212e-6
-0.373, -2.684e-6, -1.471e-6, 1.214e-6
-0.374, -2.682e-6, -1.472e-6, 1.210e-6
-0.375, -2.680e-6, -1.471e-6, 1.209e-6
-0.376, -2.681e-6, -1.472e-6, 1.210e-6
-0.377, -2.679e-6, -1.471e-6, 1.208e-6
-0.378, -2.681e-6, -1.475e-6, 1.205e-6
-0.379, -2.684e-6, -1.478e-6, 1.207e-6
-0.380, -2.680e-6, -1.476e-6, 1.204e-6
-0.381, -2.680e-6, -1.478e-6, 1.202e-6
-0.382, -2.677e-6, -1.473e-6, 1.203e-6
-0.383, -2.675e-6, -1.475e-6, 1.200e-6
-0.384, -2.675e-6, -1.475e-6, 1.200e-6
-0.385, -2.678e-6, -1.480e-6, 1.198e-6
-0.386, -2.680e-6, -1.481e-6, 1.199e-6
-0.387, -2.678e-6, -1.482e-6, 1.197e-6
-0.388, -2.677e-6, -1.481e-6, 1.196e-6
-0.389, -2.675e-6, -1.481e-6, 1.194e-6
-0.390, -2.677e-6, -1.483e-6, 1.193e-6
-0.391, -2.676e-6, -1.482e-6, 1.194e-6
-0.392, -2.678e-6, -1.485e-6, 1.193e-6
-0.393, -2.679e-6, -1.486e-6, 1.193e-6
-0.394, -2.675e-6, -1.486e-6, 1.189e-6
-0.395, -2.679e-6, -1.489e-6, 1.190e-6
-0.396, -2.678e-6, -1.487e-6, 1.190e-6
-0.397, -2.672e-6, -1.486e-6, 1.185e-6
-0.398, -2.675e-6, -1.489e-6, 1.186e-6
-0.399, -2.680e-6, -1.494e-6, 1.186e-6
-0.400, -2.673e-6, -1.490e-6, 1.184e-6
