Feb. 28, 2018   15:06:26
Square Wave Voltammetry
File: c:\users\electrochemist\desktop\2018\28022018_unbuffered_9,2\65_e1_9,2_0118_ph9,98_4.txt
Data Source:  Experiment
Instrument Model:  CHI1040A
Header: 
Note: 

Init E (V) = 0.5
Final E (V) = -0.1
Incr E (V) = 0.001
Amplitude (V) = 0.1
Frequency (Hz) = 150
Quiet Time (sec) = 0
Sensitivity (A/V) = 1e-6

Difference:

Forward:

Reverse:

Potential/V, Diff(i/A), For(i/A), Rev(i/A)

0.499, -5.801e-7, -1.209e-7, 4.592e-7
0.498, -6.485e-7, -2.527e-7, 3.957e-7
0.497, -6.332e-7, -2.631e-7, 3.701e-7
0.496, -6.253e-7, -2.692e-7, 3.561e-7
0.495, -6.186e-7, -2.713e-7, 3.472e-7
0.494, -6.091e-7, -2.716e-7, 3.375e-7
0.493, -6.048e-7, -2.747e-7, 3.301e-7
0.492, -6.006e-7, -2.741e-7, 3.265e-7
0.491, -5.948e-7, -2.732e-7, 3.216e-7
0.490, -5.926e-7, -2.762e-7, 3.164e-7
0.489, -5.899e-7, -2.750e-7, 3.149e-7
0.488, -5.859e-7, -2.747e-7, 3.112e-7
0.487, -5.835e-7, -2.762e-7, 3.072e-7
0.486, -5.838e-7, -2.765e-7, 3.072e-7
0.485, -5.795e-7, -2.750e-7, 3.045e-7
0.484, -5.783e-7, -2.762e-7, 3.021e-7
0.483, -5.767e-7, -2.765e-7, 3.002e-7
0.482, -5.731e-7, -2.750e-7, 2.981e-7
0.481, -5.728e-7, -2.768e-7, 2.960e-7
0.480, -5.713e-7, -2.759e-7, 2.953e-7
0.479, -5.682e-7, -2.744e-7, 2.938e-7
0.478, -5.667e-7, -2.762e-7, 2.905e-7
0.477, -5.658e-7, -2.747e-7, 2.911e-7
0.476, -5.633e-7, -2.747e-7, 2.886e-7
0.475, -5.618e-7, -2.744e-7, 2.874e-7
0.474, -5.621e-7, -2.741e-7, 2.880e-7
0.473, -5.600e-7, -2.753e-7, 2.847e-7
0.472, -5.603e-7, -2.762e-7, 2.841e-7
0.471, -5.578e-7, -2.741e-7, 2.837e-7
0.470, -5.563e-7, -2.732e-7, 2.831e-7
0.469, -5.557e-7, -2.750e-7, 2.807e-7
0.468, -5.557e-7, -2.744e-7, 2.813e-7
0.467, -5.539e-7, -2.735e-7, 2.804e-7
0.466, -5.539e-7, -2.744e-7, 2.795e-7
0.465, -5.533e-7, -2.735e-7, 2.798e-7
0.464, -5.511e-7, -2.735e-7, 2.776e-7
0.463, -5.529e-7, -2.747e-7, 2.783e-7
0.462, -5.502e-7, -2.735e-7, 2.767e-7
0.461, -5.478e-7, -2.726e-7, 2.752e-7
0.460, -5.478e-7, -2.735e-7, 2.743e-7
0.459, -5.487e-7, -2.738e-7, 2.749e-7
0.458, -5.450e-7, -2.719e-7, 2.731e-7
0.457, -5.471e-7, -2.750e-7, 2.722e-7
0.456, -5.468e-7, -2.738e-7, 2.731e-7
0.455, -5.432e-7, -2.723e-7, 2.709e-7
0.454, -5.444e-7, -2.732e-7, 2.712e-7
0.453, -5.435e-7, -2.726e-7, 2.709e-7
0.452, -5.407e-7, -2.716e-7, 2.691e-7
0.451, -5.435e-7, -2.741e-7, 2.694e-7
0.450, -5.435e-7, -2.729e-7, 2.706e-7
0.449, -5.417e-7, -2.723e-7, 2.694e-7
0.448, -5.407e-7, -2.729e-7, 2.679e-7
0.447, -5.389e-7, -2.710e-7, 2.679e-7
0.446, -5.389e-7, -2.713e-7, 2.676e-7
0.445, -5.377e-7, -2.719e-7, 2.657e-7
0.444, -5.392e-7, -2.723e-7, 2.670e-7
0.443, -5.377e-7, -2.716e-7, 2.660e-7
0.442, -5.386e-7, -2.729e-7, 2.657e-7
0.441, -5.383e-7, -2.732e-7, 2.651e-7
0.440, -5.362e-7, -2.713e-7, 2.648e-7
0.439, -5.368e-7, -2.726e-7, 2.642e-7
0.438, -5.362e-7, -2.716e-7, 2.645e-7
0.437, -5.352e-7, -2.719e-7, 2.633e-7
0.436, -5.349e-7, -2.719e-7, 2.630e-7
0.435, -5.343e-7, -2.719e-7, 2.624e-7
0.434, -5.337e-7, -2.710e-7, 2.627e-7
0.433, -5.331e-7, -2.719e-7, 2.612e-7
0.432, -5.325e-7, -2.704e-7, 2.621e-7
0.431, -5.319e-7, -2.704e-7, 2.615e-7
0.430, -5.319e-7, -2.707e-7, 2.612e-7
0.429, -5.310e-7, -2.701e-7, 2.609e-7
0.428, -5.301e-7, -2.695e-7, 2.606e-7
0.427, -5.298e-7, -2.710e-7, 2.587e-7
0.426, -5.310e-7, -2.704e-7, 2.606e-7
0.425, -5.288e-7, -2.698e-7, 2.590e-7
0.424, -5.304e-7, -2.716e-7, 2.587e-7
0.423, -5.304e-7, -2.707e-7, 2.596e-7
0.422, -5.295e-7, -2.713e-7, 2.581e-7
0.421, -5.304e-7, -2.719e-7, 2.584e-7
0.420, -5.291e-7, -2.710e-7, 2.581e-7
0.419, -5.276e-7, -2.698e-7, 2.578e-7
0.418, -5.282e-7, -2.710e-7, 2.572e-7
0.417, -5.288e-7, -2.713e-7, 2.575e-7
0.416, -5.282e-7, -2.707e-7, 2.575e-7
0.415, -5.270e-7, -2.713e-7, 2.557e-7
0.414, -5.285e-7, -2.710e-7, 2.575e-7
0.413, -5.255e-7, -2.698e-7, 2.557e-7
0.412, -5.273e-7, -2.707e-7, 2.566e-7
0.411, -5.267e-7, -2.698e-7, 2.569e-7
0.410, -5.252e-7, -2.707e-7, 2.545e-7
0.409, -5.267e-7, -2.707e-7, 2.560e-7
0.408, -5.258e-7, -2.698e-7, 2.560e-7
0.407, -5.233e-7, -2.692e-7, 2.541e-7
0.406, -5.261e-7, -2.716e-7, 2.545e-7
0.405, -5.255e-7, -2.704e-7, 2.551e-7
0.404, -5.249e-7, -2.704e-7, 2.545e-7
0.403, -5.252e-7, -2.701e-7, 2.551e-7
0.402, -5.261e-7, -2.713e-7, 2.548e-7
0.401, -5.243e-7, -2.701e-7, 2.541e-7
0.400, -5.233e-7, -2.701e-7, 2.532e-7
0.399, -5.252e-7, -2.710e-7, 2.541e-7
0.398, -5.246e-7, -2.710e-7, 2.535e-7
0.397, -5.249e-7, -2.723e-7, 2.526e-7
0.396, -5.237e-7, -2.707e-7, 2.529e-7
0.395, -5.224e-7, -2.701e-7, 2.523e-7
0.394, -5.243e-7, -2.701e-7, 2.541e-7
0.393, -5.227e-7, -2.698e-7, 2.529e-7
0.392, -5.249e-7, -2.716e-7, 2.532e-7
0.391, -5.237e-7, -2.710e-7, 2.526e-7
0.390, -5.230e-7, -2.698e-7, 2.532e-7
0.389, -5.233e-7, -2.704e-7, 2.529e-7
0.388, -5.237e-7, -2.710e-7, 2.526e-7
0.387, -5.218e-7, -2.698e-7, 2.520e-7
0.386, -5.209e-7, -2.695e-7, 2.514e-7
0.385, -5.233e-7, -2.716e-7, 2.517e-7
0.384, -5.227e-7, -2.704e-7, 2.523e-7
0.383, -5.221e-7, -2.707e-7, 2.514e-7
0.382, -5.224e-7, -2.713e-7, 2.511e-7
0.381, -5.215e-7, -2.707e-7, 2.508e-7
0.380, -5.221e-7, -2.710e-7, 2.511e-7
0.379, -5.206e-7, -2.707e-7, 2.499e-7
0.378, -5.212e-7, -2.701e-7, 2.511e-7
0.377, -5.197e-7, -2.698e-7, 2.499e-7
0.376, -5.224e-7, -2.716e-7, 2.508e-7
0.375, -5.215e-7, -2.707e-7, 2.508e-7
0.374, -5.206e-7, -2.710e-7, 2.496e-7
0.373, -5.218e-7, -2.713e-7, 2.505e-7
0.372, -5.212e-7, -2.707e-7, 2.505e-7
0.371, -5.212e-7, -2.713e-7, 2.499e-7
0.370, -5.227e-7, -2.719e-7, 2.508e-7
0.369, -5.221e-7, -2.713e-7, 2.508e-7
0.368, -5.206e-7, -2.707e-7, 2.499e-7
0.367, -5.212e-7, -2.713e-7, 2.499e-7
0.366, -5.215e-7, -2.723e-7, 2.493e-7
0.365, -5.215e-7, -2.719e-7, 2.496e-7
0.364, -5.209e-7, -2.713e-7, 2.496e-7
0.363, -5.224e-7, -2.726e-7, 2.499e-7
0.362, -5.209e-7, -2.713e-7, 2.496e-7
0.361, -5.218e-7, -2.726e-7, 2.493e-7
0.360, -5.203e-7, -2.719e-7, 2.483e-7
0.359, -5.197e-7, -2.723e-7, 2.474e-7
0.358, -5.230e-7, -2.735e-7, 2.496e-7
0.357, -5.203e-7, -2.713e-7, 2.490e-7
0.356, -5.200e-7, -2.723e-7, 2.477e-7
0.355, -5.221e-7, -2.729e-7, 2.493e-7
0.354, -5.215e-7, -2.726e-7, 2.490e-7
0.353, -5.191e-7, -2.726e-7, 2.465e-7
0.352, -5.209e-7, -2.723e-7, 2.487e-7
0.351, -5.224e-7, -2.738e-7, 2.487e-7
0.350, -5.224e-7, -2.738e-7, 2.487e-7
0.349, -5.209e-7, -2.729e-7, 2.480e-7
0.348, -5.212e-7, -2.741e-7, 2.471e-7
0.347, -5.218e-7, -2.741e-7, 2.477e-7
0.346, -5.221e-7, -2.738e-7, 2.483e-7
0.345, -5.224e-7, -2.747e-7, 2.477e-7
0.344, -5.218e-7, -2.741e-7, 2.477e-7
0.343, -5.209e-7, -2.738e-7, 2.471e-7
0.342, -5.230e-7, -2.744e-7, 2.487e-7
0.341, -5.203e-7, -2.729e-7, 2.474e-7
0.340, -5.215e-7, -2.741e-7, 2.474e-7
0.339, -5.209e-7, -2.738e-7, 2.471e-7
0.338, -5.230e-7, -2.750e-7, 2.480e-7
0.337, -5.227e-7, -2.753e-7, 2.474e-7
0.336, -5.218e-7, -2.738e-7, 2.480e-7
0.335, -5.237e-7, -2.750e-7, 2.487e-7
0.334, -5.230e-7, -2.762e-7, 2.468e-7
0.333, -5.224e-7, -2.756e-7, 2.468e-7
0.332, -5.230e-7, -2.750e-7, 2.480e-7
0.331, -5.224e-7, -2.750e-7, 2.474e-7
0.330, -5.237e-7, -2.759e-7, 2.477e-7
0.329, -5.230e-7, -2.762e-7, 2.468e-7
0.328, -5.233e-7, -2.759e-7, 2.474e-7
0.327, -5.243e-7, -2.765e-7, 2.477e-7
0.326, -5.233e-7, -2.771e-7, 2.462e-7
0.325, -5.252e-7, -2.768e-7, 2.483e-7
0.324, -5.243e-7, -2.774e-7, 2.468e-7
0.323, -5.233e-7, -2.768e-7, 2.465e-7
0.322, -5.240e-7, -2.774e-7, 2.465e-7
0.321, -5.252e-7, -2.781e-7, 2.471e-7
0.320, -5.252e-7, -2.777e-7, 2.474e-7
0.319, -5.255e-7, -2.774e-7, 2.480e-7
0.318, -5.249e-7, -2.781e-7, 2.468e-7
0.317, -5.252e-7, -2.787e-7, 2.465e-7
0.316, -5.258e-7, -2.787e-7, 2.471e-7
0.315, -5.252e-7, -2.781e-7, 2.471e-7
0.314, -5.258e-7, -2.787e-7, 2.471e-7
0.313, -5.267e-7, -2.796e-7, 2.471e-7
0.312, -5.261e-7, -2.796e-7, 2.465e-7
0.311, -5.270e-7, -2.799e-7, 2.471e-7
0.310, -5.273e-7, -2.796e-7, 2.477e-7
0.309, -5.258e-7, -2.790e-7, 2.468e-7
0.308, -5.267e-7, -2.802e-7, 2.465e-7
0.307, -5.282e-7, -2.805e-7, 2.477e-7
0.306, -5.276e-7, -2.805e-7, 2.471e-7
0.305, -5.273e-7, -2.805e-7, 2.468e-7
0.304, -5.276e-7, -2.808e-7, 2.468e-7
0.303, -5.288e-7, -2.808e-7, 2.480e-7
0.302, -5.276e-7, -2.820e-7, 2.456e-7
0.301, -5.282e-7, -2.814e-7, 2.468e-7
0.300, -5.295e-7, -2.820e-7, 2.474e-7
0.299, -5.291e-7, -2.823e-7, 2.468e-7
0.298, -5.301e-7, -2.823e-7, 2.477e-7
0.297, -5.310e-7, -2.835e-7, 2.474e-7
0.296, -5.288e-7, -2.820e-7, 2.468e-7
0.295, -5.298e-7, -2.823e-7, 2.474e-7
0.294, -5.307e-7, -2.829e-7, 2.477e-7
0.293, -5.301e-7, -2.826e-7, 2.474e-7
0.292, -5.319e-7, -2.835e-7, 2.483e-7
0.291, -5.304e-7, -2.838e-7, 2.465e-7
0.290, -5.313e-7, -2.842e-7, 2.471e-7
0.289, -5.331e-7, -2.845e-7, 2.487e-7
0.288, -5.304e-7, -2.835e-7, 2.468e-7
0.287, -5.337e-7, -2.863e-7, 2.474e-7
0.286, -5.328e-7, -2.851e-7, 2.477e-7
0.285, -5.331e-7, -2.860e-7, 2.471e-7
0.284, -5.356e-7, -2.872e-7, 2.483e-7
0.283, -5.337e-7, -2.854e-7, 2.483e-7
0.282, -5.331e-7, -2.866e-7, 2.465e-7
0.281, -5.356e-7, -2.872e-7, 2.483e-7
0.280, -5.356e-7, -2.866e-7, 2.490e-7
0.279, -5.356e-7, -2.869e-7, 2.487e-7
0.278, -5.349e-7, -2.875e-7, 2.474e-7
0.277, -5.368e-7, -2.881e-7, 2.487e-7
0.276, -5.365e-7, -2.881e-7, 2.483e-7
0.275, -5.383e-7, -2.893e-7, 2.490e-7
0.274, -5.362e-7, -2.881e-7, 2.480e-7
0.273, -5.362e-7, -2.875e-7, 2.487e-7
0.272, -5.380e-7, -2.890e-7, 2.490e-7
0.271, -5.401e-7, -2.900e-7, 2.502e-7
0.270, -5.365e-7, -2.887e-7, 2.477e-7
0.269, -5.383e-7, -2.909e-7, 2.474e-7
0.268, -5.392e-7, -2.900e-7, 2.493e-7
0.267, -5.386e-7, -2.896e-7, 2.490e-7
0.266, -5.414e-7, -2.918e-7, 2.496e-7
0.265, -5.401e-7, -2.909e-7, 2.493e-7
0.264, -5.398e-7, -2.912e-7, 2.487e-7
0.263, -5.420e-7, -2.918e-7, 2.502e-7
0.262, -5.423e-7, -2.921e-7, 2.502e-7
0.261, -5.429e-7, -2.927e-7, 2.502e-7
0.260, -5.441e-7, -2.933e-7, 2.508e-7
0.259, -5.429e-7, -2.918e-7, 2.511e-7
0.258, -5.429e-7, -2.930e-7, 2.499e-7
0.257, -5.441e-7, -2.933e-7, 2.508e-7
0.256, -5.432e-7, -2.930e-7, 2.502e-7
0.255, -5.435e-7, -2.936e-7, 2.499e-7
0.254, -5.456e-7, -2.951e-7, 2.505e-7
0.253, -5.456e-7, -2.948e-7, 2.508e-7
0.252, -5.447e-7, -2.942e-7, 2.505e-7
0.251, -5.484e-7, -2.964e-7, 2.520e-7
0.250, -5.453e-7, -2.945e-7, 2.508e-7
0.249, -5.453e-7, -2.942e-7, 2.511e-7
0.248, -5.490e-7, -2.967e-7, 2.523e-7
0.247, -5.490e-7, -2.970e-7, 2.520e-7
0.246, -5.487e-7, -2.973e-7, 2.514e-7
0.245, -5.471e-7, -2.961e-7, 2.511e-7
0.244, -5.496e-7, -2.979e-7, 2.517e-7
0.243, -5.490e-7, -2.976e-7, 2.514e-7
0.242, -5.511e-7, -2.982e-7, 2.529e-7
0.241, -5.502e-7, -2.982e-7, 2.520e-7
0.240, -5.502e-7, -2.988e-7, 2.514e-7
0.239, -5.517e-7, -2.997e-7, 2.520e-7
0.238, -5.526e-7, -2.982e-7, 2.544e-7
0.237, -5.539e-7, -3.000e-7, 2.538e-7
0.236, -5.523e-7, -3.000e-7, 2.523e-7
0.235, -5.554e-7, -3.015e-7, 2.538e-7
0.234, -5.548e-7, -3.012e-7, 2.535e-7
0.233, -5.551e-7, -3.022e-7, 2.529e-7
0.232, -5.560e-7, -3.012e-7, 2.548e-7
0.231, -5.557e-7, -3.022e-7, 2.535e-7
0.230, -5.566e-7, -3.022e-7, 2.544e-7
0.229, -5.575e-7, -3.028e-7, 2.548e-7
0.228, -5.584e-7, -3.037e-7, 2.548e-7
0.227, -5.594e-7, -3.046e-7, 2.548e-7
0.226, -5.609e-7, -3.046e-7, 2.563e-7
0.225, -5.603e-7, -3.049e-7, 2.554e-7
0.224, -5.594e-7, -3.052e-7, 2.541e-7
0.223, -5.606e-7, -3.052e-7, 2.554e-7
0.222, -5.615e-7, -3.061e-7, 2.554e-7
0.221, -5.624e-7, -3.058e-7, 2.566e-7
0.220, -5.636e-7, -3.070e-7, 2.566e-7
0.219, -5.645e-7, -3.077e-7, 2.569e-7
0.218, -5.648e-7, -3.083e-7, 2.566e-7
0.217, -5.636e-7, -3.070e-7, 2.566e-7
0.216, -5.661e-7, -3.092e-7, 2.569e-7
0.215, -5.658e-7, -3.080e-7, 2.578e-7
0.214, -5.667e-7, -3.092e-7, 2.575e-7
0.213, -5.667e-7, -3.095e-7, 2.572e-7
0.212, -5.682e-7, -3.101e-7, 2.581e-7
0.211, -5.676e-7, -3.098e-7, 2.578e-7
0.210, -5.694e-7, -3.107e-7, 2.587e-7
0.209, -5.700e-7, -3.119e-7, 2.581e-7
0.208, -5.697e-7, -3.104e-7, 2.593e-7
0.207, -5.719e-7, -3.122e-7, 2.596e-7
0.206, -5.728e-7, -3.125e-7, 2.602e-7
0.205, -5.710e-7, -3.119e-7, 2.590e-7
0.204, -5.706e-7, -3.119e-7, 2.587e-7
0.203, -5.746e-7, -3.138e-7, 2.609e-7
0.202, -5.731e-7, -3.135e-7, 2.596e-7
0.201, -5.740e-7, -3.144e-7, 2.596e-7
0.200, -5.737e-7, -3.138e-7, 2.599e-7
0.199, -5.771e-7, -3.156e-7, 2.615e-7
0.198, -5.767e-7, -3.162e-7, 2.606e-7
0.197, -5.774e-7, -3.159e-7, 2.615e-7
0.196, -5.786e-7, -3.165e-7, 2.621e-7
0.195, -5.774e-7, -3.165e-7, 2.609e-7
0.194, -5.807e-7, -3.180e-7, 2.627e-7
0.193, -5.798e-7, -3.174e-7, 2.624e-7
0.192, -5.807e-7, -3.183e-7, 2.624e-7
0.191, -5.832e-7, -3.196e-7, 2.636e-7
0.190, -5.829e-7, -3.196e-7, 2.633e-7
0.189, -5.835e-7, -3.205e-7, 2.630e-7
0.188, -5.841e-7, -3.192e-7, 2.648e-7
0.187, -5.844e-7, -3.202e-7, 2.642e-7
0.186, -5.859e-7, -3.223e-7, 2.636e-7
0.185, -5.865e-7, -3.214e-7, 2.651e-7
0.184, -5.871e-7, -3.220e-7, 2.651e-7
0.183, -5.893e-7, -3.238e-7, 2.654e-7
0.182, -5.896e-7, -3.232e-7, 2.664e-7
0.181, -5.877e-7, -3.223e-7, 2.654e-7
0.180, -5.890e-7, -3.235e-7, 2.654e-7
0.179, -5.893e-7, -3.238e-7, 2.654e-7
0.178, -5.908e-7, -3.244e-7, 2.664e-7
0.177, -5.926e-7, -3.254e-7, 2.673e-7
0.176, -5.935e-7, -3.257e-7, 2.679e-7
0.175, -5.935e-7, -3.260e-7, 2.676e-7
0.174, -5.944e-7, -3.269e-7, 2.676e-7
0.173, -5.954e-7, -3.269e-7, 2.685e-7
0.172, -5.954e-7, -3.281e-7, 2.673e-7
0.171, -5.966e-7, -3.287e-7, 2.679e-7
0.170, -5.981e-7, -3.275e-7, 2.706e-7
0.169, -5.978e-7, -3.281e-7, 2.697e-7
0.168, -5.999e-7, -3.302e-7, 2.697e-7
0.167, -6.015e-7, -3.308e-7, 2.706e-7
0.166, -6.012e-7, -3.312e-7, 2.700e-7
0.165, -6.036e-7, -3.324e-7, 2.712e-7
0.164, -6.042e-7, -3.318e-7, 2.725e-7
0.163, -6.024e-7, -3.312e-7, 2.712e-7
0.162, -6.054e-7, -3.336e-7, 2.718e-7
0.161, -6.070e-7, -3.333e-7, 2.737e-7
0.160, -6.054e-7, -3.342e-7, 2.712e-7
0.159, -6.063e-7, -3.336e-7, 2.728e-7
0.158, -6.085e-7, -3.348e-7, 2.737e-7
0.157, -6.091e-7, -3.354e-7, 2.737e-7
0.156, -6.100e-7, -3.366e-7, 2.734e-7
0.155, -6.115e-7, -3.363e-7, 2.752e-7
0.154, -6.115e-7, -3.379e-7, 2.737e-7
0.153, -6.125e-7, -3.382e-7, 2.743e-7
0.152, -6.158e-7, -3.391e-7, 2.767e-7
0.151, -6.131e-7, -3.382e-7, 2.749e-7
0.150, -6.158e-7, -3.397e-7, 2.761e-7
0.149, -6.173e-7, -3.406e-7, 2.767e-7
0.148, -6.167e-7, -3.406e-7, 2.761e-7
0.147, -6.192e-7, -3.418e-7, 2.773e-7
0.146, -6.195e-7, -3.412e-7, 2.783e-7
0.145, -6.183e-7, -3.418e-7, 2.764e-7
0.144, -6.219e-7, -3.437e-7, 2.783e-7
0.143, -6.216e-7, -3.427e-7, 2.789e-7
0.142, -6.231e-7, -3.443e-7, 2.789e-7
0.141, -6.240e-7, -3.452e-7, 2.789e-7
0.140, -6.250e-7, -3.449e-7, 2.801e-7
0.139, -6.265e-7, -3.467e-7, 2.798e-7
0.138, -6.277e-7, -3.476e-7, 2.801e-7
0.137, -6.289e-7, -3.473e-7, 2.816e-7
0.136, -6.283e-7, -3.476e-7, 2.807e-7
0.135, -6.308e-7, -3.492e-7, 2.816e-7
0.134, -6.314e-7, -3.482e-7, 2.831e-7
0.133, -6.320e-7, -3.495e-7, 2.825e-7
0.132, -6.326e-7, -3.510e-7, 2.816e-7
0.131, -6.341e-7, -3.501e-7, 2.840e-7
0.130, -6.350e-7, -3.519e-7, 2.831e-7
0.129, -6.372e-7, -3.540e-7, 2.831e-7
0.128, -6.387e-7, -3.525e-7, 2.862e-7
0.127, -6.375e-7, -3.531e-7, 2.844e-7
0.126, -6.402e-7, -3.550e-7, 2.853e-7
0.125, -6.402e-7, -3.537e-7, 2.865e-7
0.124, -6.417e-7, -3.565e-7, 2.853e-7
0.123, -6.427e-7, -3.571e-7, 2.856e-7
0.122, -6.445e-7, -3.565e-7, 2.880e-7
0.121, -6.445e-7, -3.574e-7, 2.871e-7
0.120, -6.479e-7, -3.595e-7, 2.883e-7
0.119, -6.482e-7, -3.580e-7, 2.902e-7
0.118, -6.488e-7, -3.604e-7, 2.883e-7
0.117, -6.524e-7, -3.626e-7, 2.898e-7
0.116, -6.521e-7, -3.614e-7, 2.908e-7
0.115, -6.518e-7, -3.617e-7, 2.902e-7
0.114, -6.536e-7, -3.629e-7, 2.908e-7
0.113, -6.540e-7, -3.617e-7, 2.923e-7
0.112, -6.561e-7, -3.638e-7, 2.923e-7
0.111, -6.570e-7, -3.647e-7, 2.923e-7
0.110, -6.582e-7, -3.653e-7, 2.929e-7
0.109, -6.582e-7, -3.647e-7, 2.935e-7
0.108, -6.601e-7, -3.662e-7, 2.938e-7
0.107, -6.607e-7, -3.653e-7, 2.953e-7
0.106, -6.622e-7, -3.684e-7, 2.938e-7
0.105, -6.646e-7, -3.699e-7, 2.947e-7
0.104, -6.668e-7, -3.702e-7, 2.966e-7
0.103, -6.662e-7, -3.699e-7, 2.963e-7
0.102, -6.674e-7, -3.708e-7, 2.966e-7
0.101, -6.677e-7, -3.705e-7, 2.972e-7
0.100, -6.689e-7, -3.727e-7, 2.963e-7
0.099, -6.735e-7, -3.745e-7, 2.990e-7
0.098, -6.713e-7, -3.733e-7, 2.981e-7
0.097, -6.729e-7, -3.748e-7, 2.981e-7
0.096, -6.759e-7, -3.766e-7, 2.993e-7
0.095, -6.787e-7, -3.769e-7, 3.017e-7
0.094, -6.781e-7, -3.778e-7, 3.002e-7
0.093, -6.796e-7, -3.785e-7, 3.011e-7
0.092, -6.802e-7, -3.781e-7, 3.021e-7
0.091, -6.817e-7, -3.800e-7, 3.017e-7
0.090, -6.848e-7, -3.818e-7, 3.030e-7
0.089, -6.854e-7, -3.812e-7, 3.042e-7
0.088, -6.839e-7, -3.815e-7, 3.024e-7
0.087, -6.884e-7, -3.849e-7, 3.036e-7
0.086, -6.881e-7, -3.833e-7, 3.048e-7
0.085, -6.900e-7, -3.855e-7, 3.045e-7
0.084, -6.906e-7, -3.855e-7, 3.051e-7
0.083, -6.939e-7, -3.858e-7, 3.082e-7
0.082, -6.933e-7, -3.870e-7, 3.063e-7
0.081, -6.964e-7, -3.879e-7, 3.085e-7
0.080, -6.961e-7, -3.879e-7, 3.082e-7
0.079, -6.976e-7, -3.894e-7, 3.082e-7
0.078, -6.994e-7, -3.900e-7, 3.094e-7
0.077, -7.003e-7, -3.904e-7, 3.100e-7
0.076, -7.013e-7, -3.916e-7, 3.097e-7
0.075, -7.034e-7, -3.928e-7, 3.106e-7
0.074, -7.064e-7, -3.943e-7, 3.121e-7
0.073, -7.061e-7, -3.946e-7, 3.115e-7
0.072, -7.086e-7, -3.958e-7, 3.127e-7
0.071, -7.080e-7, -3.946e-7, 3.133e-7
0.070, -7.110e-7, -3.971e-7, 3.140e-7
0.069, -7.135e-7, -3.986e-7, 3.149e-7
0.068, -7.128e-7, -3.974e-7, 3.155e-7
0.067, -7.150e-7, -3.998e-7, 3.152e-7
0.066, -7.174e-7, -4.013e-7, 3.161e-7
0.065, -7.180e-7, -4.001e-7, 3.179e-7
0.064, -7.199e-7, -4.029e-7, 3.170e-7
0.063, -7.226e-7, -4.038e-7, 3.188e-7
0.062, -7.226e-7, -4.038e-7, 3.188e-7
0.061, -7.235e-7, -4.047e-7, 3.188e-7
0.060, -7.263e-7, -4.059e-7, 3.204e-7
0.059, -7.269e-7, -4.059e-7, 3.210e-7
0.058, -7.284e-7, -4.074e-7, 3.210e-7
0.057, -7.305e-7, -4.093e-7, 3.213e-7
0.056, -7.327e-7, -4.090e-7, 3.237e-7
0.055, -7.324e-7, -4.099e-7, 3.225e-7
0.054, -7.357e-7, -4.105e-7, 3.252e-7
0.053, -7.370e-7, -4.114e-7, 3.255e-7
0.052, -7.376e-7, -4.126e-7, 3.249e-7
0.051, -7.394e-7, -4.145e-7, 3.249e-7
0.050, -7.412e-7, -4.138e-7, 3.274e-7
0.049, -7.421e-7, -4.160e-7, 3.262e-7
0.048, -7.461e-7, -4.172e-7, 3.289e-7
0.047, -7.446e-7, -4.160e-7, 3.286e-7
0.046, -7.479e-7, -4.190e-7, 3.289e-7
0.045, -7.507e-7, -4.203e-7, 3.304e-7
0.044, -7.513e-7, -4.200e-7, 3.313e-7
0.043, -7.522e-7, -4.209e-7, 3.313e-7
0.042, -7.550e-7, -4.224e-7, 3.326e-7
0.041, -7.562e-7, -4.221e-7, 3.341e-7
0.040, -7.571e-7, -4.242e-7, 3.329e-7
0.039, -7.592e-7, -4.242e-7, 3.350e-7
0.038, -7.589e-7, -4.236e-7, 3.353e-7
0.037, -7.620e-7, -4.264e-7, 3.356e-7
0.036, -7.650e-7, -4.279e-7, 3.371e-7
0.035, -7.656e-7, -4.279e-7, 3.378e-7
0.034, -7.650e-7, -4.276e-7, 3.375e-7
0.033, -7.711e-7, -4.306e-7, 3.405e-7
0.032, -7.693e-7, -4.294e-7, 3.399e-7
0.031, -7.721e-7, -4.315e-7, 3.405e-7
0.030, -7.745e-7, -4.328e-7, 3.417e-7
0.029, -7.748e-7, -4.331e-7, 3.417e-7
0.028, -7.754e-7, -4.337e-7, 3.417e-7
0.027, -7.785e-7, -4.352e-7, 3.432e-7
0.026, -7.782e-7, -4.352e-7, 3.429e-7
0.025, -7.824e-7, -4.373e-7, 3.451e-7
0.024, -7.836e-7, -4.380e-7, 3.457e-7
0.023, -7.827e-7, -4.367e-7, 3.460e-7
0.022, -7.879e-7, -4.410e-7, 3.469e-7
0.021, -7.876e-7, -4.398e-7, 3.478e-7
0.020, -7.885e-7, -4.404e-7, 3.481e-7
0.019, -7.913e-7, -4.422e-7, 3.490e-7
0.018, -7.919e-7, -4.431e-7, 3.487e-7
0.017, -7.946e-7, -4.431e-7, 3.515e-7
0.016, -7.959e-7, -4.450e-7, 3.509e-7
0.015, -7.986e-7, -4.459e-7, 3.527e-7
0.014, -7.995e-7, -4.459e-7, 3.536e-7
0.013, -8.010e-7, -4.474e-7, 3.536e-7
0.012, -8.044e-7, -4.492e-7, 3.551e-7
0.011, -8.026e-7, -4.471e-7, 3.555e-7
0.010, -8.065e-7, -4.502e-7, 3.564e-7
0.009, -8.074e-7, -4.505e-7, 3.570e-7
0.008, -8.093e-7, -4.511e-7, 3.582e-7
0.007, -8.111e-7, -4.520e-7, 3.591e-7
0.006, -8.129e-7, -4.532e-7, 3.597e-7
0.005, -8.139e-7, -4.523e-7, 3.616e-7
0.004, -8.172e-7, -4.560e-7, 3.613e-7
0.003, -8.181e-7, -4.557e-7, 3.625e-7
0.002, -8.197e-7, -4.560e-7, 3.637e-7
0.001, -8.190e-7, -4.572e-7, 3.619e-7
-0.000, -8.215e-7, -4.563e-7, 3.652e-7
-0.001, -8.248e-7, -4.587e-7, 3.661e-7
-0.002, -8.255e-7, -4.590e-7, 3.664e-7
-0.003, -8.261e-7, -4.593e-7, 3.667e-7
-0.004, -8.285e-7, -4.605e-7, 3.680e-7
-0.005, -8.322e-7, -4.627e-7, 3.695e-7
-0.006, -8.328e-7, -4.624e-7, 3.704e-7
-0.007, -8.337e-7, -4.627e-7, 3.710e-7
-0.008, -8.346e-7, -4.639e-7, 3.707e-7
-0.009, -8.367e-7, -4.645e-7, 3.722e-7
-0.010, -8.377e-7, -4.648e-7, 3.728e-7
-0.011, -8.401e-7, -4.663e-7, 3.738e-7
-0.012, -8.416e-7, -4.666e-7, 3.750e-7
-0.013, -8.428e-7, -4.669e-7, 3.759e-7
-0.014, -8.438e-7, -4.676e-7, 3.762e-7
-0.015, -8.465e-7, -4.688e-7, 3.777e-7
-0.016, -8.462e-7, -4.682e-7, 3.780e-7
-0.017, -8.486e-7, -4.703e-7, 3.783e-7
-0.018, -8.493e-7, -4.703e-7, 3.790e-7
-0.019, -8.508e-7, -4.703e-7, 3.805e-7
-0.020, -8.538e-7, -4.718e-7, 3.820e-7
-0.021, -8.514e-7, -4.706e-7, 3.808e-7
-0.022, -8.557e-7, -4.724e-7, 3.832e-7
-0.023, -8.560e-7, -4.737e-7, 3.823e-7
-0.024, -8.572e-7, -4.740e-7, 3.832e-7
-0.025, -8.599e-7, -4.746e-7, 3.854e-7
-0.026, -8.615e-7, -4.755e-7, 3.860e-7
-0.027, -8.621e-7, -4.752e-7, 3.869e-7
-0.028, -8.633e-7, -4.758e-7, 3.875e-7
-0.029, -8.642e-7, -4.770e-7, 3.872e-7
-0.030, -8.666e-7, -4.779e-7, 3.887e-7
-0.031, -8.688e-7, -4.782e-7, 3.905e-7
-0.032, -8.697e-7, -4.788e-7, 3.909e-7
-0.033, -8.676e-7, -4.776e-7, 3.899e-7
-0.034, -8.715e-7, -4.798e-7, 3.918e-7
-0.035, -8.746e-7, -4.816e-7, 3.930e-7
-0.036, -8.743e-7, -4.804e-7, 3.939e-7
-0.037, -8.749e-7, -4.816e-7, 3.933e-7
-0.038, -8.767e-7, -4.822e-7, 3.945e-7
-0.039, -8.776e-7, -4.816e-7, 3.960e-7
-0.040, -8.801e-7, -4.828e-7, 3.973e-7
-0.041, -8.819e-7, -4.837e-7, 3.982e-7
-0.042, -8.819e-7, -4.828e-7, 3.991e-7
-0.043, -8.831e-7, -4.843e-7, 3.988e-7
-0.044, -8.840e-7, -4.843e-7, 3.997e-7
-0.045, -8.853e-7, -4.840e-7, 4.012e-7
-0.046, -8.877e-7, -4.859e-7, 4.018e-7
-0.047, -8.871e-7, -4.859e-7, 4.012e-7
-0.048, -8.877e-7, -4.859e-7, 4.018e-7
-0.049, -8.905e-7, -4.862e-7, 4.043e-7
-0.050, -8.901e-7, -4.865e-7, 4.037e-7
-0.051, -8.917e-7, -4.868e-7, 4.049e-7
-0.052, -8.923e-7, -4.868e-7, 4.055e-7
-0.053, -8.944e-7, -4.880e-7, 4.064e-7
-0.054, -8.962e-7, -4.889e-7, 4.073e-7
-0.055, -8.956e-7, -4.883e-7, 4.073e-7
-0.056, -8.972e-7, -4.883e-7, 4.089e-7
-0.057, -8.987e-7, -4.892e-7, 4.095e-7
-0.058, -8.987e-7, -4.889e-7, 4.098e-7
-0.059, -8.996e-7, -4.892e-7, 4.104e-7
-0.060, -9.011e-7, -4.889e-7, 4.122e-7
-0.061, -9.008e-7, -4.901e-7, 4.107e-7
-0.062, -9.042e-7, -4.907e-7, 4.134e-7
-0.063, -9.051e-7, -4.911e-7, 4.140e-7
-0.064, -9.066e-7, -4.914e-7, 4.153e-7
-0.065, -9.045e-7, -4.901e-7, 4.143e-7
-0.066, -9.057e-7, -4.904e-7, 4.153e-7
-0.067, -9.069e-7, -4.911e-7, 4.159e-7
-0.068, -9.072e-7, -4.907e-7, 4.165e-7
-0.069, -9.078e-7, -4.904e-7, 4.174e-7
-0.070, -9.097e-7, -4.917e-7, 4.180e-7
-0.071, -9.112e-7, -4.923e-7, 4.189e-7
-0.072, -9.106e-7, -4.917e-7, 4.189e-7
-0.073, -9.112e-7, -4.917e-7, 4.195e-7
-0.074, -9.118e-7, -4.917e-7, 4.201e-7
-0.075, -9.130e-7, -4.929e-7, 4.201e-7
-0.076, -9.149e-7, -4.929e-7, 4.220e-7
-0.077, -9.143e-7, -4.926e-7, 4.217e-7
-0.078, -9.149e-7, -4.929e-7, 4.220e-7
-0.079, -9.152e-7, -4.920e-7, 4.232e-7
-0.080, -9.161e-7, -4.917e-7, 4.244e-7
-0.081, -9.179e-7, -4.929e-7, 4.250e-7
-0.082, -9.182e-7, -4.935e-7, 4.247e-7
-0.083, -9.188e-7, -4.932e-7, 4.256e-7
-0.084, -9.194e-7, -4.932e-7, 4.263e-7
-0.085, -9.194e-7, -4.929e-7, 4.266e-7
-0.086, -9.201e-7, -4.935e-7, 4.266e-7
-0.087, -9.207e-7, -4.920e-7, 4.287e-7
-0.088, -9.216e-7, -4.938e-7, 4.278e-7
-0.089, -9.213e-7, -4.932e-7, 4.281e-7
-0.090, -9.234e-7, -4.932e-7, 4.302e-7
-0.091, -9.228e-7, -4.929e-7, 4.299e-7
-0.092, -9.237e-7, -4.929e-7, 4.308e-7
-0.093, -9.228e-7, -4.923e-7, 4.305e-7
-0.094, -9.234e-7, -4.926e-7, 4.308e-7
-0.095, -9.252e-7, -4.929e-7, 4.324e-7
-0.096, -9.237e-7, -4.923e-7, 4.314e-7
-0.097, -9.252e-7, -4.923e-7, 4.330e-7
-0.098, -9.243e-7, -4.917e-7, 4.327e-7
-0.099, -9.255e-7, -4.914e-7, 4.342e-7
-0.100, -9.271e-7, -4.929e-7, 4.342e-7
