Feb. 28, 2018   15:07:33
Square Wave Voltammetry
File: c:\users\electrochemist\desktop\2018\28022018_unbuffered_9,2\65_e2_9,2_0118_ph9,98_4.txt
Data Source:  Experiment
Instrument Model:  CHI1040A
Header: 
Note: 

Init E (V) = 0.5
Final E (V) = -0.1
Incr E (V) = 0.001
Amplitude (V) = 0.1
Frequency (Hz) = 150
Quiet Time (sec) = 0
Sensitivity (A/V) = 1e-6

Difference:

Forward:

Reverse:

Potential/V, Diff(i/A), For(i/A), Rev(i/A)

0.499, -5.133e-7, -1.032e-7, 4.101e-7
0.498, -5.575e-7, -2.091e-7, 3.484e-7
0.497, -5.429e-7, -2.176e-7, 3.252e-7
0.496, -5.328e-7, -2.234e-7, 3.094e-7
0.495, -5.230e-7, -2.240e-7, 2.990e-7
0.494, -5.185e-7, -2.265e-7, 2.920e-7
0.493, -5.121e-7, -2.268e-7, 2.853e-7
0.492, -5.069e-7, -2.259e-7, 2.810e-7
0.491, -5.023e-7, -2.271e-7, 2.752e-7
0.490, -5.023e-7, -2.292e-7, 2.731e-7
0.489, -4.983e-7, -2.289e-7, 2.694e-7
0.488, -4.968e-7, -2.289e-7, 2.679e-7
0.487, -4.937e-7, -2.304e-7, 2.633e-7
0.486, -4.892e-7, -2.280e-7, 2.612e-7
0.485, -4.886e-7, -2.298e-7, 2.587e-7
0.484, -4.886e-7, -2.308e-7, 2.578e-7
0.483, -4.855e-7, -2.289e-7, 2.566e-7
0.482, -4.855e-7, -2.301e-7, 2.554e-7
0.481, -4.825e-7, -2.314e-7, 2.511e-7
0.480, -4.818e-7, -2.301e-7, 2.517e-7
0.479, -4.773e-7, -2.292e-7, 2.480e-7
0.478, -4.788e-7, -2.314e-7, 2.474e-7
0.477, -4.764e-7, -2.292e-7, 2.471e-7
0.476, -4.760e-7, -2.304e-7, 2.456e-7
0.475, -4.724e-7, -2.298e-7, 2.426e-7
0.474, -4.730e-7, -2.283e-7, 2.447e-7
0.473, -4.715e-7, -2.295e-7, 2.419e-7
0.472, -4.721e-7, -2.311e-7, 2.410e-7
0.471, -4.709e-7, -2.298e-7, 2.410e-7
0.470, -4.681e-7, -2.292e-7, 2.389e-7
0.469, -4.675e-7, -2.298e-7, 2.377e-7
0.468, -4.681e-7, -2.295e-7, 2.386e-7
0.467, -4.651e-7, -2.289e-7, 2.361e-7
0.466, -4.651e-7, -2.289e-7, 2.361e-7
0.465, -4.663e-7, -2.301e-7, 2.361e-7
0.464, -4.645e-7, -2.295e-7, 2.349e-7
0.463, -4.654e-7, -2.311e-7, 2.343e-7
0.462, -4.648e-7, -2.295e-7, 2.352e-7
0.461, -4.626e-7, -2.301e-7, 2.325e-7
0.460, -4.629e-7, -2.311e-7, 2.319e-7
0.459, -4.599e-7, -2.283e-7, 2.316e-7
0.458, -4.587e-7, -2.289e-7, 2.297e-7
0.457, -4.602e-7, -2.292e-7, 2.310e-7
0.456, -4.602e-7, -2.292e-7, 2.310e-7
0.455, -4.568e-7, -2.286e-7, 2.282e-7
0.454, -4.571e-7, -2.292e-7, 2.279e-7
0.453, -4.577e-7, -2.286e-7, 2.291e-7
0.452, -4.577e-7, -2.289e-7, 2.288e-7
0.451, -4.559e-7, -2.292e-7, 2.267e-7
0.450, -4.580e-7, -2.295e-7, 2.285e-7
0.449, -4.568e-7, -2.298e-7, 2.270e-7
0.448, -4.559e-7, -2.292e-7, 2.267e-7
0.447, -4.550e-7, -2.286e-7, 2.264e-7
0.446, -4.541e-7, -2.295e-7, 2.245e-7
0.445, -4.538e-7, -2.304e-7, 2.233e-7
0.444, -4.535e-7, -2.283e-7, 2.252e-7
0.443, -4.532e-7, -2.295e-7, 2.236e-7
0.442, -4.516e-7, -2.286e-7, 2.230e-7
0.441, -4.535e-7, -2.289e-7, 2.245e-7
0.440, -4.529e-7, -2.292e-7, 2.236e-7
0.439, -4.526e-7, -2.295e-7, 2.230e-7
0.438, -4.516e-7, -2.286e-7, 2.230e-7
0.437, -4.519e-7, -2.295e-7, 2.224e-7
0.436, -4.504e-7, -2.298e-7, 2.206e-7
0.435, -4.513e-7, -2.298e-7, 2.215e-7
0.434, -4.489e-7, -2.289e-7, 2.200e-7
0.433, -4.498e-7, -2.298e-7, 2.200e-7
0.432, -4.495e-7, -2.298e-7, 2.197e-7
0.431, -4.498e-7, -2.301e-7, 2.197e-7
0.430, -4.510e-7, -2.304e-7, 2.206e-7
0.429, -4.495e-7, -2.298e-7, 2.197e-7
0.428, -4.501e-7, -2.304e-7, 2.197e-7
0.427, -4.486e-7, -2.298e-7, 2.187e-7
0.426, -4.480e-7, -2.292e-7, 2.187e-7
0.425, -4.480e-7, -2.301e-7, 2.178e-7
0.424, -4.471e-7, -2.308e-7, 2.163e-7
0.423, -4.474e-7, -2.298e-7, 2.175e-7
0.422, -4.464e-7, -2.292e-7, 2.172e-7
0.421, -4.489e-7, -2.308e-7, 2.181e-7
0.420, -4.477e-7, -2.295e-7, 2.181e-7
0.419, -4.474e-7, -2.295e-7, 2.178e-7
0.418, -4.471e-7, -2.308e-7, 2.163e-7
0.417, -4.464e-7, -2.301e-7, 2.163e-7
0.416, -4.458e-7, -2.298e-7, 2.160e-7
0.415, -4.474e-7, -2.311e-7, 2.163e-7
0.414, -4.483e-7, -2.311e-7, 2.172e-7
0.413, -4.464e-7, -2.301e-7, 2.163e-7
0.412, -4.461e-7, -2.308e-7, 2.154e-7
0.411, -4.471e-7, -2.308e-7, 2.163e-7
0.410, -4.468e-7, -2.308e-7, 2.160e-7
0.409, -4.468e-7, -2.314e-7, 2.154e-7
0.408, -4.474e-7, -2.314e-7, 2.160e-7
0.407, -4.455e-7, -2.304e-7, 2.151e-7
0.406, -4.461e-7, -2.311e-7, 2.151e-7
0.405, -4.455e-7, -2.304e-7, 2.151e-7
0.404, -4.458e-7, -2.308e-7, 2.151e-7
0.403, -4.461e-7, -2.317e-7, 2.145e-7
0.402, -4.464e-7, -2.314e-7, 2.151e-7
0.401, -4.458e-7, -2.323e-7, 2.136e-7
0.400, -4.468e-7, -2.320e-7, 2.148e-7
0.399, -4.471e-7, -2.320e-7, 2.151e-7
0.398, -4.458e-7, -2.323e-7, 2.136e-7
0.397, -4.452e-7, -2.320e-7, 2.133e-7
0.396, -4.461e-7, -2.323e-7, 2.139e-7
0.395, -4.449e-7, -2.323e-7, 2.126e-7
0.394, -4.483e-7, -2.338e-7, 2.145e-7
0.393, -4.477e-7, -2.332e-7, 2.145e-7
0.392, -4.468e-7, -2.323e-7, 2.145e-7
0.391, -4.464e-7, -2.332e-7, 2.133e-7
0.390, -4.458e-7, -2.332e-7, 2.126e-7
0.389, -4.461e-7, -2.326e-7, 2.136e-7
0.388, -4.461e-7, -2.338e-7, 2.123e-7
0.387, -4.471e-7, -2.335e-7, 2.136e-7
0.386, -4.477e-7, -2.344e-7, 2.133e-7
0.385, -4.480e-7, -2.347e-7, 2.133e-7
0.384, -4.452e-7, -2.329e-7, 2.123e-7
0.383, -4.455e-7, -2.332e-7, 2.123e-7
0.382, -4.464e-7, -2.347e-7, 2.117e-7
0.381, -4.471e-7, -2.338e-7, 2.133e-7
0.380, -4.486e-7, -2.356e-7, 2.129e-7
0.379, -4.464e-7, -2.353e-7, 2.111e-7
0.378, -4.468e-7, -2.338e-7, 2.129e-7
0.377, -4.468e-7, -2.350e-7, 2.117e-7
0.376, -4.474e-7, -2.353e-7, 2.120e-7
0.375, -4.461e-7, -2.338e-7, 2.123e-7
0.374, -4.480e-7, -2.350e-7, 2.129e-7
0.373, -4.489e-7, -2.362e-7, 2.126e-7
0.372, -4.483e-7, -2.359e-7, 2.123e-7
0.371, -4.486e-7, -2.362e-7, 2.123e-7
0.370, -4.498e-7, -2.372e-7, 2.126e-7
0.369, -4.480e-7, -2.350e-7, 2.129e-7
0.368, -4.492e-7, -2.369e-7, 2.123e-7
0.367, -4.492e-7, -2.369e-7, 2.123e-7
0.366, -4.474e-7, -2.356e-7, 2.117e-7
0.365, -4.468e-7, -2.350e-7, 2.117e-7
0.364, -4.513e-7, -2.375e-7, 2.139e-7
0.363, -4.489e-7, -2.362e-7, 2.126e-7
0.362, -4.495e-7, -2.378e-7, 2.117e-7
0.361, -4.513e-7, -2.384e-7, 2.129e-7
0.360, -4.507e-7, -2.381e-7, 2.126e-7
0.359, -4.495e-7, -2.378e-7, 2.117e-7
0.358, -4.526e-7, -2.396e-7, 2.129e-7
0.357, -4.507e-7, -2.381e-7, 2.126e-7
0.356, -4.510e-7, -2.387e-7, 2.123e-7
0.355, -4.519e-7, -2.390e-7, 2.129e-7
0.354, -4.513e-7, -2.384e-7, 2.129e-7
0.353, -4.516e-7, -2.390e-7, 2.126e-7
0.352, -4.519e-7, -2.396e-7, 2.123e-7
0.351, -4.504e-7, -2.390e-7, 2.114e-7
0.350, -4.526e-7, -2.402e-7, 2.123e-7
0.349, -4.541e-7, -2.411e-7, 2.129e-7
0.348, -4.535e-7, -2.402e-7, 2.133e-7
0.347, -4.526e-7, -2.411e-7, 2.114e-7
0.346, -4.522e-7, -2.402e-7, 2.120e-7
0.345, -4.547e-7, -2.411e-7, 2.136e-7
0.344, -4.538e-7, -2.411e-7, 2.126e-7
0.343, -4.550e-7, -2.423e-7, 2.126e-7
0.342, -4.553e-7, -2.423e-7, 2.129e-7
0.341, -4.538e-7, -2.411e-7, 2.126e-7
0.340, -4.568e-7, -2.427e-7, 2.142e-7
0.339, -4.541e-7, -2.417e-7, 2.123e-7
0.338, -4.562e-7, -2.427e-7, 2.136e-7
0.337, -4.565e-7, -2.430e-7, 2.136e-7
0.336, -4.565e-7, -2.430e-7, 2.136e-7
0.335, -4.559e-7, -2.433e-7, 2.126e-7
0.334, -4.562e-7, -2.433e-7, 2.129e-7
0.333, -4.596e-7, -2.445e-7, 2.151e-7
0.332, -4.571e-7, -2.448e-7, 2.123e-7
0.331, -4.574e-7, -2.448e-7, 2.126e-7
0.330, -4.577e-7, -2.439e-7, 2.139e-7
0.329, -4.583e-7, -2.442e-7, 2.142e-7
0.328, -4.577e-7, -2.448e-7, 2.129e-7
0.327, -4.599e-7, -2.454e-7, 2.145e-7
0.326, -4.574e-7, -2.454e-7, 2.120e-7
0.325, -4.605e-7, -2.466e-7, 2.139e-7
0.324, -4.596e-7, -2.454e-7, 2.142e-7
0.323, -4.608e-7, -2.469e-7, 2.139e-7
0.322, -4.605e-7, -2.457e-7, 2.148e-7
0.321, -4.605e-7, -2.469e-7, 2.136e-7
0.320, -4.608e-7, -2.475e-7, 2.133e-7
0.319, -4.626e-7, -2.475e-7, 2.151e-7
0.318, -4.620e-7, -2.478e-7, 2.142e-7
0.317, -4.626e-7, -2.485e-7, 2.142e-7
0.316, -4.641e-7, -2.488e-7, 2.154e-7
0.315, -4.623e-7, -2.481e-7, 2.142e-7
0.314, -4.629e-7, -2.488e-7, 2.142e-7
0.313, -4.641e-7, -2.503e-7, 2.139e-7
0.312, -4.648e-7, -2.497e-7, 2.151e-7
0.311, -4.660e-7, -2.500e-7, 2.160e-7
0.310, -4.660e-7, -2.509e-7, 2.151e-7
0.309, -4.657e-7, -2.506e-7, 2.151e-7
0.308, -4.660e-7, -2.515e-7, 2.145e-7
0.307, -4.657e-7, -2.512e-7, 2.145e-7
0.306, -4.678e-7, -2.521e-7, 2.157e-7
0.305, -4.660e-7, -2.515e-7, 2.145e-7
0.304, -4.699e-7, -2.536e-7, 2.163e-7
0.303, -4.687e-7, -2.524e-7, 2.163e-7
0.302, -4.684e-7, -2.521e-7, 2.163e-7
0.301, -4.693e-7, -2.533e-7, 2.160e-7
0.300, -4.709e-7, -2.530e-7, 2.178e-7
0.299, -4.696e-7, -2.536e-7, 2.160e-7
0.298, -4.715e-7, -2.552e-7, 2.163e-7
0.297, -4.715e-7, -2.546e-7, 2.169e-7
0.296, -4.718e-7, -2.549e-7, 2.169e-7
0.295, -4.730e-7, -2.564e-7, 2.166e-7
0.294, -4.745e-7, -2.573e-7, 2.172e-7
0.293, -4.718e-7, -2.552e-7, 2.166e-7
0.292, -4.733e-7, -2.564e-7, 2.169e-7
0.291, -4.742e-7, -2.564e-7, 2.178e-7
0.290, -4.742e-7, -2.570e-7, 2.172e-7
0.289, -4.745e-7, -2.573e-7, 2.172e-7
0.288, -4.764e-7, -2.573e-7, 2.191e-7
0.287, -4.760e-7, -2.576e-7, 2.184e-7
0.286, -4.767e-7, -2.582e-7, 2.184e-7
0.285, -4.770e-7, -2.588e-7, 2.181e-7
0.284, -4.779e-7, -2.597e-7, 2.181e-7
0.283, -4.794e-7, -2.610e-7, 2.184e-7
0.282, -4.797e-7, -2.604e-7, 2.194e-7
0.281, -4.794e-7, -2.613e-7, 2.181e-7
0.280, -4.815e-7, -2.622e-7, 2.194e-7
0.279, -4.806e-7, -2.610e-7, 2.197e-7
0.278, -4.815e-7, -2.625e-7, 2.191e-7
0.277, -4.815e-7, -2.613e-7, 2.203e-7
0.276, -4.822e-7, -2.625e-7, 2.197e-7
0.275, -4.825e-7, -2.628e-7, 2.197e-7
0.274, -4.837e-7, -2.634e-7, 2.203e-7
0.273, -4.843e-7, -2.637e-7, 2.206e-7
0.272, -4.837e-7, -2.640e-7, 2.197e-7
0.271, -4.861e-7, -2.643e-7, 2.218e-7
0.270, -4.855e-7, -2.646e-7, 2.209e-7
0.269, -4.864e-7, -2.652e-7, 2.212e-7
0.268, -4.858e-7, -2.652e-7, 2.206e-7
0.267, -4.867e-7, -2.649e-7, 2.218e-7
0.266, -4.892e-7, -2.671e-7, 2.221e-7
0.265, -4.898e-7, -2.668e-7, 2.230e-7
0.264, -4.904e-7, -2.671e-7, 2.233e-7
0.263, -4.892e-7, -2.665e-7, 2.227e-7
0.262, -4.904e-7, -2.680e-7, 2.224e-7
0.261, -4.913e-7, -2.683e-7, 2.230e-7
0.260, -4.913e-7, -2.692e-7, 2.221e-7
0.259, -4.931e-7, -2.698e-7, 2.233e-7
0.258, -4.922e-7, -2.683e-7, 2.239e-7
0.257, -4.931e-7, -2.695e-7, 2.236e-7
0.256, -4.965e-7, -2.716e-7, 2.248e-7
0.255, -4.950e-7, -2.698e-7, 2.252e-7
0.254, -4.937e-7, -2.704e-7, 2.233e-7
0.253, -4.968e-7, -2.723e-7, 2.245e-7
0.252, -4.977e-7, -2.729e-7, 2.248e-7
0.251, -4.977e-7, -2.738e-7, 2.239e-7
0.250, -5.005e-7, -2.744e-7, 2.261e-7
0.249, -5.008e-7, -2.738e-7, 2.270e-7
0.248, -4.992e-7, -2.747e-7, 2.245e-7
0.247, -5.014e-7, -2.753e-7, 2.261e-7
0.246, -5.008e-7, -2.744e-7, 2.264e-7
0.245, -4.992e-7, -2.744e-7, 2.248e-7
0.244, -5.038e-7, -2.762e-7, 2.276e-7
0.243, -5.041e-7, -2.762e-7, 2.279e-7
0.242, -5.035e-7, -2.762e-7, 2.273e-7
0.241, -5.060e-7, -2.774e-7, 2.285e-7
0.240, -5.075e-7, -2.784e-7, 2.291e-7
0.239, -5.081e-7, -2.790e-7, 2.291e-7
0.238, -5.078e-7, -2.784e-7, 2.294e-7
0.237, -5.075e-7, -2.793e-7, 2.282e-7
0.236, -5.081e-7, -2.799e-7, 2.282e-7
0.235, -5.118e-7, -2.817e-7, 2.300e-7
0.234, -5.108e-7, -2.805e-7, 2.303e-7
0.233, -5.127e-7, -2.823e-7, 2.303e-7
0.232, -5.127e-7, -2.829e-7, 2.297e-7
0.231, -5.105e-7, -2.814e-7, 2.291e-7
0.230, -5.121e-7, -2.820e-7, 2.300e-7
0.229, -5.154e-7, -2.845e-7, 2.310e-7
0.228, -5.154e-7, -2.835e-7, 2.319e-7
0.227, -5.169e-7, -2.848e-7, 2.322e-7
0.226, -5.182e-7, -2.857e-7, 2.325e-7
0.225, -5.191e-7, -2.857e-7, 2.334e-7
0.224, -5.179e-7, -2.860e-7, 2.319e-7
0.223, -5.197e-7, -2.869e-7, 2.328e-7
0.222, -5.212e-7, -2.875e-7, 2.337e-7
0.221, -5.215e-7, -2.881e-7, 2.334e-7
0.220, -5.227e-7, -2.881e-7, 2.346e-7
0.219, -5.221e-7, -2.881e-7, 2.340e-7
0.218, -5.237e-7, -2.890e-7, 2.346e-7
0.217, -5.255e-7, -2.903e-7, 2.352e-7
0.216, -5.249e-7, -2.887e-7, 2.361e-7
0.215, -5.261e-7, -2.915e-7, 2.346e-7
0.214, -5.270e-7, -2.909e-7, 2.361e-7
0.213, -5.279e-7, -2.909e-7, 2.371e-7
0.212, -5.295e-7, -2.921e-7, 2.374e-7
0.211, -5.288e-7, -2.924e-7, 2.364e-7
0.210, -5.310e-7, -2.933e-7, 2.377e-7
0.209, -5.325e-7, -2.945e-7, 2.380e-7
0.208, -5.328e-7, -2.951e-7, 2.377e-7
0.207, -5.325e-7, -2.948e-7, 2.377e-7
0.206, -5.346e-7, -2.961e-7, 2.386e-7
0.205, -5.349e-7, -2.958e-7, 2.392e-7
0.204, -5.371e-7, -2.970e-7, 2.401e-7
0.203, -5.374e-7, -2.970e-7, 2.404e-7
0.202, -5.383e-7, -2.979e-7, 2.404e-7
0.201, -5.383e-7, -2.970e-7, 2.413e-7
0.200, -5.395e-7, -2.988e-7, 2.407e-7
0.199, -5.407e-7, -2.997e-7, 2.410e-7
0.198, -5.414e-7, -3.000e-7, 2.413e-7
0.197, -5.414e-7, -3.000e-7, 2.413e-7
0.196, -5.444e-7, -3.022e-7, 2.422e-7
0.195, -5.444e-7, -3.015e-7, 2.429e-7
0.194, -5.453e-7, -3.022e-7, 2.432e-7
0.193, -5.468e-7, -3.043e-7, 2.425e-7
0.192, -5.478e-7, -3.031e-7, 2.447e-7
0.191, -5.475e-7, -3.043e-7, 2.432e-7
0.190, -5.490e-7, -3.049e-7, 2.441e-7
0.189, -5.499e-7, -3.049e-7, 2.450e-7
0.188, -5.517e-7, -3.058e-7, 2.459e-7
0.187, -5.529e-7, -3.058e-7, 2.471e-7
0.186, -5.526e-7, -3.061e-7, 2.465e-7
0.185, -5.533e-7, -3.073e-7, 2.459e-7
0.184, -5.548e-7, -3.086e-7, 2.462e-7
0.183, -5.557e-7, -3.086e-7, 2.471e-7
0.182, -5.563e-7, -3.095e-7, 2.468e-7
0.181, -5.587e-7, -3.107e-7, 2.480e-7
0.180, -5.587e-7, -3.098e-7, 2.490e-7
0.179, -5.603e-7, -3.113e-7, 2.490e-7
0.178, -5.624e-7, -3.128e-7, 2.496e-7
0.177, -5.636e-7, -3.135e-7, 2.502e-7
0.176, -5.627e-7, -3.128e-7, 2.499e-7
0.175, -5.652e-7, -3.147e-7, 2.505e-7
0.174, -5.664e-7, -3.150e-7, 2.514e-7
0.173, -5.670e-7, -3.153e-7, 2.517e-7
0.172, -5.685e-7, -3.162e-7, 2.523e-7
0.171, -5.691e-7, -3.156e-7, 2.535e-7
0.170, -5.703e-7, -3.171e-7, 2.532e-7
0.169, -5.728e-7, -3.183e-7, 2.544e-7
0.168, -5.734e-7, -3.192e-7, 2.541e-7
0.167, -5.734e-7, -3.199e-7, 2.535e-7
0.166, -5.746e-7, -3.192e-7, 2.554e-7
0.165, -5.777e-7, -3.211e-7, 2.566e-7
0.164, -5.767e-7, -3.217e-7, 2.551e-7
0.163, -5.792e-7, -3.232e-7, 2.560e-7
0.162, -5.789e-7, -3.229e-7, 2.560e-7
0.161, -5.786e-7, -3.223e-7, 2.563e-7
0.160, -5.825e-7, -3.241e-7, 2.584e-7
0.159, -5.825e-7, -3.247e-7, 2.578e-7
0.158, -5.844e-7, -3.263e-7, 2.581e-7
0.157, -5.856e-7, -3.266e-7, 2.590e-7
0.156, -5.862e-7, -3.272e-7, 2.590e-7
0.155, -5.890e-7, -3.284e-7, 2.606e-7
0.154, -5.896e-7, -3.284e-7, 2.612e-7
0.153, -5.896e-7, -3.284e-7, 2.612e-7
0.152, -5.914e-7, -3.299e-7, 2.615e-7
0.151, -5.932e-7, -3.315e-7, 2.618e-7
0.150, -5.938e-7, -3.312e-7, 2.627e-7
0.149, -5.948e-7, -3.327e-7, 2.621e-7
0.148, -5.978e-7, -3.333e-7, 2.645e-7
0.147, -5.987e-7, -3.336e-7, 2.651e-7
0.146, -5.981e-7, -3.339e-7, 2.642e-7
0.145, -5.999e-7, -3.354e-7, 2.645e-7
0.144, -6.002e-7, -3.345e-7, 2.657e-7
0.143, -6.033e-7, -3.376e-7, 2.657e-7
0.142, -6.060e-7, -3.391e-7, 2.670e-7
0.141, -6.057e-7, -3.379e-7, 2.679e-7
0.140, -6.051e-7, -3.385e-7, 2.667e-7
0.139, -6.079e-7, -3.400e-7, 2.679e-7
0.138, -6.076e-7, -3.400e-7, 2.676e-7
0.137, -6.097e-7, -3.415e-7, 2.682e-7
0.136, -6.103e-7, -3.415e-7, 2.688e-7
0.135, -6.143e-7, -3.434e-7, 2.709e-7
0.134, -6.149e-7, -3.443e-7, 2.706e-7
0.133, -6.179e-7, -3.449e-7, 2.731e-7
0.132, -6.195e-7, -3.470e-7, 2.725e-7
0.131, -6.195e-7, -3.476e-7, 2.718e-7
0.130, -6.192e-7, -3.467e-7, 2.725e-7
0.129, -6.213e-7, -3.470e-7, 2.743e-7
0.128, -6.213e-7, -3.488e-7, 2.725e-7
0.127, -6.244e-7, -3.495e-7, 2.749e-7
0.126, -6.262e-7, -3.510e-7, 2.752e-7
0.125, -6.265e-7, -3.516e-7, 2.749e-7
0.124, -6.298e-7, -3.522e-7, 2.776e-7
0.123, -6.308e-7, -3.540e-7, 2.767e-7
0.122, -6.314e-7, -3.546e-7, 2.767e-7
0.121, -6.338e-7, -3.550e-7, 2.789e-7
0.120, -6.344e-7, -3.556e-7, 2.789e-7
0.119, -6.353e-7, -3.568e-7, 2.786e-7
0.118, -6.396e-7, -3.589e-7, 2.807e-7
0.117, -6.396e-7, -3.589e-7, 2.807e-7
0.116, -6.414e-7, -3.604e-7, 2.810e-7
0.115, -6.433e-7, -3.608e-7, 2.825e-7
0.114, -6.448e-7, -3.617e-7, 2.831e-7
0.113, -6.457e-7, -3.620e-7, 2.837e-7
0.112, -6.475e-7, -3.626e-7, 2.850e-7
0.111, -6.500e-7, -3.647e-7, 2.853e-7
0.110, -6.512e-7, -3.659e-7, 2.853e-7
0.109, -6.518e-7, -3.662e-7, 2.856e-7
0.108, -6.518e-7, -3.659e-7, 2.859e-7
0.107, -6.540e-7, -3.672e-7, 2.868e-7
0.106, -6.570e-7, -3.696e-7, 2.874e-7
0.105, -6.591e-7, -3.699e-7, 2.892e-7
0.104, -6.598e-7, -3.720e-7, 2.877e-7
0.103, -6.628e-7, -3.723e-7, 2.905e-7
0.102, -6.649e-7, -3.739e-7, 2.911e-7
0.101, -6.665e-7, -3.754e-7, 2.911e-7
0.100, -6.680e-7, -3.757e-7, 2.923e-7
0.099, -6.686e-7, -3.760e-7, 2.926e-7
0.098, -6.713e-7, -3.781e-7, 2.932e-7
0.097, -6.723e-7, -3.785e-7, 2.938e-7
0.096, -6.735e-7, -3.788e-7, 2.947e-7
0.095, -6.750e-7, -3.800e-7, 2.950e-7
0.094, -6.778e-7, -3.815e-7, 2.963e-7
0.093, -6.781e-7, -3.815e-7, 2.966e-7
0.092, -6.808e-7, -3.830e-7, 2.978e-7
0.091, -6.829e-7, -3.849e-7, 2.981e-7
0.090, -6.839e-7, -3.852e-7, 2.987e-7
0.089, -6.851e-7, -3.870e-7, 2.981e-7
0.088, -6.900e-7, -3.885e-7, 3.014e-7
0.087, -6.900e-7, -3.891e-7, 3.008e-7
0.086, -6.897e-7, -3.891e-7, 3.005e-7
0.085, -6.933e-7, -3.907e-7, 3.027e-7
0.084, -6.948e-7, -3.919e-7, 3.030e-7
0.083, -6.982e-7, -3.940e-7, 3.042e-7
0.082, -6.988e-7, -3.943e-7, 3.045e-7
0.081, -7.009e-7, -3.946e-7, 3.063e-7
0.080, -7.025e-7, -3.977e-7, 3.048e-7
0.079, -7.043e-7, -3.974e-7, 3.069e-7
0.078, -7.055e-7, -3.980e-7, 3.075e-7
0.077, -7.080e-7, -4.004e-7, 3.075e-7
0.076, -7.095e-7, -4.007e-7, 3.088e-7
0.075, -7.116e-7, -4.016e-7, 3.100e-7
0.074, -7.141e-7, -4.035e-7, 3.106e-7
0.073, -7.177e-7, -4.050e-7, 3.127e-7
0.072, -7.180e-7, -4.059e-7, 3.121e-7
0.071, -7.180e-7, -4.065e-7, 3.115e-7
0.070, -7.226e-7, -4.077e-7, 3.149e-7
0.069, -7.257e-7, -4.093e-7, 3.164e-7
0.068, -7.241e-7, -4.102e-7, 3.140e-7
0.067, -7.281e-7, -4.120e-7, 3.161e-7
0.066, -7.318e-7, -4.132e-7, 3.185e-7
0.065, -7.315e-7, -4.135e-7, 3.179e-7
0.064, -7.351e-7, -4.154e-7, 3.198e-7
0.063, -7.360e-7, -4.160e-7, 3.201e-7
0.062, -7.382e-7, -4.181e-7, 3.201e-7
0.061, -7.409e-7, -4.193e-7, 3.216e-7
0.060, -7.421e-7, -4.196e-7, 3.225e-7
0.059, -7.449e-7, -4.218e-7, 3.231e-7
0.058, -7.482e-7, -4.230e-7, 3.252e-7
0.057, -7.486e-7, -4.233e-7, 3.252e-7
0.056, -7.513e-7, -4.248e-7, 3.265e-7
0.055, -7.544e-7, -4.264e-7, 3.280e-7
0.054, -7.537e-7, -4.270e-7, 3.268e-7
0.053, -7.568e-7, -4.282e-7, 3.286e-7
0.052, -7.580e-7, -4.291e-7, 3.289e-7
0.051, -7.601e-7, -4.297e-7, 3.304e-7
0.050, -7.635e-7, -4.325e-7, 3.310e-7
0.049, -7.666e-7, -4.328e-7, 3.338e-7
0.048, -7.666e-7, -4.340e-7, 3.326e-7
0.047, -7.699e-7, -4.355e-7, 3.344e-7
0.046, -7.727e-7, -4.373e-7, 3.353e-7
0.045, -7.736e-7, -4.373e-7, 3.362e-7
0.044, -7.763e-7, -4.392e-7, 3.371e-7
0.043, -7.788e-7, -4.407e-7, 3.381e-7
0.042, -7.794e-7, -4.410e-7, 3.384e-7
0.041, -7.836e-7, -4.431e-7, 3.405e-7
0.040, -7.861e-7, -4.444e-7, 3.417e-7
0.039, -7.867e-7, -4.444e-7, 3.423e-7
0.038, -7.894e-7, -4.465e-7, 3.429e-7
0.037, -7.931e-7, -4.486e-7, 3.445e-7
0.036, -7.952e-7, -4.496e-7, 3.457e-7
0.035, -7.977e-7, -4.517e-7, 3.460e-7
0.034, -7.995e-7, -4.517e-7, 3.478e-7
0.033, -8.017e-7, -4.535e-7, 3.481e-7
0.032, -8.032e-7, -4.544e-7, 3.487e-7
0.031, -8.071e-7, -4.563e-7, 3.509e-7
0.030, -8.068e-7, -4.557e-7, 3.512e-7
0.029, -8.105e-7, -4.581e-7, 3.524e-7
0.028, -8.126e-7, -4.590e-7, 3.536e-7
0.027, -8.154e-7, -4.605e-7, 3.548e-7
0.026, -8.169e-7, -4.618e-7, 3.551e-7
0.025, -8.193e-7, -4.621e-7, 3.573e-7
0.024, -8.215e-7, -4.633e-7, 3.582e-7
0.023, -8.230e-7, -4.660e-7, 3.570e-7
0.022, -8.267e-7, -4.669e-7, 3.597e-7
0.021, -8.255e-7, -4.654e-7, 3.600e-7
0.020, -8.294e-7, -4.688e-7, 3.606e-7
0.019, -8.316e-7, -4.694e-7, 3.622e-7
0.018, -8.334e-7, -4.703e-7, 3.631e-7
0.017, -8.364e-7, -4.721e-7, 3.643e-7
0.016, -8.404e-7, -4.740e-7, 3.664e-7
0.015, -8.416e-7, -4.743e-7, 3.674e-7
0.014, -8.432e-7, -4.749e-7, 3.683e-7
0.013, -8.459e-7, -4.767e-7, 3.692e-7
0.012, -8.493e-7, -4.782e-7, 3.710e-7
0.011, -8.508e-7, -4.788e-7, 3.719e-7
0.010, -8.535e-7, -4.807e-7, 3.728e-7
0.009, -8.544e-7, -4.810e-7, 3.735e-7
0.008, -8.563e-7, -4.822e-7, 3.741e-7
0.007, -8.584e-7, -4.828e-7, 3.756e-7
0.006, -8.605e-7, -4.843e-7, 3.762e-7
0.005, -8.642e-7, -4.862e-7, 3.780e-7
0.004, -8.648e-7, -4.865e-7, 3.783e-7
0.003, -8.676e-7, -4.880e-7, 3.796e-7
0.002, -8.703e-7, -4.895e-7, 3.808e-7
0.001, -8.728e-7, -4.898e-7, 3.829e-7
-0.000, -8.731e-7, -4.901e-7, 3.829e-7
-0.001, -8.767e-7, -4.920e-7, 3.847e-7
-0.002, -8.782e-7, -4.923e-7, 3.860e-7
-0.003, -8.807e-7, -4.944e-7, 3.863e-7
-0.004, -8.819e-7, -4.953e-7, 3.866e-7
-0.005, -8.843e-7, -4.959e-7, 3.884e-7
-0.006, -8.868e-7, -4.975e-7, 3.893e-7
-0.007, -8.901e-7, -4.987e-7, 3.915e-7
-0.008, -8.920e-7, -4.999e-7, 3.921e-7
-0.009, -8.932e-7, -4.999e-7, 3.933e-7
-0.010, -8.969e-7, -5.027e-7, 3.942e-7
-0.011, -8.975e-7, -5.023e-7, 3.951e-7
-0.012, -9.011e-7, -5.036e-7, 3.976e-7
-0.013, -9.020e-7, -5.048e-7, 3.973e-7
-0.014, -9.060e-7, -5.060e-7, 4.000e-7
-0.015, -9.069e-7, -5.063e-7, 4.006e-7
-0.016, -9.091e-7, -5.078e-7, 4.012e-7
-0.017, -9.097e-7, -5.078e-7, 4.018e-7
-0.018, -9.118e-7, -5.084e-7, 4.034e-7
-0.019, -9.152e-7, -5.112e-7, 4.040e-7
-0.020, -9.188e-7, -5.121e-7, 4.067e-7
-0.021, -9.179e-7, -5.106e-7, 4.073e-7
-0.022, -9.201e-7, -5.124e-7, 4.076e-7
-0.023, -9.231e-7, -5.136e-7, 4.095e-7
-0.024, -9.246e-7, -5.146e-7, 4.101e-7
-0.025, -9.246e-7, -5.133e-7, 4.113e-7
-0.026, -9.277e-7, -5.158e-7, 4.119e-7
-0.027, -9.289e-7, -5.164e-7, 4.125e-7
-0.028, -9.307e-7, -5.176e-7, 4.131e-7
-0.029, -9.344e-7, -5.182e-7, 4.162e-7
-0.030, -9.350e-7, -5.188e-7, 4.162e-7
-0.031, -9.378e-7, -5.203e-7, 4.174e-7
-0.032, -9.402e-7, -5.210e-7, 4.192e-7
-0.033, -9.417e-7, -5.213e-7, 4.205e-7
-0.034, -9.426e-7, -5.222e-7, 4.205e-7
-0.035, -9.442e-7, -5.222e-7, 4.220e-7
-0.036, -9.457e-7, -5.231e-7, 4.226e-7
-0.037, -9.493e-7, -5.246e-7, 4.247e-7
-0.038, -9.503e-7, -5.252e-7, 4.250e-7
-0.039, -9.524e-7, -5.255e-7, 4.269e-7
-0.040, -9.536e-7, -5.271e-7, 4.266e-7
-0.041, -9.570e-7, -5.271e-7, 4.299e-7
-0.042, -9.576e-7, -5.280e-7, 4.296e-7
-0.043, -9.594e-7, -5.286e-7, 4.308e-7
-0.044, -9.597e-7, -5.283e-7, 4.314e-7
-0.045, -9.606e-7, -5.286e-7, 4.320e-7
-0.046, -9.631e-7, -5.295e-7, 4.336e-7
-0.047, -9.652e-7, -5.298e-7, 4.354e-7
-0.048, -9.655e-7, -5.295e-7, 4.360e-7
-0.049, -9.698e-7, -5.316e-7, 4.382e-7
-0.050, -9.695e-7, -5.313e-7, 4.382e-7
-0.051, -9.713e-7, -5.319e-7, 4.394e-7
-0.052, -9.731e-7, -5.335e-7, 4.397e-7
-0.053, -9.744e-7, -5.329e-7, 4.415e-7
-0.054, -9.747e-7, -5.329e-7, 4.418e-7
-0.055, -9.777e-7, -5.350e-7, 4.427e-7
-0.056, -9.777e-7, -5.338e-7, 4.439e-7
-0.057, -9.799e-7, -5.347e-7, 4.452e-7
-0.058, -9.805e-7, -5.350e-7, 4.455e-7
-0.059, -9.829e-7, -5.353e-7, 4.476e-7
-0.060, -9.832e-7, -5.353e-7, 4.479e-7
-0.061, -9.841e-7, -5.365e-7, 4.476e-7
-0.062, -9.866e-7, -5.362e-7, 4.504e-7
-0.063, -9.872e-7, -5.371e-7, 4.501e-7
-0.064, -9.899e-7, -5.380e-7, 4.519e-7
-0.065, -9.915e-7, -5.390e-7, 4.525e-7
-0.066, -9.915e-7, -5.374e-7, 4.540e-7
-0.067, -9.927e-7, -5.387e-7, 4.540e-7
-0.068, -9.936e-7, -5.377e-7, 4.559e-7
-0.069, -9.939e-7, -5.380e-7, 4.559e-7
-0.070, -9.957e-7, -5.390e-7, 4.568e-7
-0.071, -9.963e-7, -5.390e-7, 4.574e-7
-0.072, -9.985e-7, -5.393e-7, 4.592e-7
-0.073, -9.994e-7, -5.396e-7, 4.598e-7
-0.074, -1.001e-6, -5.387e-7, 4.620e-7
-0.075, -1.000e-6, -5.387e-7, 4.613e-7
-0.076, -1.001e-6, -5.393e-7, 4.613e-7
-0.077, -1.002e-6, -5.390e-7, 4.632e-7
-0.078, -1.003e-6, -5.399e-7, 4.635e-7
-0.079, -1.004e-6, -5.396e-7, 4.647e-7
-0.080, -1.003e-6, -5.384e-7, 4.647e-7
-0.081, -1.004e-6, -5.393e-7, 4.650e-7
-0.082, -1.006e-6, -5.402e-7, 4.662e-7
-0.083, -1.008e-6, -5.396e-7, 4.684e-7
-0.084, -1.008e-6, -5.393e-7, 4.684e-7
-0.085, -1.010e-6, -5.420e-7, 4.681e-7
-0.086, -1.010e-6, -5.396e-7, 4.708e-7
-0.087, -1.008e-6, -5.384e-7, 4.693e-7
-0.088, -1.012e-6, -5.402e-7, 4.717e-7
-0.089, -1.011e-6, -5.393e-7, 4.720e-7
-0.090, -1.011e-6, -5.393e-7, 4.717e-7
-0.091, -1.014e-6, -5.408e-7, 4.729e-7
-0.092, -1.013e-6, -5.390e-7, 4.742e-7
-0.093, -1.014e-6, -5.387e-7, 4.751e-7
-0.094, -1.015e-6, -5.390e-7, 4.760e-7
-0.095, -1.014e-6, -5.387e-7, 4.757e-7
-0.096, -1.013e-6, -5.374e-7, 4.760e-7
-0.097, -1.017e-6, -5.399e-7, 4.769e-7
-0.098, -1.016e-6, -5.377e-7, 4.781e-7
-0.099, -1.015e-6, -5.377e-7, 4.775e-7
-0.100, -1.016e-6, -5.374e-7, 4.781e-7
