Mar. 20, 2018   16:01:48
Square Wave Voltammetry
File: c:\users\electrochemist\desktop\2018\20032018_unbufarray_unpap\65_g3_ph9,96_4.txt
Data Source:  Experiment
Instrument Model:  CHI1040A
Header: 
Note: 

Init E (V) = 0.7
Final E (V) = -0.4
Incr E (V) = 0.001
Amplitude (V) = 0.1
Frequency (Hz) = 152
Quiet Time (sec) = 2
Sensitivity (A/V) = 1e-6

Difference:

Forward:

Reverse:

Potential/V, Diff(i/A), For(i/A), Rev(i/A)

0.699, -6.234e-7, -1.538e-7, 4.696e-7
0.698, -7.235e-7, -3.006e-7, 4.229e-7
0.697, -7.232e-7, -3.080e-7, 4.153e-7
0.696, -7.141e-7, -3.095e-7, 4.046e-7
0.695, -7.104e-7, -3.116e-7, 3.988e-7
0.694, -7.061e-7, -3.110e-7, 3.951e-7
0.693, -7.022e-7, -3.116e-7, 3.906e-7
0.692, -6.994e-7, -3.131e-7, 3.863e-7
0.691, -6.955e-7, -3.098e-7, 3.857e-7
0.690, -6.900e-7, -3.131e-7, 3.768e-7
0.689, -6.890e-7, -3.134e-7, 3.756e-7
0.688, -6.872e-7, -3.119e-7, 3.753e-7
0.687, -6.823e-7, -3.113e-7, 3.710e-7
0.686, -6.823e-7, -3.138e-7, 3.686e-7
0.685, -6.775e-7, -3.089e-7, 3.686e-7
0.684, -6.738e-7, -3.125e-7, 3.613e-7
0.683, -6.759e-7, -3.128e-7, 3.631e-7
0.682, -6.698e-7, -3.083e-7, 3.616e-7
0.681, -6.689e-7, -3.110e-7, 3.579e-7
0.680, -6.680e-7, -3.116e-7, 3.564e-7
0.679, -6.640e-7, -3.095e-7, 3.545e-7
0.678, -6.613e-7, -3.107e-7, 3.506e-7
0.677, -6.622e-7, -3.110e-7, 3.512e-7
0.676, -6.567e-7, -3.083e-7, 3.484e-7
0.675, -6.524e-7, -3.092e-7, 3.433e-7
0.674, -6.530e-7, -3.092e-7, 3.439e-7
0.673, -6.527e-7, -3.089e-7, 3.439e-7
0.672, -6.494e-7, -3.101e-7, 3.393e-7
0.671, -6.497e-7, -3.101e-7, 3.396e-7
0.670, -6.466e-7, -3.076e-7, 3.390e-7
0.669, -6.457e-7, -3.083e-7, 3.375e-7
0.668, -6.430e-7, -3.064e-7, 3.365e-7
0.667, -6.390e-7, -3.064e-7, 3.326e-7
0.666, -6.411e-7, -3.089e-7, 3.323e-7
0.665, -6.363e-7, -3.052e-7, 3.310e-7
0.664, -6.366e-7, -3.076e-7, 3.289e-7
0.663, -6.353e-7, -3.076e-7, 3.277e-7
0.662, -6.338e-7, -3.052e-7, 3.286e-7
0.661, -6.323e-7, -3.073e-7, 3.249e-7
0.660, -6.308e-7, -3.043e-7, 3.265e-7
0.659, -6.292e-7, -3.040e-7, 3.253e-7
0.658, -6.302e-7, -3.080e-7, 3.222e-7
0.657, -6.289e-7, -3.046e-7, 3.243e-7
0.656, -6.268e-7, -3.049e-7, 3.219e-7
0.655, -6.247e-7, -3.049e-7, 3.198e-7
0.654, -6.250e-7, -3.064e-7, 3.185e-7
0.653, -6.222e-7, -3.043e-7, 3.179e-7
0.652, -6.216e-7, -3.049e-7, 3.167e-7
0.651, -6.228e-7, -3.052e-7, 3.176e-7
0.650, -6.204e-7, -3.031e-7, 3.173e-7
0.649, -6.173e-7, -3.052e-7, 3.121e-7
0.648, -6.198e-7, -3.049e-7, 3.149e-7
0.647, -6.152e-7, -3.040e-7, 3.112e-7
0.646, -6.170e-7, -3.052e-7, 3.118e-7
0.645, -6.167e-7, -3.043e-7, 3.124e-7
0.644, -6.134e-7, -3.031e-7, 3.103e-7
0.643, -6.121e-7, -3.046e-7, 3.076e-7
0.642, -6.134e-7, -3.022e-7, 3.112e-7
0.641, -6.128e-7, -3.040e-7, 3.088e-7
0.640, -6.140e-7, -3.058e-7, 3.082e-7
0.639, -6.106e-7, -3.034e-7, 3.072e-7
0.638, -6.073e-7, -3.022e-7, 3.051e-7
0.637, -6.091e-7, -3.040e-7, 3.051e-7
0.636, -6.088e-7, -3.025e-7, 3.063e-7
0.635, -6.085e-7, -3.049e-7, 3.036e-7
0.634, -6.088e-7, -3.037e-7, 3.051e-7
0.633, -6.063e-7, -3.019e-7, 3.045e-7
0.632, -6.030e-7, -3.019e-7, 3.011e-7
0.631, -6.088e-7, -3.037e-7, 3.051e-7
0.630, -6.042e-7, -3.022e-7, 3.021e-7
0.629, -6.054e-7, -3.064e-7, 2.990e-7
0.628, -6.051e-7, -3.040e-7, 3.011e-7
0.627, -6.033e-7, -3.031e-7, 3.002e-7
0.626, -6.036e-7, -3.049e-7, 2.987e-7
0.625, -6.048e-7, -3.040e-7, 3.008e-7
0.624, -6.006e-7, -3.019e-7, 2.987e-7
0.623, -6.021e-7, -3.043e-7, 2.978e-7
0.622, -6.036e-7, -3.031e-7, 3.005e-7
0.621, -6.009e-7, -3.028e-7, 2.981e-7
0.620, -6.024e-7, -3.055e-7, 2.969e-7
0.619, -5.999e-7, -3.031e-7, 2.969e-7
0.618, -5.996e-7, -3.034e-7, 2.963e-7
0.617, -6.033e-7, -3.052e-7, 2.981e-7
0.616, -5.996e-7, -3.046e-7, 2.950e-7
0.615, -5.969e-7, -3.028e-7, 2.941e-7
0.614, -5.975e-7, -3.049e-7, 2.926e-7
0.613, -5.975e-7, -3.031e-7, 2.944e-7
0.612, -5.975e-7, -3.034e-7, 2.941e-7
0.611, -5.993e-7, -3.046e-7, 2.947e-7
0.610, -5.996e-7, -3.052e-7, 2.944e-7
0.609, -5.975e-7, -3.043e-7, 2.932e-7
0.608, -5.999e-7, -3.052e-7, 2.947e-7
0.607, -5.972e-7, -3.037e-7, 2.935e-7
0.606, -5.954e-7, -3.040e-7, 2.914e-7
0.605, -5.993e-7, -3.049e-7, 2.944e-7
0.604, -5.966e-7, -3.043e-7, 2.923e-7
0.603, -6.002e-7, -3.058e-7, 2.944e-7
0.602, -5.996e-7, -3.049e-7, 2.947e-7
0.601, -5.969e-7, -3.049e-7, 2.920e-7
0.600, -5.972e-7, -3.073e-7, 2.899e-7
0.599, -5.996e-7, -3.055e-7, 2.941e-7
0.598, -5.966e-7, -3.040e-7, 2.926e-7
0.597, -5.969e-7, -3.052e-7, 2.917e-7
0.596, -5.954e-7, -3.037e-7, 2.917e-7
0.595, -5.984e-7, -3.061e-7, 2.923e-7
0.594, -5.954e-7, -3.049e-7, 2.905e-7
0.593, -5.957e-7, -3.046e-7, 2.911e-7
0.592, -5.960e-7, -3.058e-7, 2.902e-7
0.591, -5.987e-7, -3.076e-7, 2.911e-7
0.590, -5.948e-7, -3.046e-7, 2.902e-7
0.589, -5.954e-7, -3.061e-7, 2.892e-7
0.588, -5.969e-7, -3.058e-7, 2.911e-7
0.587, -5.935e-7, -3.046e-7, 2.889e-7
0.586, -5.960e-7, -3.058e-7, 2.902e-7
0.585, -5.951e-7, -3.058e-7, 2.892e-7
0.584, -5.941e-7, -3.055e-7, 2.886e-7
0.583, -5.948e-7, -3.064e-7, 2.883e-7
0.582, -5.978e-7, -3.080e-7, 2.899e-7
0.581, -5.935e-7, -3.055e-7, 2.880e-7
0.580, -5.948e-7, -3.070e-7, 2.877e-7
0.579, -5.944e-7, -3.046e-7, 2.899e-7
0.578, -5.929e-7, -3.049e-7, 2.880e-7
0.577, -5.957e-7, -3.083e-7, 2.874e-7
0.576, -5.938e-7, -3.049e-7, 2.889e-7
0.575, -5.926e-7, -3.058e-7, 2.868e-7
0.574, -5.929e-7, -3.067e-7, 2.862e-7
0.573, -5.948e-7, -3.049e-7, 2.899e-7
0.572, -5.908e-7, -3.064e-7, 2.844e-7
0.571, -5.917e-7, -3.067e-7, 2.850e-7
0.570, -5.938e-7, -3.052e-7, 2.886e-7
0.569, -5.914e-7, -3.067e-7, 2.847e-7
0.568, -5.944e-7, -3.080e-7, 2.865e-7
0.567, -5.920e-7, -3.043e-7, 2.877e-7
0.566, -5.883e-7, -3.058e-7, 2.825e-7
0.565, -5.951e-7, -3.089e-7, 2.862e-7
0.564, -5.938e-7, -3.064e-7, 2.874e-7
0.563, -5.877e-7, -3.049e-7, 2.828e-7
0.562, -5.978e-7, -3.095e-7, 2.883e-7
0.561, -5.923e-7, -3.055e-7, 2.868e-7
0.560, -5.920e-7, -3.080e-7, 2.841e-7
0.559, -5.963e-7, -3.104e-7, 2.859e-7
0.558, -5.923e-7, -3.070e-7, 2.853e-7
0.557, -5.911e-7, -3.076e-7, 2.834e-7
0.556, -5.932e-7, -3.080e-7, 2.853e-7
0.555, -5.880e-7, -3.046e-7, 2.834e-7
0.554, -5.929e-7, -3.083e-7, 2.847e-7
0.553, -5.926e-7, -3.067e-7, 2.859e-7
0.552, -5.923e-7, -3.076e-7, 2.847e-7
0.551, -5.908e-7, -3.080e-7, 2.828e-7
0.550, -5.923e-7, -3.067e-7, 2.856e-7
0.549, -5.917e-7, -3.070e-7, 2.847e-7
0.548, -5.920e-7, -3.089e-7, 2.831e-7
0.547, -5.893e-7, -3.067e-7, 2.825e-7
0.546, -5.914e-7, -3.095e-7, 2.819e-7
0.545, -5.893e-7, -3.070e-7, 2.822e-7
0.544, -5.865e-7, -3.055e-7, 2.810e-7
0.543, -5.911e-7, -3.083e-7, 2.828e-7
0.542, -5.893e-7, -3.073e-7, 2.819e-7
0.541, -5.880e-7, -3.064e-7, 2.816e-7
0.540, -5.911e-7, -3.083e-7, 2.828e-7
0.539, -5.874e-7, -3.061e-7, 2.813e-7
0.538, -5.862e-7, -3.061e-7, 2.801e-7
0.537, -5.877e-7, -3.073e-7, 2.804e-7
0.536, -5.893e-7, -3.076e-7, 2.816e-7
0.535, -5.893e-7, -3.070e-7, 2.822e-7
0.534, -5.896e-7, -3.089e-7, 2.807e-7
0.533, -5.911e-7, -3.086e-7, 2.825e-7
0.532, -5.874e-7, -3.076e-7, 2.798e-7
0.531, -5.887e-7, -3.089e-7, 2.798e-7
0.530, -5.896e-7, -3.080e-7, 2.816e-7
0.529, -5.865e-7, -3.070e-7, 2.795e-7
0.528, -5.893e-7, -3.080e-7, 2.813e-7
0.527, -5.893e-7, -3.073e-7, 2.819e-7
0.526, -5.874e-7, -3.067e-7, 2.807e-7
0.525, -5.917e-7, -3.113e-7, 2.804e-7
0.524, -5.905e-7, -3.080e-7, 2.825e-7
0.523, -5.902e-7, -3.098e-7, 2.804e-7
0.522, -5.899e-7, -3.098e-7, 2.801e-7
0.521, -5.890e-7, -3.083e-7, 2.807e-7
0.520, -5.887e-7, -3.101e-7, 2.786e-7
0.519, -5.893e-7, -3.098e-7, 2.795e-7
0.518, -5.914e-7, -3.101e-7, 2.813e-7
0.517, -5.902e-7, -3.113e-7, 2.789e-7
0.516, -5.908e-7, -3.101e-7, 2.807e-7
0.515, -5.893e-7, -3.086e-7, 2.807e-7
0.514, -5.908e-7, -3.125e-7, 2.783e-7
0.513, -5.905e-7, -3.110e-7, 2.795e-7
0.512, -5.905e-7, -3.101e-7, 2.804e-7
0.511, -5.914e-7, -3.131e-7, 2.783e-7
0.510, -5.926e-7, -3.104e-7, 2.822e-7
0.509, -5.899e-7, -3.116e-7, 2.783e-7
0.508, -5.929e-7, -3.131e-7, 2.798e-7
0.507, -5.932e-7, -3.122e-7, 2.810e-7
0.506, -5.902e-7, -3.104e-7, 2.798e-7
0.505, -5.935e-7, -3.144e-7, 2.792e-7
0.504, -5.926e-7, -3.119e-7, 2.807e-7
0.503, -5.914e-7, -3.110e-7, 2.804e-7
0.502, -5.926e-7, -3.128e-7, 2.798e-7
0.501, -5.926e-7, -3.119e-7, 2.807e-7
0.500, -5.938e-7, -3.125e-7, 2.813e-7
0.499, -5.935e-7, -3.153e-7, 2.783e-7
0.498, -5.944e-7, -3.138e-7, 2.807e-7
0.497, -5.923e-7, -3.131e-7, 2.792e-7
0.496, -5.944e-7, -3.144e-7, 2.801e-7
0.495, -5.938e-7, -3.138e-7, 2.801e-7
0.494, -5.941e-7, -3.134e-7, 2.807e-7
0.493, -5.957e-7, -3.162e-7, 2.795e-7
0.492, -5.954e-7, -3.138e-7, 2.816e-7
0.491, -5.960e-7, -3.156e-7, 2.804e-7
0.490, -5.987e-7, -3.168e-7, 2.819e-7
0.489, -5.957e-7, -3.150e-7, 2.807e-7
0.488, -5.978e-7, -3.174e-7, 2.804e-7
0.487, -5.993e-7, -3.165e-7, 2.828e-7
0.486, -5.960e-7, -3.165e-7, 2.795e-7
0.485, -5.984e-7, -3.174e-7, 2.810e-7
0.484, -6.002e-7, -3.177e-7, 2.825e-7
0.483, -5.981e-7, -3.177e-7, 2.804e-7
0.482, -5.975e-7, -3.174e-7, 2.801e-7
0.481, -5.996e-7, -3.168e-7, 2.828e-7
0.480, -5.966e-7, -3.177e-7, 2.789e-7
0.479, -5.987e-7, -3.177e-7, 2.810e-7
0.478, -6.015e-7, -3.189e-7, 2.825e-7
0.477, -5.984e-7, -3.192e-7, 2.792e-7
0.476, -6.012e-7, -3.205e-7, 2.807e-7
0.475, -6.015e-7, -3.196e-7, 2.819e-7
0.474, -6.012e-7, -3.202e-7, 2.810e-7
0.473, -6.015e-7, -3.202e-7, 2.813e-7
0.472, -6.018e-7, -3.192e-7, 2.825e-7
0.471, -6.015e-7, -3.205e-7, 2.810e-7
0.470, -6.030e-7, -3.214e-7, 2.816e-7
0.469, -6.018e-7, -3.199e-7, 2.819e-7
0.468, -6.024e-7, -3.211e-7, 2.813e-7
0.467, -6.030e-7, -3.217e-7, 2.813e-7
0.466, -6.027e-7, -3.211e-7, 2.816e-7
0.465, -6.030e-7, -3.226e-7, 2.804e-7
0.464, -6.051e-7, -3.226e-7, 2.825e-7
0.463, -6.033e-7, -3.208e-7, 2.825e-7
0.462, -6.048e-7, -3.229e-7, 2.819e-7
0.461, -6.054e-7, -3.226e-7, 2.828e-7
0.460, -6.030e-7, -3.223e-7, 2.807e-7
0.459, -6.067e-7, -3.247e-7, 2.819e-7
0.458, -6.063e-7, -3.232e-7, 2.831e-7
0.457, -6.051e-7, -3.235e-7, 2.816e-7
0.456, -6.070e-7, -3.247e-7, 2.822e-7
0.455, -6.073e-7, -3.238e-7, 2.834e-7
0.454, -6.057e-7, -3.238e-7, 2.819e-7
0.453, -6.079e-7, -3.260e-7, 2.819e-7
0.452, -6.082e-7, -3.244e-7, 2.837e-7
0.451, -6.063e-7, -3.247e-7, 2.816e-7
0.450, -6.100e-7, -3.269e-7, 2.831e-7
0.449, -6.076e-7, -3.247e-7, 2.828e-7
0.448, -6.060e-7, -3.250e-7, 2.810e-7
0.447, -6.109e-7, -3.278e-7, 2.831e-7
0.446, -6.109e-7, -3.269e-7, 2.841e-7
0.445, -6.097e-7, -3.275e-7, 2.822e-7
0.444, -6.115e-7, -3.284e-7, 2.831e-7
0.443, -6.082e-7, -3.253e-7, 2.828e-7
0.442, -6.100e-7, -3.269e-7, 2.831e-7
0.441, -6.121e-7, -3.302e-7, 2.819e-7
0.440, -6.128e-7, -3.290e-7, 2.837e-7
0.439, -6.100e-7, -3.272e-7, 2.828e-7
0.438, -6.121e-7, -3.278e-7, 2.844e-7
0.437, -6.115e-7, -3.290e-7, 2.825e-7
0.436, -6.146e-7, -3.308e-7, 2.837e-7
0.435, -6.134e-7, -3.293e-7, 2.841e-7
0.434, -6.140e-7, -3.302e-7, 2.837e-7
0.433, -6.128e-7, -3.308e-7, 2.819e-7
0.432, -6.137e-7, -3.305e-7, 2.831e-7
0.431, -6.125e-7, -3.305e-7, 2.819e-7
0.430, -6.149e-7, -3.311e-7, 2.837e-7
0.429, -6.137e-7, -3.296e-7, 2.841e-7
0.428, -6.152e-7, -3.308e-7, 2.844e-7
0.427, -6.149e-7, -3.321e-7, 2.828e-7
0.426, -6.146e-7, -3.315e-7, 2.831e-7
0.425, -6.164e-7, -3.330e-7, 2.834e-7
0.424, -6.161e-7, -3.333e-7, 2.828e-7
0.423, -6.140e-7, -3.311e-7, 2.828e-7
0.422, -6.149e-7, -3.333e-7, 2.816e-7
0.421, -6.176e-7, -3.339e-7, 2.837e-7
0.420, -6.186e-7, -3.333e-7, 2.853e-7
0.419, -6.152e-7, -3.333e-7, 2.819e-7
0.418, -6.186e-7, -3.354e-7, 2.831e-7
0.417, -6.192e-7, -3.348e-7, 2.844e-7
0.416, -6.186e-7, -3.342e-7, 2.844e-7
0.415, -6.170e-7, -3.339e-7, 2.831e-7
0.414, -6.176e-7, -3.348e-7, 2.828e-7
0.413, -6.192e-7, -3.357e-7, 2.834e-7
0.412, -6.204e-7, -3.363e-7, 2.841e-7
0.411, -6.207e-7, -3.357e-7, 2.850e-7
0.410, -6.219e-7, -3.385e-7, 2.834e-7
0.409, -6.237e-7, -3.382e-7, 2.856e-7
0.408, -6.179e-7, -3.357e-7, 2.822e-7
0.407, -6.247e-7, -3.397e-7, 2.850e-7
0.406, -6.256e-7, -3.391e-7, 2.865e-7
0.405, -6.222e-7, -3.363e-7, 2.859e-7
0.404, -6.268e-7, -3.406e-7, 2.862e-7
0.403, -6.219e-7, -3.379e-7, 2.841e-7
0.402, -6.244e-7, -3.397e-7, 2.847e-7
0.401, -6.268e-7, -3.394e-7, 2.874e-7
0.400, -6.274e-7, -3.391e-7, 2.883e-7
0.399, -6.250e-7, -3.403e-7, 2.847e-7
0.398, -6.283e-7, -3.415e-7, 2.868e-7
0.397, -6.286e-7, -3.415e-7, 2.871e-7
0.396, -6.305e-7, -3.434e-7, 2.871e-7
0.395, -6.311e-7, -3.430e-7, 2.880e-7
0.394, -6.286e-7, -3.418e-7, 2.868e-7
0.393, -6.308e-7, -3.437e-7, 2.871e-7
0.392, -6.320e-7, -3.434e-7, 2.886e-7
0.391, -6.323e-7, -3.437e-7, 2.886e-7
0.390, -6.320e-7, -3.458e-7, 2.862e-7
0.389, -6.347e-7, -3.458e-7, 2.889e-7
0.388, -6.329e-7, -3.446e-7, 2.883e-7
0.387, -6.329e-7, -3.452e-7, 2.877e-7
0.386, -6.375e-7, -3.467e-7, 2.908e-7
0.385, -6.350e-7, -3.461e-7, 2.889e-7
0.384, -6.356e-7, -3.482e-7, 2.874e-7
0.383, -6.387e-7, -3.482e-7, 2.905e-7
0.382, -6.387e-7, -3.476e-7, 2.911e-7
0.381, -6.393e-7, -3.498e-7, 2.895e-7
0.380, -6.393e-7, -3.501e-7, 2.892e-7
0.379, -6.414e-7, -3.507e-7, 2.908e-7
0.378, -6.424e-7, -3.522e-7, 2.902e-7
0.377, -6.414e-7, -3.510e-7, 2.905e-7
0.376, -6.439e-7, -3.522e-7, 2.917e-7
0.375, -6.451e-7, -3.543e-7, 2.908e-7
0.374, -6.451e-7, -3.525e-7, 2.926e-7
0.373, -6.442e-7, -3.525e-7, 2.917e-7
0.372, -6.454e-7, -3.528e-7, 2.926e-7
0.371, -6.479e-7, -3.556e-7, 2.923e-7
0.370, -6.479e-7, -3.537e-7, 2.941e-7
0.369, -6.500e-7, -3.556e-7, 2.944e-7
0.368, -6.500e-7, -3.568e-7, 2.932e-7
0.367, -6.518e-7, -3.574e-7, 2.944e-7
0.366, -6.515e-7, -3.565e-7, 2.950e-7
0.365, -6.543e-7, -3.595e-7, 2.947e-7
0.364, -6.549e-7, -3.592e-7, 2.956e-7
0.363, -6.555e-7, -3.601e-7, 2.953e-7
0.362, -6.555e-7, -3.601e-7, 2.953e-7
0.361, -6.564e-7, -3.601e-7, 2.963e-7
0.360, -6.564e-7, -3.595e-7, 2.969e-7
0.359, -6.576e-7, -3.607e-7, 2.969e-7
0.358, -6.613e-7, -3.638e-7, 2.975e-7
0.357, -6.579e-7, -3.620e-7, 2.960e-7
0.356, -6.576e-7, -3.623e-7, 2.953e-7
0.355, -6.601e-7, -3.632e-7, 2.969e-7
0.354, -6.598e-7, -3.626e-7, 2.972e-7
0.353, -6.631e-7, -3.647e-7, 2.984e-7
0.352, -6.659e-7, -3.659e-7, 2.999e-7
0.351, -6.640e-7, -3.641e-7, 2.999e-7
0.350, -6.640e-7, -3.665e-7, 2.975e-7
0.349, -6.668e-7, -3.672e-7, 2.996e-7
0.348, -6.665e-7, -3.662e-7, 3.002e-7
0.347, -6.683e-7, -3.690e-7, 2.993e-7
0.346, -6.686e-7, -3.687e-7, 2.999e-7
0.345, -6.665e-7, -3.672e-7, 2.993e-7
0.344, -6.689e-7, -3.705e-7, 2.984e-7
0.343, -6.707e-7, -3.690e-7, 3.018e-7
0.342, -6.710e-7, -3.699e-7, 3.011e-7
0.341, -6.735e-7, -3.726e-7, 3.008e-7
0.340, -6.732e-7, -3.705e-7, 3.027e-7
0.339, -6.717e-7, -3.717e-7, 2.999e-7
0.338, -6.744e-7, -3.723e-7, 3.021e-7
0.337, -6.775e-7, -3.733e-7, 3.042e-7
0.336, -6.732e-7, -3.714e-7, 3.018e-7
0.335, -6.781e-7, -3.751e-7, 3.030e-7
0.334, -6.768e-7, -3.730e-7, 3.039e-7
0.333, -6.756e-7, -3.748e-7, 3.008e-7
0.332, -6.814e-7, -3.757e-7, 3.057e-7
0.331, -6.817e-7, -3.751e-7, 3.066e-7
0.330, -6.802e-7, -3.766e-7, 3.036e-7
0.329, -6.820e-7, -3.778e-7, 3.042e-7
0.328, -6.836e-7, -3.778e-7, 3.057e-7
0.327, -6.848e-7, -3.791e-7, 3.057e-7
0.326, -6.863e-7, -3.803e-7, 3.060e-7
0.325, -6.866e-7, -3.794e-7, 3.072e-7
0.324, -6.848e-7, -3.794e-7, 3.054e-7
0.323, -6.906e-7, -3.824e-7, 3.082e-7
0.322, -6.894e-7, -3.803e-7, 3.091e-7
0.321, -6.906e-7, -3.836e-7, 3.069e-7
0.320, -6.900e-7, -3.821e-7, 3.079e-7
0.319, -6.906e-7, -3.824e-7, 3.082e-7
0.318, -6.884e-7, -3.827e-7, 3.057e-7
0.317, -6.936e-7, -3.849e-7, 3.088e-7
0.316, -6.915e-7, -3.836e-7, 3.079e-7
0.315, -6.952e-7, -3.861e-7, 3.091e-7
0.314, -6.955e-7, -3.852e-7, 3.103e-7
0.313, -6.967e-7, -3.870e-7, 3.097e-7
0.312, -6.948e-7, -3.861e-7, 3.088e-7
0.311, -6.967e-7, -3.876e-7, 3.091e-7
0.310, -6.964e-7, -3.873e-7, 3.091e-7
0.309, -6.979e-7, -3.879e-7, 3.100e-7
0.308, -6.982e-7, -3.882e-7, 3.100e-7
0.307, -7.028e-7, -3.891e-7, 3.137e-7
0.306, -7.022e-7, -3.907e-7, 3.115e-7
0.305, -7.019e-7, -3.888e-7, 3.130e-7
0.304, -7.028e-7, -3.919e-7, 3.109e-7
0.303, -7.071e-7, -3.922e-7, 3.149e-7
0.302, -7.049e-7, -3.919e-7, 3.130e-7
0.301, -7.055e-7, -3.928e-7, 3.127e-7
0.300, -7.067e-7, -3.940e-7, 3.127e-7
0.299, -7.086e-7, -3.943e-7, 3.143e-7
0.298, -7.071e-7, -3.937e-7, 3.133e-7
0.297, -7.086e-7, -3.943e-7, 3.143e-7
0.296, -7.095e-7, -3.946e-7, 3.149e-7
0.295, -7.122e-7, -3.971e-7, 3.152e-7
0.294, -7.128e-7, -3.974e-7, 3.155e-7
0.293, -7.125e-7, -3.961e-7, 3.164e-7
0.292, -7.156e-7, -3.989e-7, 3.167e-7
0.291, -7.174e-7, -3.992e-7, 3.182e-7
0.290, -7.156e-7, -3.989e-7, 3.167e-7
0.289, -7.193e-7, -4.019e-7, 3.173e-7
0.288, -7.202e-7, -4.001e-7, 3.201e-7
0.287, -7.186e-7, -4.019e-7, 3.167e-7
0.286, -7.202e-7, -4.016e-7, 3.185e-7
0.285, -7.232e-7, -4.029e-7, 3.204e-7
0.284, -7.226e-7, -4.038e-7, 3.188e-7
0.283, -7.269e-7, -4.068e-7, 3.201e-7
0.282, -7.263e-7, -4.050e-7, 3.213e-7
0.281, -7.272e-7, -4.062e-7, 3.210e-7
0.280, -7.275e-7, -4.065e-7, 3.210e-7
0.279, -7.296e-7, -4.077e-7, 3.219e-7
0.278, -7.296e-7, -4.087e-7, 3.210e-7
0.277, -7.324e-7, -4.084e-7, 3.240e-7
0.276, -7.318e-7, -4.087e-7, 3.231e-7
0.275, -7.336e-7, -4.105e-7, 3.231e-7
0.274, -7.357e-7, -4.117e-7, 3.240e-7
0.273, -7.345e-7, -4.108e-7, 3.237e-7
0.272, -7.379e-7, -4.145e-7, 3.234e-7
0.271, -7.397e-7, -4.138e-7, 3.259e-7
0.270, -7.397e-7, -4.129e-7, 3.268e-7
0.269, -7.394e-7, -4.157e-7, 3.237e-7
0.268, -7.434e-7, -4.157e-7, 3.277e-7
0.267, -7.406e-7, -4.145e-7, 3.262e-7
0.266, -7.428e-7, -4.169e-7, 3.259e-7
0.265, -7.467e-7, -4.169e-7, 3.298e-7
0.264, -7.464e-7, -4.169e-7, 3.295e-7
0.263, -7.486e-7, -4.203e-7, 3.283e-7
0.262, -7.510e-7, -4.215e-7, 3.295e-7
0.261, -7.501e-7, -4.206e-7, 3.295e-7
0.260, -7.510e-7, -4.218e-7, 3.292e-7
0.259, -7.534e-7, -4.218e-7, 3.317e-7
0.258, -7.553e-7, -4.242e-7, 3.310e-7
0.257, -7.562e-7, -4.245e-7, 3.317e-7
0.256, -7.559e-7, -4.245e-7, 3.313e-7
0.255, -7.592e-7, -4.261e-7, 3.332e-7
0.254, -7.620e-7, -4.276e-7, 3.344e-7
0.253, -7.629e-7, -4.276e-7, 3.353e-7
0.252, -7.632e-7, -4.294e-7, 3.338e-7
0.251, -7.659e-7, -4.300e-7, 3.359e-7
0.250, -7.653e-7, -4.297e-7, 3.356e-7
0.249, -7.669e-7, -4.309e-7, 3.359e-7
0.248, -7.702e-7, -4.319e-7, 3.384e-7
0.247, -7.708e-7, -4.328e-7, 3.381e-7
0.246, -7.745e-7, -4.361e-7, 3.384e-7
0.245, -7.742e-7, -4.346e-7, 3.396e-7
0.244, -7.751e-7, -4.358e-7, 3.393e-7
0.243, -7.775e-7, -4.373e-7, 3.402e-7
0.242, -7.791e-7, -4.364e-7, 3.426e-7
0.241, -7.800e-7, -4.386e-7, 3.414e-7
0.240, -7.815e-7, -4.404e-7, 3.411e-7
0.239, -7.827e-7, -4.398e-7, 3.429e-7
0.238, -7.840e-7, -4.413e-7, 3.426e-7
0.237, -7.846e-7, -4.407e-7, 3.439e-7
0.236, -7.858e-7, -4.413e-7, 3.445e-7
0.235, -7.873e-7, -4.434e-7, 3.439e-7
0.234, -7.891e-7, -4.450e-7, 3.442e-7
0.233, -7.891e-7, -4.431e-7, 3.460e-7
0.232, -7.907e-7, -4.462e-7, 3.445e-7
0.231, -7.940e-7, -4.480e-7, 3.460e-7
0.230, -7.934e-7, -4.462e-7, 3.472e-7
0.229, -7.937e-7, -4.492e-7, 3.445e-7
0.228, -7.986e-7, -4.492e-7, 3.494e-7
0.227, -7.974e-7, -4.492e-7, 3.481e-7
0.226, -8.010e-7, -4.505e-7, 3.506e-7
0.225, -8.029e-7, -4.520e-7, 3.509e-7
0.224, -8.038e-7, -4.526e-7, 3.512e-7
0.223, -8.026e-7, -4.532e-7, 3.494e-7
0.222, -8.081e-7, -4.547e-7, 3.533e-7
0.221, -8.041e-7, -4.538e-7, 3.503e-7
0.220, -8.102e-7, -4.575e-7, 3.527e-7
0.219, -8.120e-7, -4.569e-7, 3.552e-7
0.218, -8.114e-7, -4.581e-7, 3.533e-7
0.217, -8.151e-7, -4.611e-7, 3.539e-7
0.216, -8.148e-7, -4.587e-7, 3.561e-7
0.215, -8.145e-7, -4.593e-7, 3.552e-7
0.214, -8.200e-7, -4.642e-7, 3.558e-7
0.213, -8.184e-7, -4.605e-7, 3.579e-7
0.212, -8.184e-7, -4.642e-7, 3.542e-7
0.211, -8.248e-7, -4.657e-7, 3.591e-7
0.210, -8.233e-7, -4.624e-7, 3.609e-7
0.209, -8.261e-7, -4.672e-7, 3.588e-7
0.208, -8.258e-7, -4.672e-7, 3.585e-7
0.207, -8.276e-7, -4.676e-7, 3.600e-7
0.206, -8.297e-7, -4.697e-7, 3.600e-7
0.205, -8.325e-7, -4.706e-7, 3.619e-7
0.204, -8.334e-7, -4.700e-7, 3.634e-7
0.203, -8.340e-7, -4.724e-7, 3.616e-7
0.202, -8.355e-7, -4.724e-7, 3.631e-7
0.201, -8.374e-7, -4.727e-7, 3.646e-7
0.200, -8.392e-7, -4.743e-7, 3.649e-7
0.199, -8.389e-7, -4.755e-7, 3.634e-7
0.198, -8.435e-7, -4.767e-7, 3.667e-7
0.197, -8.453e-7, -4.782e-7, 3.671e-7
0.196, -8.450e-7, -4.776e-7, 3.674e-7
0.195, -8.465e-7, -4.782e-7, 3.683e-7
0.194, -8.505e-7, -4.813e-7, 3.692e-7
0.193, -8.505e-7, -4.819e-7, 3.686e-7
0.192, -8.529e-7, -4.834e-7, 3.695e-7
0.191, -8.532e-7, -4.822e-7, 3.710e-7
0.190, -8.541e-7, -4.834e-7, 3.707e-7
0.189, -8.560e-7, -4.856e-7, 3.704e-7
0.188, -8.596e-7, -4.871e-7, 3.725e-7
0.187, -8.590e-7, -4.862e-7, 3.729e-7
0.186, -8.612e-7, -4.889e-7, 3.722e-7
0.185, -8.633e-7, -4.886e-7, 3.747e-7
0.184, -8.633e-7, -4.892e-7, 3.741e-7
0.183, -8.651e-7, -4.917e-7, 3.735e-7
0.182, -8.685e-7, -4.920e-7, 3.765e-7
0.181, -8.703e-7, -4.941e-7, 3.762e-7
0.180, -8.718e-7, -4.953e-7, 3.765e-7
0.179, -8.724e-7, -4.944e-7, 3.780e-7
0.178, -8.755e-7, -4.969e-7, 3.786e-7
0.177, -8.776e-7, -4.990e-7, 3.786e-7
0.176, -8.807e-7, -5.005e-7, 3.802e-7
0.175, -8.807e-7, -5.005e-7, 3.802e-7
0.174, -8.834e-7, -5.030e-7, 3.805e-7
0.173, -8.853e-7, -5.026e-7, 3.826e-7
0.172, -8.847e-7, -5.017e-7, 3.829e-7
0.171, -8.901e-7, -5.060e-7, 3.841e-7
0.170, -8.905e-7, -5.057e-7, 3.848e-7
0.169, -8.932e-7, -5.081e-7, 3.851e-7
0.168, -8.950e-7, -5.100e-7, 3.851e-7
0.167, -8.969e-7, -5.088e-7, 3.881e-7
0.166, -8.981e-7, -5.118e-7, 3.863e-7
0.165, -9.020e-7, -5.136e-7, 3.884e-7
0.164, -9.014e-7, -5.124e-7, 3.890e-7
0.163, -9.054e-7, -5.164e-7, 3.890e-7
0.162, -9.060e-7, -5.164e-7, 3.896e-7
0.161, -9.094e-7, -5.170e-7, 3.924e-7
0.160, -9.100e-7, -5.203e-7, 3.896e-7
0.159, -9.161e-7, -5.203e-7, 3.957e-7
0.158, -9.155e-7, -5.207e-7, 3.948e-7
0.157, -9.176e-7, -5.246e-7, 3.930e-7
0.156, -9.228e-7, -5.258e-7, 3.970e-7
0.155, -9.207e-7, -5.234e-7, 3.973e-7
0.154, -9.231e-7, -5.277e-7, 3.954e-7
0.153, -9.283e-7, -5.292e-7, 3.991e-7
0.152, -9.289e-7, -5.292e-7, 3.997e-7
0.151, -9.323e-7, -5.335e-7, 3.988e-7
0.150, -9.381e-7, -5.338e-7, 4.043e-7
0.149, -9.368e-7, -5.338e-7, 4.031e-7
0.148, -9.381e-7, -5.368e-7, 4.012e-7
0.147, -9.435e-7, -5.374e-7, 4.061e-7
0.146, -9.435e-7, -5.393e-7, 4.043e-7
0.145, -9.475e-7, -5.423e-7, 4.052e-7
0.144, -9.512e-7, -5.426e-7, 4.086e-7
0.143, -9.506e-7, -5.423e-7, 4.082e-7
0.142, -9.545e-7, -5.469e-7, 4.076e-7
0.141, -9.588e-7, -5.466e-7, 4.122e-7
0.140, -9.585e-7, -5.478e-7, 4.107e-7
0.139, -9.634e-7, -5.515e-7, 4.119e-7
0.138, -9.655e-7, -5.518e-7, 4.137e-7
0.137, -9.670e-7, -5.533e-7, 4.137e-7
0.136, -9.719e-7, -5.567e-7, 4.153e-7
0.135, -9.735e-7, -5.564e-7, 4.171e-7
0.134, -9.741e-7, -5.585e-7, 4.156e-7
0.133, -9.793e-7, -5.591e-7, 4.201e-7
0.132, -9.805e-7, -5.615e-7, 4.189e-7
0.131, -9.841e-7, -5.637e-7, 4.205e-7
0.130, -9.872e-7, -5.649e-7, 4.223e-7
0.129, -9.890e-7, -5.664e-7, 4.226e-7
0.128, -9.936e-7, -5.695e-7, 4.241e-7
0.127, -9.915e-7, -5.661e-7, 4.253e-7
0.126, -9.982e-7, -5.722e-7, 4.259e-7
0.125, -1.002e-6, -5.750e-7, 4.266e-7
0.124, -1.005e-6, -5.759e-7, 4.287e-7
0.123, -1.005e-6, -5.774e-7, 4.281e-7
0.122, -1.011e-6, -5.808e-7, 4.302e-7
0.121, -1.012e-6, -5.802e-7, 4.314e-7
0.120, -1.016e-6, -5.829e-7, 4.327e-7
0.119, -1.020e-6, -5.850e-7, 4.345e-7
0.118, -1.020e-6, -5.850e-7, 4.345e-7
0.117, -1.024e-6, -5.872e-7, 4.369e-7
0.116, -1.026e-6, -5.899e-7, 4.360e-7
0.115, -1.030e-6, -5.902e-7, 4.394e-7
0.114, -1.031e-6, -5.939e-7, 4.369e-7
0.113, -1.036e-6, -5.954e-7, 4.409e-7
0.112, -1.037e-6, -5.951e-7, 4.418e-7
0.111, -1.041e-6, -5.994e-7, 4.418e-7
0.110, -1.045e-6, -6.009e-7, 4.446e-7
0.109, -1.045e-6, -6.006e-7, 4.443e-7
0.108, -1.052e-6, -6.061e-7, 4.464e-7
0.107, -1.056e-6, -6.061e-7, 4.494e-7
0.106, -1.059e-6, -6.076e-7, 4.510e-7
0.105, -1.060e-6, -6.101e-7, 4.497e-7
0.104, -1.064e-6, -6.116e-7, 4.525e-7
0.103, -1.066e-6, -6.137e-7, 4.525e-7
0.102, -1.071e-6, -6.165e-7, 4.543e-7
0.101, -1.072e-6, -6.168e-7, 4.549e-7
0.100, -1.076e-6, -6.201e-7, 4.562e-7
0.099, -1.080e-6, -6.226e-7, 4.574e-7
0.098, -1.084e-6, -6.232e-7, 4.610e-7
0.097, -1.085e-6, -6.253e-7, 4.601e-7
0.096, -1.090e-6, -6.293e-7, 4.604e-7
0.095, -1.092e-6, -6.290e-7, 4.632e-7
0.094, -1.095e-6, -6.317e-7, 4.632e-7
0.093, -1.099e-6, -6.336e-7, 4.653e-7
0.092, -1.102e-6, -6.348e-7, 4.668e-7
0.091, -1.106e-6, -6.384e-7, 4.674e-7
0.090, -1.111e-6, -6.412e-7, 4.699e-7
0.089, -1.114e-6, -6.412e-7, 4.732e-7
0.088, -1.114e-6, -6.421e-7, 4.723e-7
0.087, -1.119e-6, -6.458e-7, 4.732e-7
0.086, -1.124e-6, -6.476e-7, 4.763e-7
0.085, -1.125e-6, -6.497e-7, 4.751e-7
0.084, -1.130e-6, -6.510e-7, 4.793e-7
0.083, -1.133e-6, -6.528e-7, 4.800e-7
0.082, -1.135e-6, -6.561e-7, 4.793e-7
0.081, -1.140e-6, -6.580e-7, 4.824e-7
0.080, -1.143e-6, -6.598e-7, 4.836e-7
0.079, -1.146e-6, -6.622e-7, 4.839e-7
0.078, -1.150e-6, -6.635e-7, 4.861e-7
0.077, -1.154e-6, -6.659e-7, 4.885e-7
0.076, -1.157e-6, -6.671e-7, 4.900e-7
0.075, -1.160e-6, -6.693e-7, 4.906e-7
0.074, -1.165e-6, -6.735e-7, 4.919e-7
0.073, -1.170e-6, -6.754e-7, 4.943e-7
0.072, -1.173e-6, -6.769e-7, 4.964e-7
0.071, -1.177e-6, -6.803e-7, 4.964e-7
0.070, -1.181e-6, -6.818e-7, 4.992e-7
0.069, -1.182e-6, -6.824e-7, 5.001e-7
0.068, -1.186e-6, -6.848e-7, 5.016e-7
0.067, -1.191e-6, -6.870e-7, 5.041e-7
0.066, -1.194e-6, -6.894e-7, 5.050e-7
0.065, -1.199e-6, -6.928e-7, 5.062e-7
0.064, -1.202e-6, -6.940e-7, 5.083e-7
0.063, -1.207e-6, -6.961e-7, 5.111e-7
0.062, -1.208e-6, -6.980e-7, 5.099e-7
0.061, -1.212e-6, -6.983e-7, 5.135e-7
0.060, -1.216e-6, -7.010e-7, 5.151e-7
0.059, -1.222e-6, -7.053e-7, 5.166e-7
0.058, -1.226e-6, -7.068e-7, 5.190e-7
0.057, -1.229e-6, -7.099e-7, 5.190e-7
0.056, -1.234e-6, -7.123e-7, 5.218e-7
0.055, -1.235e-6, -7.111e-7, 5.242e-7
0.054, -1.239e-6, -7.141e-7, 5.251e-7
0.053, -1.247e-6, -7.193e-7, 5.276e-7
0.052, -1.250e-6, -7.196e-7, 5.303e-7
0.051, -1.252e-6, -7.230e-7, 5.291e-7
0.050, -1.258e-6, -7.260e-7, 5.324e-7
0.049, -1.260e-6, -7.245e-7, 5.352e-7
0.048, -1.266e-6, -7.291e-7, 5.370e-7
0.047, -1.270e-6, -7.318e-7, 5.385e-7
0.046, -1.273e-6, -7.324e-7, 5.404e-7
0.045, -1.277e-6, -7.364e-7, 5.404e-7
0.044, -1.283e-6, -7.388e-7, 5.437e-7
0.043, -1.285e-6, -7.388e-7, 5.465e-7
0.042, -1.291e-6, -7.440e-7, 5.474e-7
0.041, -1.294e-6, -7.440e-7, 5.505e-7
0.040, -1.297e-6, -7.456e-7, 5.511e-7
0.039, -1.302e-6, -7.498e-7, 5.526e-7
0.038, -1.306e-6, -7.510e-7, 5.553e-7
0.037, -1.309e-6, -7.514e-7, 5.575e-7
0.036, -1.314e-6, -7.556e-7, 5.581e-7
0.035, -1.321e-6, -7.581e-7, 5.627e-7
0.034, -1.322e-6, -7.584e-7, 5.639e-7
0.033, -1.327e-6, -7.633e-7, 5.639e-7
0.032, -1.332e-6, -7.636e-7, 5.688e-7
0.031, -1.334e-6, -7.651e-7, 5.688e-7
0.030, -1.339e-6, -7.697e-7, 5.691e-7
0.029, -1.342e-6, -7.694e-7, 5.730e-7
0.028, -1.347e-6, -7.718e-7, 5.755e-7
0.027, -1.354e-6, -7.770e-7, 5.773e-7
0.026, -1.356e-6, -7.773e-7, 5.788e-7
0.025, -1.359e-6, -7.773e-7, 5.816e-7
0.024, -1.363e-6, -7.816e-7, 5.819e-7
0.023, -1.370e-6, -7.831e-7, 5.865e-7
0.022, -1.372e-6, -7.852e-7, 5.871e-7
0.021, -1.377e-6, -7.871e-7, 5.895e-7
0.020, -1.380e-6, -7.880e-7, 5.920e-7
0.019, -1.384e-6, -7.913e-7, 5.929e-7
0.018, -1.390e-6, -7.929e-7, 5.971e-7
0.017, -1.393e-6, -7.956e-7, 5.977e-7
0.016, -1.397e-6, -7.962e-7, 6.008e-7
0.015, -1.403e-6, -7.999e-7, 6.026e-7
0.014, -1.403e-6, -7.999e-7, 6.032e-7
0.013, -1.411e-6, -8.051e-7, 6.057e-7
0.012, -1.414e-6, -8.048e-7, 6.090e-7
0.011, -1.415e-6, -8.057e-7, 6.093e-7
0.010, -1.423e-6, -8.099e-7, 6.130e-7
0.009, -1.427e-6, -8.109e-7, 6.158e-7
0.008, -1.428e-6, -8.124e-7, 6.161e-7
0.007, -1.433e-6, -8.145e-7, 6.182e-7
0.006, -1.439e-6, -8.167e-7, 6.219e-7
0.005, -1.441e-6, -8.188e-7, 6.222e-7
0.004, -1.446e-6, -8.200e-7, 6.264e-7
0.003, -1.450e-6, -8.218e-7, 6.280e-7
0.002, -1.453e-6, -8.240e-7, 6.289e-7
0.001, -1.458e-6, -8.261e-7, 6.322e-7
0.000, -1.459e-6, -8.249e-7, 6.341e-7
-0.001, -1.464e-6, -8.295e-7, 6.347e-7
-0.002, -1.468e-6, -8.295e-7, 6.386e-7
-0.003, -1.471e-6, -8.310e-7, 6.399e-7
-0.004, -1.475e-6, -8.334e-7, 6.411e-7
-0.005, -1.478e-6, -8.344e-7, 6.435e-7
-0.006, -1.481e-6, -8.350e-7, 6.463e-7
-0.007, -1.485e-6, -8.371e-7, 6.478e-7
-0.008, -1.490e-6, -8.386e-7, 6.512e-7
-0.009, -1.490e-6, -8.392e-7, 6.512e-7
-0.010, -1.498e-6, -8.438e-7, 6.539e-7
-0.011, -1.502e-6, -8.438e-7, 6.579e-7
-0.012, -1.500e-6, -8.423e-7, 6.579e-7
-0.013, -1.505e-6, -8.463e-7, 6.585e-7
-0.014, -1.508e-6, -8.447e-7, 6.634e-7
-0.015, -1.511e-6, -8.484e-7, 6.624e-7
-0.016, -1.517e-6, -8.511e-7, 6.655e-7
-0.017, -1.518e-6, -8.484e-7, 6.698e-7
-0.018, -1.520e-6, -8.518e-7, 6.682e-7
-0.019, -1.525e-6, -8.536e-7, 6.719e-7
-0.020, -1.528e-6, -8.536e-7, 6.743e-7
-0.021, -1.530e-6, -8.560e-7, 6.737e-7
-0.022, -1.535e-6, -8.569e-7, 6.777e-7
-0.023, -1.535e-6, -8.557e-7, 6.792e-7
-0.024, -1.539e-6, -8.582e-7, 6.811e-7
-0.025, -1.542e-6, -8.588e-7, 6.832e-7
-0.026, -1.546e-6, -8.594e-7, 6.866e-7
-0.027, -1.547e-6, -8.597e-7, 6.872e-7
-0.028, -1.553e-6, -8.649e-7, 6.881e-7
-0.029, -1.555e-6, -8.627e-7, 6.920e-7
-0.030, -1.555e-6, -8.633e-7, 6.917e-7
-0.031, -1.560e-6, -8.649e-7, 6.948e-7
-0.032, -1.561e-6, -8.646e-7, 6.963e-7
-0.033, -1.565e-6, -8.664e-7, 6.985e-7
-0.034, -1.567e-6, -8.667e-7, 7.006e-7
-0.035, -1.568e-6, -8.664e-7, 7.012e-7
-0.036, -1.573e-6, -8.694e-7, 7.033e-7
-0.037, -1.572e-6, -8.673e-7, 7.049e-7
-0.038, -1.574e-6, -8.679e-7, 7.058e-7
-0.039, -1.576e-6, -8.691e-7, 7.073e-7
-0.040, -1.579e-6, -8.691e-7, 7.094e-7
-0.041, -1.580e-6, -8.704e-7, 7.100e-7
-0.042, -1.584e-6, -8.704e-7, 7.140e-7
-0.043, -1.585e-6, -8.716e-7, 7.137e-7
-0.044, -1.588e-6, -8.716e-7, 7.162e-7
-0.045, -1.589e-6, -8.719e-7, 7.171e-7
-0.046, -1.590e-6, -8.719e-7, 7.183e-7
-0.047, -1.592e-6, -8.725e-7, 7.198e-7
-0.048, -1.596e-6, -8.728e-7, 7.229e-7
-0.049, -1.595e-6, -8.713e-7, 7.235e-7
-0.050, -1.598e-6, -8.734e-7, 7.250e-7
-0.051, -1.600e-6, -8.731e-7, 7.271e-7
-0.052, -1.602e-6, -8.728e-7, 7.296e-7
-0.053, -1.603e-6, -8.743e-7, 7.284e-7
-0.054, -1.605e-6, -8.740e-7, 7.314e-7
-0.055, -1.605e-6, -8.731e-7, 7.320e-7
-0.056, -1.605e-6, -8.746e-7, 7.305e-7
-0.057, -1.609e-6, -8.728e-7, 7.363e-7
-0.058, -1.610e-6, -8.746e-7, 7.354e-7
-0.059, -1.614e-6, -8.752e-7, 7.384e-7
-0.060, -1.613e-6, -8.737e-7, 7.396e-7
-0.061, -1.614e-6, -8.734e-7, 7.409e-7
-0.062, -1.617e-6, -8.749e-7, 7.418e-7
-0.063, -1.617e-6, -8.731e-7, 7.442e-7
-0.064, -1.616e-6, -8.731e-7, 7.433e-7
-0.065, -1.620e-6, -8.740e-7, 7.464e-7
-0.066, -1.619e-6, -8.710e-7, 7.485e-7
-0.067, -1.621e-6, -8.734e-7, 7.479e-7
-0.068, -1.623e-6, -8.728e-7, 7.503e-7
-0.069, -1.623e-6, -8.710e-7, 7.519e-7
-0.070, -1.621e-6, -8.707e-7, 7.506e-7
-0.071, -1.626e-6, -8.719e-7, 7.537e-7
-0.072, -1.624e-6, -8.704e-7, 7.540e-7
-0.073, -1.625e-6, -8.719e-7, 7.531e-7
-0.074, -1.629e-6, -8.713e-7, 7.580e-7
-0.075, -1.626e-6, -8.691e-7, 7.570e-7
-0.076, -1.626e-6, -8.698e-7, 7.567e-7
-0.077, -1.629e-6, -8.691e-7, 7.595e-7
-0.078, -1.626e-6, -8.658e-7, 7.604e-7
-0.079, -1.630e-6, -8.701e-7, 7.604e-7
-0.080, -1.631e-6, -8.673e-7, 7.638e-7
-0.081, -1.628e-6, -8.652e-7, 7.631e-7
-0.082, -1.631e-6, -8.667e-7, 7.641e-7
-0.083, -1.632e-6, -8.661e-7, 7.656e-7
-0.084, -1.631e-6, -8.646e-7, 7.668e-7
-0.085, -1.631e-6, -8.652e-7, 7.662e-7
-0.086, -1.636e-6, -8.652e-7, 7.705e-7
-0.087, -1.631e-6, -8.621e-7, 7.692e-7
-0.088, -1.631e-6, -8.633e-7, 7.674e-7
-0.089, -1.634e-6, -8.618e-7, 7.717e-7
-0.090, -1.630e-6, -8.594e-7, 7.708e-7
-0.091, -1.633e-6, -8.621e-7, 7.708e-7
-0.092, -1.633e-6, -8.591e-7, 7.738e-7
-0.093, -1.630e-6, -8.579e-7, 7.726e-7
-0.094, -1.631e-6, -8.569e-7, 7.738e-7
-0.095, -1.629e-6, -8.560e-7, 7.732e-7
-0.096, -1.630e-6, -8.557e-7, 7.741e-7
-0.097, -1.629e-6, -8.539e-7, 7.750e-7
-0.098, -1.629e-6, -8.533e-7, 7.760e-7
-0.099, -1.630e-6, -8.545e-7, 7.754e-7
-0.100, -1.629e-6, -8.514e-7, 7.772e-7
-0.101, -1.628e-6, -8.514e-7, 7.769e-7
-0.102, -1.628e-6, -8.493e-7, 7.784e-7
-0.103, -1.627e-6, -8.481e-7, 7.790e-7
-0.104, -1.627e-6, -8.484e-7, 7.784e-7
-0.105, -1.623e-6, -8.460e-7, 7.775e-7
-0.106, -1.624e-6, -8.441e-7, 7.796e-7
-0.107, -1.623e-6, -8.432e-7, 7.793e-7
-0.108, -1.624e-6, -8.447e-7, 7.790e-7
-0.109, -1.621e-6, -8.399e-7, 7.808e-7
-0.110, -1.621e-6, -8.402e-7, 7.811e-7
-0.111, -1.619e-6, -8.392e-7, 7.799e-7
-0.112, -1.619e-6, -8.380e-7, 7.811e-7
-0.113, -1.619e-6, -8.383e-7, 7.802e-7
-0.114, -1.617e-6, -8.368e-7, 7.799e-7
-0.115, -1.616e-6, -8.337e-7, 7.818e-7
-0.116, -1.613e-6, -8.334e-7, 7.799e-7
-0.117, -1.617e-6, -8.341e-7, 7.830e-7
-0.118, -1.611e-6, -8.298e-7, 7.811e-7
-0.119, -1.608e-6, -8.295e-7, 7.790e-7
-0.120, -1.608e-6, -8.273e-7, 7.811e-7
-0.121, -1.607e-6, -8.258e-7, 7.811e-7
-0.122, -1.605e-6, -8.255e-7, 7.793e-7
-0.123, -1.603e-6, -8.225e-7, 7.808e-7
-0.124, -1.602e-6, -8.212e-7, 7.805e-7
-0.125, -1.603e-6, -8.228e-7, 7.805e-7
-0.126, -1.598e-6, -8.173e-7, 7.805e-7
-0.127, -1.596e-6, -8.164e-7, 7.793e-7
-0.128, -1.594e-6, -8.154e-7, 7.781e-7
-0.129, -1.593e-6, -8.130e-7, 7.796e-7
-0.130, -1.589e-6, -8.115e-7, 7.778e-7
-0.131, -1.592e-6, -8.127e-7, 7.790e-7
-0.132, -1.590e-6, -8.093e-7, 7.808e-7
-0.133, -1.583e-6, -8.078e-7, 7.747e-7
-0.134, -1.585e-6, -8.075e-7, 7.772e-7
-0.135, -1.581e-6, -8.029e-7, 7.784e-7
-0.136, -1.576e-6, -8.029e-7, 7.735e-7
-0.137, -1.579e-6, -8.029e-7, 7.763e-7
-0.138, -1.573e-6, -7.983e-7, 7.750e-7
-0.139, -1.570e-6, -7.950e-7, 7.750e-7
-0.140, -1.572e-6, -7.965e-7, 7.750e-7
-0.141, -1.569e-6, -7.950e-7, 7.741e-7
-0.142, -1.568e-6, -7.956e-7, 7.723e-7
-0.143, -1.566e-6, -7.944e-7, 7.714e-7
-0.144, -1.562e-6, -7.892e-7, 7.732e-7
-0.145, -1.559e-6, -7.880e-7, 7.708e-7
-0.146, -1.559e-6, -7.883e-7, 7.705e-7
-0.147, -1.556e-6, -7.852e-7, 7.705e-7
-0.148, -1.554e-6, -7.852e-7, 7.686e-7
-0.149, -1.552e-6, -7.834e-7, 7.686e-7
-0.150, -1.547e-6, -7.788e-7, 7.683e-7
-0.151, -1.544e-6, -7.770e-7, 7.674e-7
-0.152, -1.545e-6, -7.779e-7, 7.674e-7
-0.153, -1.540e-6, -7.752e-7, 7.653e-7
-0.154, -1.539e-6, -7.739e-7, 7.650e-7
-0.155, -1.538e-6, -7.736e-7, 7.641e-7
-0.156, -1.531e-6, -7.687e-7, 7.625e-7
-0.157, -1.530e-6, -7.694e-7, 7.604e-7
-0.158, -1.529e-6, -7.666e-7, 7.619e-7
-0.159, -1.529e-6, -7.672e-7, 7.613e-7
-0.160, -1.523e-6, -7.633e-7, 7.595e-7
-0.161, -1.522e-6, -7.630e-7, 7.586e-7
-0.162, -1.519e-6, -7.630e-7, 7.561e-7
-0.163, -1.515e-6, -7.593e-7, 7.561e-7
-0.164, -1.513e-6, -7.559e-7, 7.567e-7
-0.165, -1.508e-6, -7.550e-7, 7.531e-7
-0.166, -1.507e-6, -7.535e-7, 7.534e-7
-0.167, -1.504e-6, -7.511e-7, 7.525e-7
-0.168, -1.501e-6, -7.507e-7, 7.503e-7
-0.169, -1.502e-6, -7.498e-7, 7.519e-7
-0.170, -1.497e-6, -7.474e-7, 7.497e-7
-0.171, -1.493e-6, -7.462e-7, 7.473e-7
-0.172, -1.493e-6, -7.453e-7, 7.473e-7
-0.173, -1.487e-6, -7.407e-7, 7.461e-7
-0.174, -1.489e-6, -7.425e-7, 7.461e-7
-0.175, -1.484e-6, -7.391e-7, 7.445e-7
-0.176, -1.480e-6, -7.379e-7, 7.421e-7
-0.177, -1.478e-6, -7.364e-7, 7.421e-7
-0.178, -1.477e-6, -7.352e-7, 7.421e-7
-0.179, -1.471e-6, -7.324e-7, 7.381e-7
-0.180, -1.474e-6, -7.349e-7, 7.387e-7
-0.181, -1.468e-6, -7.288e-7, 7.396e-7
-0.182, -1.465e-6, -7.291e-7, 7.357e-7
-0.183, -1.463e-6, -7.276e-7, 7.354e-7
-0.184, -1.462e-6, -7.263e-7, 7.357e-7
-0.185, -1.455e-6, -7.242e-7, 7.311e-7
-0.186, -1.458e-6, -7.257e-7, 7.323e-7
-0.187, -1.451e-6, -7.196e-7, 7.311e-7
-0.188, -1.448e-6, -7.205e-7, 7.274e-7
-0.189, -1.454e-6, -7.245e-7, 7.293e-7
-0.190, -1.442e-6, -7.157e-7, 7.268e-7
-0.191, -1.443e-6, -7.172e-7, 7.259e-7
-0.192, -1.441e-6, -7.153e-7, 7.259e-7
-0.193, -1.439e-6, -7.144e-7, 7.250e-7
-0.194, -1.434e-6, -7.126e-7, 7.213e-7
-0.195, -1.432e-6, -7.105e-7, 7.216e-7
-0.196, -1.430e-6, -7.089e-7, 7.210e-7
-0.197, -1.428e-6, -7.111e-7, 7.171e-7
-0.198, -1.426e-6, -7.077e-7, 7.180e-7
-0.199, -1.421e-6, -7.044e-7, 7.171e-7
-0.200, -1.419e-6, -7.047e-7, 7.143e-7
-0.201, -1.418e-6, -7.028e-7, 7.152e-7
-0.202, -1.414e-6, -7.004e-7, 7.134e-7
-0.203, -1.414e-6, -7.022e-7, 7.119e-7
-0.204, -1.413e-6, -7.013e-7, 7.119e-7
-0.205, -1.410e-6, -6.992e-7, 7.104e-7
-0.206, -1.407e-6, -6.989e-7, 7.082e-7
-0.207, -1.405e-6, -6.970e-7, 7.082e-7
-0.208, -1.400e-6, -6.943e-7, 7.058e-7
-0.209, -1.400e-6, -6.949e-7, 7.052e-7
-0.210, -1.394e-6, -6.906e-7, 7.030e-7
-0.211, -1.395e-6, -6.925e-7, 7.030e-7
-0.212, -1.391e-6, -6.909e-7, 7.000e-7
-0.213, -1.388e-6, -6.891e-7, 6.994e-7
-0.214, -1.391e-6, -6.909e-7, 6.997e-7
-0.215, -1.387e-6, -6.879e-7, 6.988e-7
-0.216, -1.385e-6, -6.882e-7, 6.966e-7
-0.217, -1.382e-6, -6.861e-7, 6.957e-7
-0.218, -1.376e-6, -6.824e-7, 6.933e-7
-0.219, -1.377e-6, -6.839e-7, 6.927e-7
-0.220, -1.374e-6, -6.833e-7, 6.911e-7
-0.221, -1.376e-6, -6.839e-7, 6.917e-7
-0.222, -1.374e-6, -6.848e-7, 6.896e-7
-0.223, -1.370e-6, -6.812e-7, 6.893e-7
-0.224, -1.366e-6, -6.787e-7, 6.875e-7
-0.225, -1.363e-6, -6.787e-7, 6.841e-7
-0.226, -1.366e-6, -6.809e-7, 6.847e-7
-0.227, -1.361e-6, -6.769e-7, 6.844e-7
-0.228, -1.358e-6, -6.757e-7, 6.820e-7
-0.229, -1.355e-6, -6.751e-7, 6.801e-7
-0.230, -1.353e-6, -6.732e-7, 6.795e-7
-0.231, -1.349e-6, -6.723e-7, 6.768e-7
-0.232, -1.350e-6, -6.729e-7, 6.771e-7
-0.233, -1.347e-6, -6.699e-7, 6.768e-7
-0.234, -1.346e-6, -6.714e-7, 6.746e-7
-0.235, -1.350e-6, -6.763e-7, 6.737e-7
-0.236, -1.344e-6, -6.690e-7, 6.746e-7
-0.237, -1.340e-6, -6.687e-7, 6.716e-7
-0.238, -1.337e-6, -6.665e-7, 6.707e-7
-0.239, -1.333e-6, -6.644e-7, 6.682e-7
-0.240, -1.335e-6, -6.674e-7, 6.676e-7
-0.241, -1.332e-6, -6.659e-7, 6.664e-7
-0.242, -1.327e-6, -6.632e-7, 6.643e-7
-0.243, -1.326e-6, -6.638e-7, 6.621e-7
-0.244, -1.328e-6, -6.647e-7, 6.637e-7
-0.245, -1.319e-6, -6.601e-7, 6.591e-7
-0.246, -1.323e-6, -6.632e-7, 6.594e-7
-0.247, -1.317e-6, -6.580e-7, 6.588e-7
-0.248, -1.312e-6, -6.583e-7, 6.542e-7
-0.249, -1.314e-6, -6.583e-7, 6.554e-7
-0.250, -1.313e-6, -6.577e-7, 6.551e-7
-0.251, -1.309e-6, -6.568e-7, 6.527e-7
-0.252, -1.309e-6, -6.568e-7, 6.518e-7
-0.253, -1.306e-6, -6.552e-7, 6.511e-7
-0.254, -1.305e-6, -6.561e-7, 6.490e-7
-0.255, -1.305e-6, -6.558e-7, 6.490e-7
-0.256, -1.300e-6, -6.513e-7, 6.487e-7
-0.257, -1.296e-6, -6.516e-7, 6.444e-7
-0.258, -1.298e-6, -6.534e-7, 6.444e-7
-0.259, -1.295e-6, -6.500e-7, 6.450e-7
-0.260, -1.294e-6, -6.516e-7, 6.420e-7
-0.261, -1.291e-6, -6.503e-7, 6.411e-7
-0.262, -1.292e-6, -6.507e-7, 6.411e-7
-0.263, -1.288e-6, -6.500e-7, 6.383e-7
-0.264, -1.294e-6, -6.574e-7, 6.371e-7
-0.265, -1.286e-6, -6.494e-7, 6.362e-7
-0.266, -1.284e-6, -6.494e-7, 6.347e-7
-0.267, -1.281e-6, -6.473e-7, 6.341e-7
-0.268, -1.280e-6, -6.461e-7, 6.341e-7
-0.269, -1.279e-6, -6.467e-7, 6.322e-7
-0.270, -1.276e-6, -6.455e-7, 6.304e-7
-0.271, -1.274e-6, -6.442e-7, 6.301e-7
-0.272, -1.273e-6, -6.449e-7, 6.283e-7
-0.273, -1.271e-6, -6.433e-7, 6.280e-7
-0.274, -1.270e-6, -6.452e-7, 6.252e-7
-0.275, -1.267e-6, -6.421e-7, 6.252e-7
-0.276, -1.263e-6, -6.397e-7, 6.237e-7
-0.277, -1.265e-6, -6.433e-7, 6.219e-7
-0.278, -1.263e-6, -6.418e-7, 6.212e-7
-0.279, -1.260e-6, -6.403e-7, 6.194e-7
-0.280, -1.261e-6, -6.418e-7, 6.194e-7
-0.281, -1.258e-6, -6.403e-7, 6.179e-7
-0.282, -1.256e-6, -6.384e-7, 6.179e-7
-0.283, -1.255e-6, -6.400e-7, 6.151e-7
-0.284, -1.256e-6, -6.384e-7, 6.173e-7
-0.285, -1.252e-6, -6.372e-7, 6.151e-7
-0.286, -1.251e-6, -6.375e-7, 6.139e-7
-0.287, -1.250e-6, -6.375e-7, 6.127e-7
-0.288, -1.247e-6, -6.360e-7, 6.106e-7
-0.289, -1.246e-6, -6.351e-7, 6.109e-7
-0.290, -1.247e-6, -6.363e-7, 6.103e-7
-0.291, -1.244e-6, -6.348e-7, 6.087e-7
-0.292, -1.244e-6, -6.369e-7, 6.069e-7
-0.293, -1.241e-6, -6.342e-7, 6.072e-7
-0.294, -1.240e-6, -6.342e-7, 6.063e-7
-0.295, -1.239e-6, -6.336e-7, 6.054e-7
-0.296, -1.238e-6, -6.327e-7, 6.054e-7
-0.297, -1.237e-6, -6.336e-7, 6.038e-7
-0.298, -1.237e-6, -6.351e-7, 6.023e-7
-0.299, -1.234e-6, -6.317e-7, 6.023e-7
-0.300, -1.234e-6, -6.351e-7, 5.990e-7
-0.301, -1.233e-6, -6.330e-7, 6.002e-7
-0.302, -1.231e-6, -6.320e-7, 5.987e-7
-0.303, -1.229e-6, -6.327e-7, 5.968e-7
-0.304, -1.231e-6, -6.317e-7, 5.990e-7
-0.305, -1.231e-6, -6.336e-7, 5.971e-7
-0.306, -1.228e-6, -6.342e-7, 5.935e-7
-0.307, -1.229e-6, -6.333e-7, 5.959e-7
-0.308, -1.227e-6, -6.320e-7, 5.950e-7
-0.309, -1.224e-6, -6.323e-7, 5.916e-7
-0.310, -1.226e-6, -6.327e-7, 5.935e-7
-0.311, -1.222e-6, -6.302e-7, 5.919e-7
-0.312, -1.223e-6, -6.327e-7, 5.904e-7
-0.313, -1.225e-6, -6.317e-7, 5.929e-7
-0.314, -1.222e-6, -6.305e-7, 5.910e-7
-0.315, -1.220e-6, -6.317e-7, 5.883e-7
-0.316, -1.220e-6, -6.314e-7, 5.886e-7
-0.317, -1.218e-6, -6.308e-7, 5.877e-7
-0.318, -1.218e-6, -6.314e-7, 5.871e-7
-0.319, -1.219e-6, -6.320e-7, 5.874e-7
-0.320, -1.215e-6, -6.293e-7, 5.852e-7
-0.321, -1.217e-6, -6.330e-7, 5.837e-7
-0.322, -1.217e-6, -6.314e-7, 5.858e-7
-0.323, -1.213e-6, -6.287e-7, 5.840e-7
-0.324, -1.215e-6, -6.327e-7, 5.822e-7
-0.325, -1.218e-6, -6.345e-7, 5.834e-7
-0.326, -1.216e-6, -6.336e-7, 5.822e-7
-0.327, -1.211e-6, -6.296e-7, 5.810e-7
-0.328, -1.212e-6, -6.308e-7, 5.810e-7
-0.329, -1.210e-6, -6.299e-7, 5.800e-7
-0.330, -1.212e-6, -6.323e-7, 5.800e-7
-0.331, -1.211e-6, -6.317e-7, 5.797e-7
-0.332, -1.211e-6, -6.320e-7, 5.785e-7
-0.333, -1.208e-6, -6.296e-7, 5.788e-7
-0.334, -1.208e-6, -6.311e-7, 5.767e-7
-0.335, -1.208e-6, -6.333e-7, 5.742e-7
-0.336, -1.209e-6, -6.333e-7, 5.755e-7
-0.337, -1.206e-6, -6.311e-7, 5.752e-7
-0.338, -1.209e-6, -6.345e-7, 5.746e-7
-0.339, -1.205e-6, -6.302e-7, 5.752e-7
-0.340, -1.202e-6, -6.296e-7, 5.724e-7
-0.341, -1.204e-6, -6.308e-7, 5.736e-7
-0.342, -1.208e-6, -6.333e-7, 5.742e-7
-0.343, -1.204e-6, -6.330e-7, 5.715e-7
-0.344, -1.204e-6, -6.339e-7, 5.706e-7
-0.345, -1.207e-6, -6.348e-7, 5.718e-7
-0.346, -1.204e-6, -6.327e-7, 5.709e-7
-0.347, -1.205e-6, -6.351e-7, 5.697e-7
-0.348, -1.200e-6, -6.302e-7, 5.694e-7
-0.349, -1.200e-6, -6.320e-7, 5.681e-7
-0.350, -1.203e-6, -6.345e-7, 5.685e-7
-0.351, -1.202e-6, -6.342e-7, 5.675e-7
-0.352, -1.200e-6, -6.333e-7, 5.663e-7
-0.353, -1.201e-6, -6.336e-7, 5.672e-7
-0.354, -1.201e-6, -6.354e-7, 5.654e-7
-0.355, -1.199e-6, -6.351e-7, 5.642e-7
-0.356, -1.199e-6, -6.342e-7, 5.648e-7
-0.357, -1.197e-6, -6.330e-7, 5.645e-7
-0.358, -1.198e-6, -6.348e-7, 5.630e-7
-0.359, -1.198e-6, -6.342e-7, 5.642e-7
-0.360, -1.195e-6, -6.330e-7, 5.620e-7
-0.361, -1.198e-6, -6.366e-7, 5.611e-7
-0.362, -1.197e-6, -6.345e-7, 5.620e-7
-0.363, -1.194e-6, -6.330e-7, 5.608e-7
-0.364, -1.195e-6, -6.348e-7, 5.602e-7
-0.365, -1.194e-6, -6.339e-7, 5.602e-7
-0.366, -1.193e-6, -6.348e-7, 5.581e-7
-0.367, -1.197e-6, -6.391e-7, 5.584e-7
-0.368, -1.195e-6, -6.354e-7, 5.593e-7
-0.369, -1.194e-6, -6.372e-7, 5.569e-7
-0.370, -1.195e-6, -6.391e-7, 5.562e-7
-0.371, -1.193e-6, -6.354e-7, 5.572e-7
-0.372, -1.193e-6, -6.375e-7, 5.556e-7
-0.373, -1.195e-6, -6.397e-7, 5.550e-7
-0.374, -1.194e-6, -6.378e-7, 5.559e-7
-0.375, -1.193e-6, -6.400e-7, 5.535e-7
-0.376, -1.194e-6, -6.403e-7, 5.535e-7
-0.377, -1.192e-6, -6.378e-7, 5.538e-7
-0.378, -1.189e-6, -6.372e-7, 5.520e-7
-0.379, -1.193e-6, -6.406e-7, 5.529e-7
-0.380, -1.193e-6, -6.406e-7, 5.523e-7
-0.381, -1.193e-6, -6.424e-7, 5.508e-7
-0.382, -1.191e-6, -6.409e-7, 5.498e-7
-0.383, -1.190e-6, -6.400e-7, 5.495e-7
-0.384, -1.190e-6, -6.427e-7, 5.471e-7
-0.385, -1.187e-6, -6.384e-7, 5.489e-7
-0.386, -1.187e-6, -6.403e-7, 5.468e-7
-0.387, -1.189e-6, -6.412e-7, 5.474e-7
-0.388, -1.190e-6, -6.439e-7, 5.456e-7
-0.389, -1.190e-6, -6.436e-7, 5.459e-7
-0.390, -1.187e-6, -6.424e-7, 5.446e-7
-0.391, -1.190e-6, -6.439e-7, 5.456e-7
-0.392, -1.187e-6, -6.430e-7, 5.443e-7
-0.393, -1.189e-6, -6.442e-7, 5.450e-7
-0.394, -1.186e-6, -6.436e-7, 5.425e-7
-0.395, -1.186e-6, -6.455e-7, 5.410e-7
-0.396, -1.188e-6, -6.455e-7, 5.422e-7
-0.397, -1.187e-6, -6.458e-7, 5.413e-7
-0.398, -1.186e-6, -6.473e-7, 5.392e-7
-0.399, -1.190e-6, -6.482e-7, 5.419e-7
-0.400, -1.187e-6, -6.488e-7, 5.382e-7
