Feb. 28, 2018   15:08:42
Square Wave Voltammetry
File: c:\users\electrochemist\desktop\2018\28022018_unbuffered_9,2\66_e5_9,2_0118_ph9,98_1.txt
Data Source:  Experiment
Instrument Model:  CHI1040A
Header: 
Note: 

Init E (V) = 0.5
Final E (V) = -0.1
Incr E (V) = 0.001
Amplitude (V) = 0.1
Frequency (Hz) = 150
Quiet Time (sec) = 0
Sensitivity (A/V) = 1e-6

Difference:

Forward:

Reverse:

Potential/V, Diff(i/A), For(i/A), Rev(i/A)

0.499, -7.287e-7, -1.304e-7, 5.984e-7
0.498, -7.925e-7, -2.842e-7, 5.083e-7
0.497, -7.699e-7, -2.985e-7, 4.714e-7
0.496, -7.482e-7, -3.015e-7, 4.467e-7
0.495, -7.336e-7, -3.046e-7, 4.290e-7
0.494, -7.220e-7, -3.058e-7, 4.162e-7
0.493, -7.128e-7, -3.055e-7, 4.073e-7
0.492, -7.016e-7, -3.055e-7, 3.960e-7
0.491, -6.985e-7, -3.080e-7, 3.906e-7
0.490, -6.903e-7, -3.073e-7, 3.829e-7
0.489, -6.863e-7, -3.086e-7, 3.777e-7
0.488, -6.823e-7, -3.080e-7, 3.744e-7
0.487, -6.759e-7, -3.083e-7, 3.677e-7
0.486, -6.713e-7, -3.080e-7, 3.634e-7
0.485, -6.692e-7, -3.086e-7, 3.606e-7
0.484, -6.656e-7, -3.083e-7, 3.573e-7
0.483, -6.622e-7, -3.089e-7, 3.533e-7
0.482, -6.607e-7, -3.086e-7, 3.521e-7
0.481, -6.543e-7, -3.073e-7, 3.469e-7
0.480, -6.512e-7, -3.073e-7, 3.439e-7
0.479, -6.491e-7, -3.064e-7, 3.426e-7
0.478, -6.472e-7, -3.073e-7, 3.399e-7
0.477, -6.479e-7, -3.083e-7, 3.396e-7
0.476, -6.427e-7, -3.073e-7, 3.353e-7
0.475, -6.411e-7, -3.058e-7, 3.353e-7
0.474, -6.393e-7, -3.067e-7, 3.326e-7
0.473, -6.375e-7, -3.064e-7, 3.310e-7
0.472, -6.369e-7, -3.067e-7, 3.301e-7
0.471, -6.363e-7, -3.076e-7, 3.286e-7
0.470, -6.332e-7, -3.070e-7, 3.262e-7
0.469, -6.302e-7, -3.052e-7, 3.249e-7
0.468, -6.298e-7, -3.086e-7, 3.213e-7
0.467, -6.292e-7, -3.070e-7, 3.222e-7
0.466, -6.274e-7, -3.058e-7, 3.216e-7
0.465, -6.262e-7, -3.080e-7, 3.182e-7
0.464, -6.247e-7, -3.061e-7, 3.185e-7
0.463, -6.225e-7, -3.052e-7, 3.173e-7
0.462, -6.234e-7, -3.076e-7, 3.158e-7
0.461, -6.210e-7, -3.055e-7, 3.155e-7
0.460, -6.186e-7, -3.052e-7, 3.133e-7
0.459, -6.183e-7, -3.055e-7, 3.127e-7
0.458, -6.179e-7, -3.064e-7, 3.115e-7
0.457, -6.167e-7, -3.058e-7, 3.109e-7
0.456, -6.155e-7, -3.061e-7, 3.094e-7
0.455, -6.164e-7, -3.061e-7, 3.103e-7
0.454, -6.149e-7, -3.058e-7, 3.091e-7
0.453, -6.118e-7, -3.055e-7, 3.063e-7
0.452, -6.118e-7, -3.052e-7, 3.066e-7
0.451, -6.106e-7, -3.049e-7, 3.057e-7
0.450, -6.094e-7, -3.046e-7, 3.048e-7
0.449, -6.106e-7, -3.049e-7, 3.057e-7
0.448, -6.088e-7, -3.058e-7, 3.030e-7
0.447, -6.073e-7, -3.055e-7, 3.018e-7
0.446, -6.079e-7, -3.043e-7, 3.036e-7
0.445, -6.060e-7, -3.043e-7, 3.018e-7
0.444, -6.063e-7, -3.055e-7, 3.008e-7
0.443, -6.045e-7, -3.043e-7, 3.002e-7
0.442, -6.045e-7, -3.046e-7, 2.999e-7
0.441, -6.024e-7, -3.046e-7, 2.978e-7
0.440, -6.057e-7, -3.064e-7, 2.993e-7
0.439, -6.030e-7, -3.043e-7, 2.987e-7
0.438, -6.027e-7, -3.058e-7, 2.969e-7
0.437, -6.027e-7, -3.043e-7, 2.984e-7
0.436, -6.015e-7, -3.046e-7, 2.969e-7
0.435, -5.996e-7, -3.061e-7, 2.935e-7
0.434, -6.006e-7, -3.049e-7, 2.956e-7
0.433, -6.002e-7, -3.052e-7, 2.950e-7
0.432, -5.972e-7, -3.046e-7, 2.926e-7
0.431, -5.996e-7, -3.049e-7, 2.947e-7
0.430, -5.966e-7, -3.040e-7, 2.926e-7
0.429, -5.984e-7, -3.049e-7, 2.935e-7
0.428, -5.963e-7, -3.049e-7, 2.914e-7
0.427, -5.963e-7, -3.037e-7, 2.926e-7
0.426, -5.975e-7, -3.055e-7, 2.920e-7
0.425, -5.954e-7, -3.043e-7, 2.911e-7
0.424, -5.963e-7, -3.049e-7, 2.914e-7
0.423, -5.954e-7, -3.055e-7, 2.898e-7
0.422, -5.954e-7, -3.055e-7, 2.898e-7
0.421, -5.951e-7, -3.043e-7, 2.908e-7
0.420, -5.951e-7, -3.064e-7, 2.886e-7
0.419, -5.951e-7, -3.055e-7, 2.895e-7
0.418, -5.917e-7, -3.037e-7, 2.880e-7
0.417, -5.941e-7, -3.064e-7, 2.877e-7
0.416, -5.957e-7, -3.058e-7, 2.898e-7
0.415, -5.917e-7, -3.043e-7, 2.874e-7
0.414, -5.960e-7, -3.064e-7, 2.895e-7
0.413, -5.929e-7, -3.064e-7, 2.865e-7
0.412, -5.911e-7, -3.049e-7, 2.862e-7
0.411, -5.935e-7, -3.070e-7, 2.865e-7
0.410, -5.920e-7, -3.055e-7, 2.865e-7
0.409, -5.929e-7, -3.055e-7, 2.874e-7
0.408, -5.944e-7, -3.067e-7, 2.877e-7
0.407, -5.929e-7, -3.070e-7, 2.859e-7
0.406, -5.917e-7, -3.067e-7, 2.850e-7
0.405, -5.932e-7, -3.070e-7, 2.862e-7
0.404, -5.905e-7, -3.058e-7, 2.847e-7
0.403, -5.908e-7, -3.064e-7, 2.844e-7
0.402, -5.899e-7, -3.061e-7, 2.837e-7
0.401, -5.917e-7, -3.070e-7, 2.847e-7
0.400, -5.911e-7, -3.073e-7, 2.837e-7
0.399, -5.902e-7, -3.073e-7, 2.828e-7
0.398, -5.905e-7, -3.067e-7, 2.837e-7
0.397, -5.893e-7, -3.061e-7, 2.831e-7
0.396, -5.899e-7, -3.067e-7, 2.831e-7
0.395, -5.908e-7, -3.077e-7, 2.831e-7
0.394, -5.905e-7, -3.067e-7, 2.837e-7
0.393, -5.917e-7, -3.073e-7, 2.844e-7
0.392, -5.893e-7, -3.064e-7, 2.828e-7
0.391, -5.890e-7, -3.070e-7, 2.819e-7
0.390, -5.911e-7, -3.086e-7, 2.825e-7
0.389, -5.902e-7, -3.070e-7, 2.831e-7
0.388, -5.905e-7, -3.086e-7, 2.819e-7
0.387, -5.905e-7, -3.089e-7, 2.816e-7
0.386, -5.911e-7, -3.083e-7, 2.828e-7
0.385, -5.890e-7, -3.077e-7, 2.813e-7
0.384, -5.914e-7, -3.092e-7, 2.822e-7
0.383, -5.908e-7, -3.089e-7, 2.819e-7
0.382, -5.899e-7, -3.086e-7, 2.813e-7
0.381, -5.893e-7, -3.086e-7, 2.807e-7
0.380, -5.923e-7, -3.092e-7, 2.831e-7
0.379, -5.902e-7, -3.095e-7, 2.807e-7
0.378, -5.899e-7, -3.104e-7, 2.795e-7
0.377, -5.893e-7, -3.086e-7, 2.807e-7
0.376, -5.908e-7, -3.101e-7, 2.807e-7
0.375, -5.902e-7, -3.098e-7, 2.804e-7
0.374, -5.908e-7, -3.095e-7, 2.813e-7
0.373, -5.902e-7, -3.098e-7, 2.804e-7
0.372, -5.911e-7, -3.104e-7, 2.807e-7
0.371, -5.905e-7, -3.095e-7, 2.810e-7
0.370, -5.935e-7, -3.116e-7, 2.819e-7
0.369, -5.929e-7, -3.131e-7, 2.798e-7
0.368, -5.917e-7, -3.113e-7, 2.804e-7
0.367, -5.902e-7, -3.110e-7, 2.792e-7
0.366, -5.911e-7, -3.113e-7, 2.798e-7
0.365, -5.902e-7, -3.110e-7, 2.792e-7
0.364, -5.917e-7, -3.119e-7, 2.798e-7
0.363, -5.938e-7, -3.125e-7, 2.813e-7
0.362, -5.917e-7, -3.119e-7, 2.798e-7
0.361, -5.920e-7, -3.128e-7, 2.792e-7
0.360, -5.911e-7, -3.128e-7, 2.783e-7
0.359, -5.902e-7, -3.101e-7, 2.801e-7
0.358, -5.914e-7, -3.125e-7, 2.789e-7
0.357, -5.926e-7, -3.131e-7, 2.795e-7
0.356, -5.941e-7, -3.128e-7, 2.813e-7
0.355, -5.920e-7, -3.131e-7, 2.789e-7
0.354, -5.926e-7, -3.134e-7, 2.792e-7
0.353, -5.914e-7, -3.125e-7, 2.789e-7
0.352, -5.917e-7, -3.138e-7, 2.779e-7
0.351, -5.948e-7, -3.147e-7, 2.801e-7
0.350, -5.957e-7, -3.147e-7, 2.810e-7
0.349, -5.938e-7, -3.141e-7, 2.798e-7
0.348, -5.954e-7, -3.156e-7, 2.798e-7
0.347, -5.926e-7, -3.134e-7, 2.792e-7
0.346, -5.944e-7, -3.150e-7, 2.795e-7
0.345, -5.957e-7, -3.171e-7, 2.786e-7
0.344, -5.948e-7, -3.153e-7, 2.795e-7
0.343, -5.944e-7, -3.165e-7, 2.779e-7
0.342, -5.963e-7, -3.159e-7, 2.804e-7
0.341, -5.966e-7, -3.168e-7, 2.798e-7
0.340, -5.957e-7, -3.168e-7, 2.789e-7
0.339, -5.975e-7, -3.177e-7, 2.798e-7
0.338, -5.981e-7, -3.180e-7, 2.801e-7
0.337, -5.972e-7, -3.180e-7, 2.792e-7
0.336, -5.984e-7, -3.180e-7, 2.804e-7
0.335, -5.966e-7, -3.177e-7, 2.789e-7
0.334, -5.987e-7, -3.189e-7, 2.798e-7
0.333, -5.966e-7, -3.180e-7, 2.786e-7
0.332, -5.957e-7, -3.168e-7, 2.789e-7
0.331, -5.990e-7, -3.208e-7, 2.783e-7
0.330, -6.015e-7, -3.214e-7, 2.801e-7
0.329, -5.972e-7, -3.183e-7, 2.789e-7
0.328, -5.984e-7, -3.196e-7, 2.789e-7
0.327, -5.993e-7, -3.189e-7, 2.804e-7
0.326, -5.981e-7, -3.186e-7, 2.795e-7
0.325, -5.972e-7, -3.211e-7, 2.761e-7
0.324, -6.009e-7, -3.211e-7, 2.798e-7
0.323, -5.981e-7, -3.192e-7, 2.789e-7
0.322, -6.009e-7, -3.217e-7, 2.792e-7
0.321, -6.021e-7, -3.217e-7, 2.804e-7
0.320, -5.999e-7, -3.202e-7, 2.798e-7
0.319, -6.021e-7, -3.235e-7, 2.786e-7
0.318, -6.030e-7, -3.220e-7, 2.810e-7
0.317, -6.021e-7, -3.220e-7, 2.801e-7
0.316, -6.045e-7, -3.247e-7, 2.798e-7
0.315, -6.051e-7, -3.232e-7, 2.819e-7
0.314, -6.030e-7, -3.217e-7, 2.813e-7
0.313, -6.033e-7, -3.235e-7, 2.798e-7
0.312, -6.060e-7, -3.238e-7, 2.822e-7
0.311, -6.039e-7, -3.235e-7, 2.804e-7
0.310, -6.045e-7, -3.254e-7, 2.792e-7
0.309, -6.082e-7, -3.260e-7, 2.822e-7
0.308, -6.048e-7, -3.244e-7, 2.804e-7
0.307, -6.067e-7, -3.263e-7, 2.804e-7
0.306, -6.094e-7, -3.266e-7, 2.828e-7
0.305, -6.067e-7, -3.244e-7, 2.822e-7
0.304, -6.070e-7, -3.269e-7, 2.801e-7
0.303, -6.082e-7, -3.272e-7, 2.810e-7
0.302, -6.070e-7, -3.257e-7, 2.813e-7
0.301, -6.076e-7, -3.284e-7, 2.792e-7
0.300, -6.103e-7, -3.266e-7, 2.837e-7
0.299, -6.091e-7, -3.272e-7, 2.819e-7
0.298, -6.091e-7, -3.293e-7, 2.798e-7
0.297, -6.106e-7, -3.278e-7, 2.828e-7
0.296, -6.085e-7, -3.266e-7, 2.819e-7
0.295, -6.106e-7, -3.302e-7, 2.804e-7
0.294, -6.134e-7, -3.302e-7, 2.831e-7
0.293, -6.115e-7, -3.296e-7, 2.819e-7
0.292, -6.131e-7, -3.315e-7, 2.816e-7
0.291, -6.131e-7, -3.305e-7, 2.825e-7
0.290, -6.112e-7, -3.293e-7, 2.819e-7
0.289, -6.134e-7, -3.324e-7, 2.810e-7
0.288, -6.164e-7, -3.324e-7, 2.841e-7
0.287, -6.143e-7, -3.318e-7, 2.825e-7
0.286, -6.146e-7, -3.330e-7, 2.816e-7
0.285, -6.183e-7, -3.327e-7, 2.856e-7
0.284, -6.137e-7, -3.318e-7, 2.819e-7
0.283, -6.158e-7, -3.345e-7, 2.813e-7
0.282, -6.176e-7, -3.333e-7, 2.844e-7
0.281, -6.161e-7, -3.321e-7, 2.841e-7
0.280, -6.179e-7, -3.354e-7, 2.825e-7
0.279, -6.201e-7, -3.342e-7, 2.859e-7
0.278, -6.164e-7, -3.321e-7, 2.844e-7
0.277, -6.198e-7, -3.357e-7, 2.841e-7
0.276, -6.207e-7, -3.360e-7, 2.847e-7
0.275, -6.201e-7, -3.354e-7, 2.847e-7
0.274, -6.207e-7, -3.373e-7, 2.834e-7
0.273, -6.237e-7, -3.366e-7, 2.871e-7
0.272, -6.213e-7, -3.369e-7, 2.844e-7
0.271, -6.204e-7, -3.373e-7, 2.831e-7
0.270, -6.244e-7, -3.376e-7, 2.868e-7
0.269, -6.225e-7, -3.369e-7, 2.856e-7
0.268, -6.237e-7, -3.400e-7, 2.837e-7
0.267, -6.259e-7, -3.397e-7, 2.862e-7
0.266, -6.234e-7, -3.373e-7, 2.862e-7
0.265, -6.244e-7, -3.391e-7, 2.853e-7
0.264, -6.286e-7, -3.397e-7, 2.889e-7
0.263, -6.253e-7, -3.394e-7, 2.859e-7
0.262, -6.292e-7, -3.421e-7, 2.871e-7
0.261, -6.286e-7, -3.403e-7, 2.883e-7
0.260, -6.286e-7, -3.409e-7, 2.877e-7
0.259, -6.277e-7, -3.418e-7, 2.859e-7
0.258, -6.311e-7, -3.421e-7, 2.889e-7
0.257, -6.286e-7, -3.418e-7, 2.868e-7
0.256, -6.295e-7, -3.437e-7, 2.859e-7
0.255, -6.320e-7, -3.437e-7, 2.883e-7
0.254, -6.298e-7, -3.427e-7, 2.871e-7
0.253, -6.329e-7, -3.452e-7, 2.877e-7
0.252, -6.356e-7, -3.458e-7, 2.898e-7
0.251, -6.326e-7, -3.446e-7, 2.880e-7
0.250, -6.344e-7, -3.458e-7, 2.886e-7
0.249, -6.372e-7, -3.467e-7, 2.905e-7
0.248, -6.360e-7, -3.461e-7, 2.898e-7
0.247, -6.378e-7, -3.488e-7, 2.889e-7
0.246, -6.372e-7, -3.470e-7, 2.902e-7
0.245, -6.378e-7, -3.482e-7, 2.895e-7
0.244, -6.381e-7, -3.482e-7, 2.898e-7
0.243, -6.393e-7, -3.482e-7, 2.911e-7
0.242, -6.381e-7, -3.479e-7, 2.902e-7
0.241, -6.402e-7, -3.498e-7, 2.905e-7
0.240, -6.414e-7, -3.488e-7, 2.926e-7
0.239, -6.421e-7, -3.504e-7, 2.917e-7
0.238, -6.433e-7, -3.516e-7, 2.917e-7
0.237, -6.430e-7, -3.504e-7, 2.926e-7
0.236, -6.436e-7, -3.507e-7, 2.929e-7
0.235, -6.451e-7, -3.525e-7, 2.926e-7
0.234, -6.460e-7, -3.516e-7, 2.944e-7
0.233, -6.448e-7, -3.519e-7, 2.929e-7
0.232, -6.454e-7, -3.528e-7, 2.926e-7
0.231, -6.479e-7, -3.528e-7, 2.950e-7
0.230, -6.457e-7, -3.528e-7, 2.929e-7
0.229, -6.485e-7, -3.559e-7, 2.926e-7
0.228, -6.506e-7, -3.550e-7, 2.956e-7
0.227, -6.482e-7, -3.546e-7, 2.935e-7
0.226, -6.506e-7, -3.562e-7, 2.944e-7
0.225, -6.515e-7, -3.562e-7, 2.953e-7
0.224, -6.521e-7, -3.565e-7, 2.956e-7
0.223, -6.518e-7, -3.577e-7, 2.941e-7
0.222, -6.533e-7, -3.574e-7, 2.960e-7
0.221, -6.536e-7, -3.571e-7, 2.966e-7
0.220, -6.552e-7, -3.595e-7, 2.956e-7
0.219, -6.570e-7, -3.586e-7, 2.984e-7
0.218, -6.561e-7, -3.592e-7, 2.969e-7
0.217, -6.585e-7, -3.620e-7, 2.966e-7
0.216, -6.591e-7, -3.595e-7, 2.996e-7
0.215, -6.573e-7, -3.604e-7, 2.969e-7
0.214, -6.582e-7, -3.611e-7, 2.972e-7
0.213, -6.610e-7, -3.617e-7, 2.993e-7
0.212, -6.610e-7, -3.620e-7, 2.990e-7
0.211, -6.613e-7, -3.632e-7, 2.981e-7
0.210, -6.643e-7, -3.632e-7, 3.011e-7
0.209, -6.631e-7, -3.638e-7, 2.993e-7
0.208, -6.631e-7, -3.650e-7, 2.981e-7
0.207, -6.656e-7, -3.644e-7, 3.011e-7
0.206, -6.649e-7, -3.647e-7, 3.002e-7
0.205, -6.662e-7, -3.656e-7, 3.005e-7
0.204, -6.668e-7, -3.650e-7, 3.017e-7
0.203, -6.665e-7, -3.653e-7, 3.011e-7
0.202, -6.680e-7, -3.678e-7, 3.002e-7
0.201, -6.695e-7, -3.669e-7, 3.027e-7
0.200, -6.704e-7, -3.675e-7, 3.030e-7
0.199, -6.692e-7, -3.678e-7, 3.014e-7
0.198, -6.717e-7, -3.675e-7, 3.042e-7
0.197, -6.726e-7, -3.696e-7, 3.030e-7
0.196, -6.738e-7, -3.708e-7, 3.030e-7
0.195, -6.744e-7, -3.705e-7, 3.039e-7
0.194, -6.744e-7, -3.708e-7, 3.036e-7
0.193, -6.768e-7, -3.727e-7, 3.042e-7
0.192, -6.756e-7, -3.711e-7, 3.045e-7
0.191, -6.768e-7, -3.717e-7, 3.051e-7
0.190, -6.799e-7, -3.742e-7, 3.057e-7
0.189, -6.796e-7, -3.730e-7, 3.066e-7
0.188, -6.784e-7, -3.742e-7, 3.042e-7
0.187, -6.805e-7, -3.742e-7, 3.063e-7
0.186, -6.829e-7, -3.754e-7, 3.075e-7
0.185, -6.820e-7, -3.754e-7, 3.066e-7
0.184, -6.839e-7, -3.772e-7, 3.066e-7
0.183, -6.842e-7, -3.760e-7, 3.082e-7
0.182, -6.851e-7, -3.784e-7, 3.066e-7
0.181, -6.863e-7, -3.781e-7, 3.082e-7
0.180, -6.851e-7, -3.760e-7, 3.091e-7
0.179, -6.872e-7, -3.784e-7, 3.088e-7
0.178, -6.900e-7, -3.800e-7, 3.100e-7
0.177, -6.906e-7, -3.803e-7, 3.103e-7
0.176, -6.890e-7, -3.803e-7, 3.088e-7
0.175, -6.924e-7, -3.821e-7, 3.103e-7
0.174, -6.924e-7, -3.809e-7, 3.115e-7
0.173, -6.930e-7, -3.827e-7, 3.103e-7
0.172, -6.942e-7, -3.827e-7, 3.115e-7
0.171, -6.955e-7, -3.827e-7, 3.127e-7
0.170, -6.933e-7, -3.827e-7, 3.106e-7
0.169, -6.976e-7, -3.858e-7, 3.118e-7
0.168, -6.970e-7, -3.842e-7, 3.127e-7
0.167, -7.000e-7, -3.855e-7, 3.146e-7
0.166, -7.006e-7, -3.867e-7, 3.140e-7
0.165, -6.997e-7, -3.858e-7, 3.140e-7
0.164, -6.997e-7, -3.870e-7, 3.127e-7
0.163, -7.028e-7, -3.879e-7, 3.149e-7
0.162, -7.031e-7, -3.873e-7, 3.158e-7
0.161, -7.043e-7, -3.894e-7, 3.149e-7
0.160, -7.046e-7, -3.894e-7, 3.152e-7
0.159, -7.049e-7, -3.885e-7, 3.164e-7
0.158, -7.077e-7, -3.913e-7, 3.164e-7
0.157, -7.083e-7, -3.922e-7, 3.161e-7
0.156, -7.101e-7, -3.919e-7, 3.182e-7
0.155, -7.086e-7, -3.922e-7, 3.164e-7
0.154, -7.098e-7, -3.925e-7, 3.173e-7
0.153, -7.110e-7, -3.928e-7, 3.182e-7
0.152, -7.135e-7, -3.952e-7, 3.182e-7
0.151, -7.159e-7, -3.965e-7, 3.194e-7
0.150, -7.171e-7, -3.955e-7, 3.216e-7
0.149, -7.165e-7, -3.961e-7, 3.204e-7
0.148, -7.183e-7, -3.971e-7, 3.213e-7
0.147, -7.193e-7, -3.980e-7, 3.213e-7
0.146, -7.211e-7, -3.989e-7, 3.222e-7
0.145, -7.217e-7, -3.992e-7, 3.225e-7
0.144, -7.217e-7, -3.998e-7, 3.219e-7
0.143, -7.238e-7, -4.013e-7, 3.225e-7
0.142, -7.254e-7, -4.019e-7, 3.234e-7
0.141, -7.248e-7, -4.019e-7, 3.228e-7
0.140, -7.260e-7, -4.026e-7, 3.234e-7
0.139, -7.281e-7, -4.035e-7, 3.246e-7
0.138, -7.287e-7, -4.035e-7, 3.252e-7
0.137, -7.312e-7, -4.053e-7, 3.259e-7
0.136, -7.309e-7, -4.053e-7, 3.256e-7
0.135, -7.333e-7, -4.068e-7, 3.265e-7
0.134, -7.327e-7, -4.074e-7, 3.252e-7
0.133, -7.354e-7, -4.084e-7, 3.271e-7
0.132, -7.357e-7, -4.084e-7, 3.274e-7
0.131, -7.382e-7, -4.105e-7, 3.277e-7
0.130, -7.394e-7, -4.102e-7, 3.292e-7
0.129, -7.394e-7, -4.108e-7, 3.286e-7
0.128, -7.403e-7, -4.108e-7, 3.295e-7
0.127, -7.409e-7, -4.111e-7, 3.298e-7
0.126, -7.431e-7, -4.120e-7, 3.310e-7
0.125, -7.425e-7, -4.132e-7, 3.292e-7
0.124, -7.449e-7, -4.142e-7, 3.307e-7
0.123, -7.473e-7, -4.157e-7, 3.317e-7
0.122, -7.479e-7, -4.163e-7, 3.317e-7
0.121, -7.504e-7, -4.175e-7, 3.329e-7
0.120, -7.495e-7, -4.169e-7, 3.326e-7
0.119, -7.519e-7, -4.184e-7, 3.335e-7
0.118, -7.550e-7, -4.196e-7, 3.353e-7
0.117, -7.547e-7, -4.200e-7, 3.347e-7
0.116, -7.547e-7, -4.200e-7, 3.347e-7
0.115, -7.586e-7, -4.215e-7, 3.371e-7
0.114, -7.571e-7, -4.206e-7, 3.365e-7
0.113, -7.595e-7, -4.224e-7, 3.371e-7
0.112, -7.626e-7, -4.242e-7, 3.384e-7
0.111, -7.620e-7, -4.242e-7, 3.378e-7
0.110, -7.644e-7, -4.251e-7, 3.393e-7
0.109, -7.653e-7, -4.270e-7, 3.384e-7
0.108, -7.666e-7, -4.270e-7, 3.396e-7
0.107, -7.687e-7, -4.282e-7, 3.405e-7
0.106, -7.693e-7, -4.285e-7, 3.408e-7
0.105, -7.721e-7, -4.300e-7, 3.420e-7
0.104, -7.730e-7, -4.303e-7, 3.426e-7
0.103, -7.733e-7, -4.300e-7, 3.432e-7
0.102, -7.757e-7, -4.325e-7, 3.432e-7
0.101, -7.763e-7, -4.328e-7, 3.436e-7
0.100, -7.794e-7, -4.343e-7, 3.451e-7
0.099, -7.794e-7, -4.346e-7, 3.448e-7
0.098, -7.803e-7, -4.349e-7, 3.454e-7
0.097, -7.827e-7, -4.367e-7, 3.460e-7
0.096, -7.843e-7, -4.373e-7, 3.469e-7
0.095, -7.852e-7, -4.389e-7, 3.463e-7
0.094, -7.873e-7, -4.395e-7, 3.478e-7
0.093, -7.894e-7, -4.407e-7, 3.487e-7
0.092, -7.919e-7, -4.425e-7, 3.494e-7
0.091, -7.910e-7, -4.416e-7, 3.494e-7
0.090, -7.931e-7, -4.428e-7, 3.503e-7
0.089, -7.937e-7, -4.441e-7, 3.497e-7
0.088, -7.962e-7, -4.444e-7, 3.518e-7
0.087, -7.983e-7, -4.462e-7, 3.521e-7
0.086, -7.980e-7, -4.471e-7, 3.509e-7
0.085, -8.026e-7, -4.477e-7, 3.548e-7
0.084, -8.017e-7, -4.480e-7, 3.536e-7
0.083, -8.035e-7, -4.499e-7, 3.536e-7
0.082, -8.056e-7, -4.505e-7, 3.552e-7
0.081, -8.065e-7, -4.517e-7, 3.548e-7
0.080, -8.099e-7, -4.532e-7, 3.567e-7
0.079, -8.111e-7, -4.547e-7, 3.564e-7
0.078, -8.105e-7, -4.544e-7, 3.561e-7
0.077, -8.132e-7, -4.554e-7, 3.579e-7
0.076, -8.157e-7, -4.563e-7, 3.594e-7
0.075, -8.172e-7, -4.584e-7, 3.588e-7
0.074, -8.190e-7, -4.587e-7, 3.603e-7
0.073, -8.193e-7, -4.593e-7, 3.600e-7
0.072, -8.209e-7, -4.599e-7, 3.609e-7
0.071, -8.239e-7, -4.621e-7, 3.619e-7
0.070, -8.251e-7, -4.618e-7, 3.634e-7
0.069, -8.282e-7, -4.645e-7, 3.637e-7
0.068, -8.297e-7, -4.657e-7, 3.640e-7
0.067, -8.328e-7, -4.666e-7, 3.661e-7
0.066, -8.319e-7, -4.673e-7, 3.646e-7
0.065, -8.340e-7, -4.691e-7, 3.649e-7
0.064, -8.361e-7, -4.685e-7, 3.677e-7
0.063, -8.377e-7, -4.697e-7, 3.680e-7
0.062, -8.401e-7, -4.712e-7, 3.689e-7
0.061, -8.413e-7, -4.721e-7, 3.692e-7
0.060, -8.422e-7, -4.737e-7, 3.686e-7
0.059, -8.459e-7, -4.755e-7, 3.704e-7
0.058, -8.474e-7, -4.761e-7, 3.713e-7
0.057, -8.486e-7, -4.770e-7, 3.716e-7
0.056, -8.499e-7, -4.776e-7, 3.722e-7
0.055, -8.532e-7, -4.792e-7, 3.741e-7
0.054, -8.551e-7, -4.810e-7, 3.741e-7
0.053, -8.554e-7, -4.810e-7, 3.744e-7
0.052, -8.587e-7, -4.804e-7, 3.783e-7
0.051, -8.593e-7, -4.834e-7, 3.759e-7
0.050, -8.605e-7, -4.843e-7, 3.762e-7
0.049, -8.639e-7, -4.846e-7, 3.793e-7
0.048, -8.642e-7, -4.859e-7, 3.783e-7
0.047, -8.673e-7, -4.883e-7, 3.790e-7
0.046, -8.691e-7, -4.886e-7, 3.805e-7
0.045, -8.712e-7, -4.898e-7, 3.814e-7
0.044, -8.749e-7, -4.917e-7, 3.832e-7
0.043, -8.755e-7, -4.920e-7, 3.835e-7
0.042, -8.773e-7, -4.944e-7, 3.829e-7
0.041, -8.801e-7, -4.953e-7, 3.848e-7
0.040, -8.819e-7, -4.956e-7, 3.863e-7
0.039, -8.822e-7, -4.969e-7, 3.854e-7
0.038, -8.853e-7, -4.978e-7, 3.875e-7
0.037, -8.880e-7, -5.002e-7, 3.878e-7
0.036, -8.877e-7, -4.987e-7, 3.890e-7
0.035, -8.911e-7, -5.011e-7, 3.899e-7
0.034, -8.926e-7, -5.017e-7, 3.909e-7
0.033, -8.941e-7, -5.033e-7, 3.909e-7
0.032, -8.966e-7, -5.042e-7, 3.924e-7
0.031, -8.987e-7, -5.051e-7, 3.936e-7
0.030, -8.999e-7, -5.069e-7, 3.930e-7
0.029, -9.036e-7, -5.078e-7, 3.957e-7
0.028, -9.048e-7, -5.084e-7, 3.963e-7
0.027, -9.066e-7, -5.103e-7, 3.963e-7
0.026, -9.091e-7, -5.121e-7, 3.970e-7
0.025, -9.103e-7, -5.121e-7, 3.982e-7
0.024, -9.130e-7, -5.139e-7, 3.991e-7
0.023, -9.152e-7, -5.158e-7, 3.994e-7
0.022, -9.167e-7, -5.158e-7, 4.009e-7
0.021, -9.197e-7, -5.176e-7, 4.021e-7
0.020, -9.213e-7, -5.188e-7, 4.024e-7
0.019, -9.255e-7, -5.200e-7, 4.055e-7
0.018, -9.249e-7, -5.207e-7, 4.043e-7
0.017, -9.283e-7, -5.222e-7, 4.061e-7
0.016, -9.307e-7, -5.231e-7, 4.076e-7
0.015, -9.320e-7, -5.243e-7, 4.076e-7
0.014, -9.341e-7, -5.249e-7, 4.092e-7
0.013, -9.362e-7, -5.268e-7, 4.095e-7
0.012, -9.374e-7, -5.271e-7, 4.104e-7
0.011, -9.420e-7, -5.298e-7, 4.122e-7
0.010, -9.432e-7, -5.298e-7, 4.134e-7
0.009, -9.454e-7, -5.323e-7, 4.131e-7
0.008, -9.463e-7, -5.323e-7, 4.140e-7
0.007, -9.490e-7, -5.329e-7, 4.162e-7
0.006, -9.493e-7, -5.335e-7, 4.159e-7
0.005, -9.542e-7, -5.359e-7, 4.183e-7
0.004, -9.567e-7, -5.377e-7, 4.189e-7
0.003, -9.567e-7, -5.387e-7, 4.180e-7
0.002, -9.591e-7, -5.387e-7, 4.205e-7
0.001, -9.628e-7, -5.405e-7, 4.223e-7
-0.000, -9.640e-7, -5.417e-7, 4.223e-7
-0.001, -9.664e-7, -5.426e-7, 4.238e-7
-0.002, -9.670e-7, -5.426e-7, 4.244e-7
-0.003, -9.698e-7, -5.448e-7, 4.250e-7
-0.004, -9.735e-7, -5.460e-7, 4.275e-7
-0.005, -9.741e-7, -5.463e-7, 4.278e-7
-0.006, -9.762e-7, -5.472e-7, 4.290e-7
-0.007, -9.786e-7, -5.487e-7, 4.299e-7
-0.008, -9.802e-7, -5.496e-7, 4.305e-7
-0.009, -9.820e-7, -5.509e-7, 4.311e-7
-0.010, -9.838e-7, -5.515e-7, 4.324e-7
-0.011, -9.869e-7, -5.530e-7, 4.339e-7
-0.012, -9.890e-7, -5.539e-7, 4.351e-7
-0.013, -9.918e-7, -5.561e-7, 4.357e-7
-0.014, -9.927e-7, -5.557e-7, 4.369e-7
-0.015, -9.960e-7, -5.585e-7, 4.375e-7
-0.016, -9.979e-7, -5.582e-7, 4.397e-7
-0.017, -9.988e-7, -5.591e-7, 4.397e-7
-0.018, -1.001e-6, -5.603e-7, 4.409e-7
-0.019, -1.003e-6, -5.609e-7, 4.421e-7
-0.020, -1.006e-6, -5.622e-7, 4.443e-7
-0.021, -1.007e-6, -5.637e-7, 4.433e-7
-0.022, -1.010e-6, -5.643e-7, 4.455e-7
-0.023, -1.010e-6, -5.646e-7, 4.458e-7
-0.024, -1.014e-6, -5.661e-7, 4.479e-7
-0.025, -1.016e-6, -5.680e-7, 4.485e-7
-0.026, -1.017e-6, -5.676e-7, 4.491e-7
-0.027, -1.019e-6, -5.689e-7, 4.501e-7
-0.028, -1.022e-6, -5.698e-7, 4.519e-7
-0.029, -1.021e-6, -5.701e-7, 4.513e-7
-0.030, -1.027e-6, -5.725e-7, 4.540e-7
-0.031, -1.026e-6, -5.710e-7, 4.552e-7
-0.032, -1.029e-6, -5.734e-7, 4.555e-7
-0.033, -1.031e-6, -5.756e-7, 4.559e-7
-0.034, -1.032e-6, -5.756e-7, 4.568e-7
-0.035, -1.036e-6, -5.774e-7, 4.589e-7
-0.036, -1.038e-6, -5.777e-7, 4.607e-7
-0.037, -1.041e-6, -5.789e-7, 4.623e-7
-0.038, -1.041e-6, -5.786e-7, 4.623e-7
-0.039, -1.045e-6, -5.814e-7, 4.632e-7
-0.040, -1.047e-6, -5.814e-7, 4.653e-7
-0.041, -1.046e-6, -5.811e-7, 4.650e-7
-0.042, -1.048e-6, -5.820e-7, 4.659e-7
-0.043, -1.050e-6, -5.823e-7, 4.681e-7
-0.044, -1.051e-6, -5.826e-7, 4.687e-7
-0.045, -1.055e-6, -5.847e-7, 4.699e-7
-0.046, -1.054e-6, -5.838e-7, 4.705e-7
-0.047, -1.056e-6, -5.847e-7, 4.711e-7
-0.048, -1.060e-6, -5.884e-7, 4.717e-7
-0.049, -1.061e-6, -5.875e-7, 4.732e-7
-0.050, -1.062e-6, -5.872e-7, 4.748e-7
-0.051, -1.065e-6, -5.893e-7, 4.754e-7
-0.052, -1.066e-6, -5.887e-7, 4.769e-7
-0.053, -1.067e-6, -5.899e-7, 4.772e-7
-0.054, -1.071e-6, -5.924e-7, 4.787e-7
-0.055, -1.073e-6, -5.911e-7, 4.815e-7
-0.056, -1.073e-6, -5.918e-7, 4.809e-7
-0.057, -1.076e-6, -5.933e-7, 4.824e-7
-0.058, -1.078e-6, -5.930e-7, 4.855e-7
-0.059, -1.077e-6, -5.930e-7, 4.839e-7
-0.060, -1.080e-6, -5.957e-7, 4.842e-7
-0.061, -1.081e-6, -5.939e-7, 4.870e-7
-0.062, -1.082e-6, -5.954e-7, 4.864e-7
-0.063, -1.085e-6, -5.976e-7, 4.876e-7
-0.064, -1.086e-6, -5.957e-7, 4.903e-7
-0.065, -1.086e-6, -5.976e-7, 4.888e-7
-0.066, -1.092e-6, -5.991e-7, 4.925e-7
-0.067, -1.090e-6, -5.969e-7, 4.934e-7
-0.068, -1.089e-6, -5.972e-7, 4.922e-7
-0.069, -1.095e-6, -6.006e-7, 4.940e-7
-0.070, -1.095e-6, -5.985e-7, 4.967e-7
-0.071, -1.095e-6, -5.997e-7, 4.949e-7
-0.072, -1.097e-6, -5.997e-7, 4.970e-7
-0.073, -1.099e-6, -6.015e-7, 4.974e-7
-0.074, -1.099e-6, -6.006e-7, 4.980e-7
-0.075, -1.101e-6, -6.021e-7, 4.992e-7
-0.076, -1.105e-6, -6.018e-7, 5.028e-7
-0.077, -1.103e-6, -6.012e-7, 5.013e-7
-0.078, -1.107e-6, -6.046e-7, 5.019e-7
-0.079, -1.106e-6, -6.018e-7, 5.041e-7
-0.080, -1.107e-6, -6.030e-7, 5.038e-7
-0.081, -1.108e-6, -6.040e-7, 5.041e-7
-0.082, -1.110e-6, -6.034e-7, 5.065e-7
-0.083, -1.111e-6, -6.040e-7, 5.074e-7
-0.084, -1.112e-6, -6.046e-7, 5.074e-7
-0.085, -1.113e-6, -6.040e-7, 5.093e-7
-0.086, -1.113e-6, -6.040e-7, 5.086e-7
-0.087, -1.116e-6, -6.055e-7, 5.105e-7
-0.088, -1.116e-6, -6.046e-7, 5.111e-7
-0.089, -1.119e-6, -6.064e-7, 5.129e-7
-0.090, -1.121e-6, -6.076e-7, 5.135e-7
-0.091, -1.120e-6, -6.061e-7, 5.135e-7
-0.092, -1.118e-6, -6.049e-7, 5.132e-7
-0.093, -1.122e-6, -6.070e-7, 5.154e-7
-0.094, -1.124e-6, -6.064e-7, 5.172e-7
-0.095, -1.123e-6, -6.064e-7, 5.163e-7
-0.096, -1.125e-6, -6.070e-7, 5.181e-7
-0.097, -1.125e-6, -6.052e-7, 5.196e-7
-0.098, -1.125e-6, -6.061e-7, 5.193e-7
-0.099, -1.128e-6, -6.073e-7, 5.205e-7
-0.100, -1.130e-6, -6.070e-7, 5.227e-7
