Mar. 20, 2018   16:03:01
Square Wave Voltammetry
File: c:\users\electrochemist\desktop\2018\20032018_unbufarray_unpap\66_g4_ph9,96_4.txt
Data Source:  Experiment
Instrument Model:  CHI1040A
Header: 
Note: 

Init E (V) = 0.7
Final E (V) = -0.4
Incr E (V) = 0.001
Amplitude (V) = 0.1
Frequency (Hz) = 152
Quiet Time (sec) = 2
Sensitivity (A/V) = 1e-6

Difference:

Forward:

Reverse:

Potential/V, Diff(i/A), For(i/A), Rev(i/A)

0.699, -7.748e-7, -1.853e-7, 5.895e-7
0.698, -9.243e-7, -3.852e-7, 5.392e-7
0.697, -9.176e-7, -3.946e-7, 5.230e-7
0.696, -9.158e-7, -4.007e-7, 5.151e-7
0.695, -9.103e-7, -3.995e-7, 5.108e-7
0.694, -9.045e-7, -4.016e-7, 5.029e-7
0.693, -9.008e-7, -4.029e-7, 4.980e-7
0.692, -8.962e-7, -3.995e-7, 4.967e-7
0.691, -8.883e-7, -3.998e-7, 4.885e-7
0.690, -8.877e-7, -4.004e-7, 4.873e-7
0.689, -8.843e-7, -3.998e-7, 4.845e-7
0.688, -8.810e-7, -4.007e-7, 4.803e-7
0.687, -8.786e-7, -4.007e-7, 4.778e-7
0.686, -8.749e-7, -3.983e-7, 4.766e-7
0.685, -8.715e-7, -4.007e-7, 4.708e-7
0.684, -8.706e-7, -4.001e-7, 4.705e-7
0.683, -8.666e-7, -3.998e-7, 4.668e-7
0.682, -8.639e-7, -4.010e-7, 4.629e-7
0.681, -8.642e-7, -3.986e-7, 4.656e-7
0.680, -8.569e-7, -3.977e-7, 4.592e-7
0.679, -8.547e-7, -3.983e-7, 4.565e-7
0.678, -8.563e-7, -3.992e-7, 4.571e-7
0.677, -8.517e-7, -3.958e-7, 4.559e-7
0.676, -8.508e-7, -3.986e-7, 4.522e-7
0.675, -8.471e-7, -3.961e-7, 4.510e-7
0.674, -8.456e-7, -3.958e-7, 4.498e-7
0.673, -8.447e-7, -3.980e-7, 4.467e-7
0.672, -8.441e-7, -3.964e-7, 4.476e-7
0.671, -8.374e-7, -3.937e-7, 4.437e-7
0.670, -8.370e-7, -3.971e-7, 4.400e-7
0.669, -8.380e-7, -3.955e-7, 4.424e-7
0.668, -8.328e-7, -3.946e-7, 4.382e-7
0.667, -8.334e-7, -3.964e-7, 4.369e-7
0.666, -8.319e-7, -3.946e-7, 4.372e-7
0.665, -8.288e-7, -3.940e-7, 4.348e-7
0.664, -8.291e-7, -3.952e-7, 4.339e-7
0.663, -8.258e-7, -3.943e-7, 4.314e-7
0.662, -8.270e-7, -3.955e-7, 4.314e-7
0.661, -8.270e-7, -3.952e-7, 4.318e-7
0.660, -8.242e-7, -3.940e-7, 4.302e-7
0.659, -8.227e-7, -3.955e-7, 4.272e-7
0.658, -8.224e-7, -3.958e-7, 4.266e-7
0.657, -8.178e-7, -3.934e-7, 4.244e-7
0.656, -8.206e-7, -3.952e-7, 4.253e-7
0.655, -8.203e-7, -3.940e-7, 4.263e-7
0.654, -8.157e-7, -3.943e-7, 4.214e-7
0.653, -8.148e-7, -3.937e-7, 4.211e-7
0.652, -8.151e-7, -3.928e-7, 4.223e-7
0.651, -8.123e-7, -3.925e-7, 4.198e-7
0.650, -8.108e-7, -3.931e-7, 4.177e-7
0.649, -8.120e-7, -3.925e-7, 4.195e-7
0.648, -8.081e-7, -3.928e-7, 4.153e-7
0.647, -8.090e-7, -3.928e-7, 4.162e-7
0.646, -8.071e-7, -3.913e-7, 4.159e-7
0.645, -8.047e-7, -3.922e-7, 4.125e-7
0.644, -8.050e-7, -3.928e-7, 4.122e-7
0.643, -8.020e-7, -3.900e-7, 4.119e-7
0.642, -8.004e-7, -3.907e-7, 4.098e-7
0.641, -8.010e-7, -3.907e-7, 4.104e-7
0.640, -8.026e-7, -3.916e-7, 4.110e-7
0.639, -8.007e-7, -3.925e-7, 4.083e-7
0.638, -7.995e-7, -3.910e-7, 4.086e-7
0.637, -7.968e-7, -3.891e-7, 4.076e-7
0.636, -7.959e-7, -3.913e-7, 4.046e-7
0.635, -7.998e-7, -3.916e-7, 4.083e-7
0.634, -7.931e-7, -3.891e-7, 4.040e-7
0.633, -7.940e-7, -3.910e-7, 4.031e-7
0.632, -7.949e-7, -3.891e-7, 4.058e-7
0.631, -7.904e-7, -3.882e-7, 4.021e-7
0.630, -7.925e-7, -3.910e-7, 4.015e-7
0.629, -7.925e-7, -3.885e-7, 4.040e-7
0.628, -7.888e-7, -3.888e-7, 4.000e-7
0.627, -7.910e-7, -3.910e-7, 4.000e-7
0.626, -7.907e-7, -3.891e-7, 4.015e-7
0.625, -7.879e-7, -3.900e-7, 3.979e-7
0.624, -7.864e-7, -3.888e-7, 3.976e-7
0.623, -7.870e-7, -3.867e-7, 4.003e-7
0.622, -7.836e-7, -3.885e-7, 3.951e-7
0.621, -7.885e-7, -3.910e-7, 3.976e-7
0.620, -7.849e-7, -3.861e-7, 3.988e-7
0.619, -7.794e-7, -3.858e-7, 3.936e-7
0.618, -7.843e-7, -3.897e-7, 3.945e-7
0.617, -7.809e-7, -3.849e-7, 3.960e-7
0.616, -7.803e-7, -3.879e-7, 3.924e-7
0.615, -7.791e-7, -3.873e-7, 3.918e-7
0.614, -7.763e-7, -3.849e-7, 3.915e-7
0.613, -7.769e-7, -3.867e-7, 3.902e-7
0.612, -7.803e-7, -3.873e-7, 3.930e-7
0.611, -7.769e-7, -3.864e-7, 3.906e-7
0.610, -7.751e-7, -3.858e-7, 3.893e-7
0.609, -7.754e-7, -3.855e-7, 3.899e-7
0.608, -7.754e-7, -3.873e-7, 3.881e-7
0.607, -7.736e-7, -3.864e-7, 3.872e-7
0.606, -7.748e-7, -3.864e-7, 3.884e-7
0.605, -7.708e-7, -3.852e-7, 3.857e-7
0.604, -7.739e-7, -3.870e-7, 3.869e-7
0.603, -7.711e-7, -3.842e-7, 3.869e-7
0.602, -7.678e-7, -3.845e-7, 3.832e-7
0.601, -7.690e-7, -3.842e-7, 3.848e-7
0.600, -7.666e-7, -3.818e-7, 3.848e-7
0.599, -7.653e-7, -3.836e-7, 3.817e-7
0.598, -7.684e-7, -3.849e-7, 3.835e-7
0.597, -7.681e-7, -3.830e-7, 3.851e-7
0.596, -7.653e-7, -3.833e-7, 3.820e-7
0.595, -7.656e-7, -3.827e-7, 3.829e-7
0.594, -7.644e-7, -3.818e-7, 3.826e-7
0.593, -7.650e-7, -3.858e-7, 3.793e-7
0.592, -7.653e-7, -3.836e-7, 3.817e-7
0.591, -7.614e-7, -3.818e-7, 3.796e-7
0.590, -7.641e-7, -3.845e-7, 3.796e-7
0.589, -7.617e-7, -3.818e-7, 3.799e-7
0.588, -7.595e-7, -3.812e-7, 3.783e-7
0.587, -7.620e-7, -3.845e-7, 3.774e-7
0.586, -7.635e-7, -3.821e-7, 3.814e-7
0.585, -7.608e-7, -3.818e-7, 3.790e-7
0.584, -7.608e-7, -3.839e-7, 3.768e-7
0.583, -7.586e-7, -3.797e-7, 3.790e-7
0.582, -7.583e-7, -3.806e-7, 3.777e-7
0.581, -7.623e-7, -3.858e-7, 3.765e-7
0.580, -7.598e-7, -3.821e-7, 3.777e-7
0.579, -7.580e-7, -3.824e-7, 3.756e-7
0.578, -7.595e-7, -3.833e-7, 3.762e-7
0.577, -7.577e-7, -3.809e-7, 3.768e-7
0.576, -7.574e-7, -3.830e-7, 3.744e-7
0.575, -7.586e-7, -3.818e-7, 3.768e-7
0.574, -7.586e-7, -3.812e-7, 3.774e-7
0.573, -7.580e-7, -3.833e-7, 3.747e-7
0.572, -7.580e-7, -3.812e-7, 3.768e-7
0.571, -7.583e-7, -3.824e-7, 3.759e-7
0.570, -7.571e-7, -3.833e-7, 3.738e-7
0.569, -7.583e-7, -3.812e-7, 3.771e-7
0.568, -7.553e-7, -3.803e-7, 3.750e-7
0.567, -7.550e-7, -3.833e-7, 3.716e-7
0.566, -7.586e-7, -3.836e-7, 3.750e-7
0.565, -7.544e-7, -3.803e-7, 3.741e-7
0.564, -7.547e-7, -3.836e-7, 3.710e-7
0.563, -7.556e-7, -3.815e-7, 3.741e-7
0.562, -7.525e-7, -3.806e-7, 3.719e-7
0.561, -7.547e-7, -3.830e-7, 3.716e-7
0.560, -7.574e-7, -3.833e-7, 3.741e-7
0.559, -7.519e-7, -3.809e-7, 3.710e-7
0.558, -7.550e-7, -3.836e-7, 3.713e-7
0.557, -7.550e-7, -3.821e-7, 3.729e-7
0.556, -7.522e-7, -3.812e-7, 3.710e-7
0.555, -7.528e-7, -3.821e-7, 3.707e-7
0.554, -7.519e-7, -3.812e-7, 3.707e-7
0.553, -7.553e-7, -3.842e-7, 3.710e-7
0.552, -7.547e-7, -3.830e-7, 3.716e-7
0.551, -7.531e-7, -3.821e-7, 3.710e-7
0.550, -7.531e-7, -3.833e-7, 3.698e-7
0.549, -7.528e-7, -3.812e-7, 3.716e-7
0.548, -7.531e-7, -3.833e-7, 3.698e-7
0.547, -7.528e-7, -3.833e-7, 3.695e-7
0.546, -7.516e-7, -3.818e-7, 3.698e-7
0.545, -7.510e-7, -3.818e-7, 3.692e-7
0.544, -7.553e-7, -3.839e-7, 3.713e-7
0.543, -7.516e-7, -3.806e-7, 3.710e-7
0.542, -7.522e-7, -3.830e-7, 3.692e-7
0.541, -7.528e-7, -3.830e-7, 3.698e-7
0.540, -7.498e-7, -3.809e-7, 3.689e-7
0.539, -7.498e-7, -3.827e-7, 3.671e-7
0.538, -7.519e-7, -3.849e-7, 3.671e-7
0.537, -7.495e-7, -3.803e-7, 3.692e-7
0.536, -7.504e-7, -3.824e-7, 3.680e-7
0.535, -7.522e-7, -3.827e-7, 3.695e-7
0.534, -7.522e-7, -3.824e-7, 3.698e-7
0.533, -7.507e-7, -3.830e-7, 3.677e-7
0.532, -7.547e-7, -3.852e-7, 3.695e-7
0.531, -7.492e-7, -3.815e-7, 3.677e-7
0.530, -7.510e-7, -3.845e-7, 3.664e-7
0.529, -7.510e-7, -3.824e-7, 3.686e-7
0.528, -7.507e-7, -3.821e-7, 3.686e-7
0.527, -7.504e-7, -3.842e-7, 3.661e-7
0.526, -7.519e-7, -3.842e-7, 3.677e-7
0.525, -7.495e-7, -3.818e-7, 3.677e-7
0.524, -7.522e-7, -3.858e-7, 3.664e-7
0.523, -7.504e-7, -3.827e-7, 3.677e-7
0.522, -7.473e-7, -3.818e-7, 3.655e-7
0.521, -7.498e-7, -3.845e-7, 3.652e-7
0.520, -7.476e-7, -3.806e-7, 3.671e-7
0.519, -7.482e-7, -3.836e-7, 3.646e-7
0.518, -7.504e-7, -3.864e-7, 3.640e-7
0.517, -7.489e-7, -3.815e-7, 3.674e-7
0.516, -7.464e-7, -3.815e-7, 3.649e-7
0.515, -7.498e-7, -3.845e-7, 3.652e-7
0.514, -7.486e-7, -3.824e-7, 3.661e-7
0.513, -7.434e-7, -3.824e-7, 3.610e-7
0.512, -7.495e-7, -3.855e-7, 3.640e-7
0.511, -7.470e-7, -3.830e-7, 3.640e-7
0.510, -7.455e-7, -3.833e-7, 3.622e-7
0.509, -7.464e-7, -3.824e-7, 3.640e-7
0.508, -7.446e-7, -3.800e-7, 3.646e-7
0.507, -7.421e-7, -3.821e-7, 3.600e-7
0.506, -7.479e-7, -3.849e-7, 3.631e-7
0.505, -7.443e-7, -3.809e-7, 3.634e-7
0.504, -7.437e-7, -3.827e-7, 3.610e-7
0.503, -7.470e-7, -3.827e-7, 3.643e-7
0.502, -7.443e-7, -3.818e-7, 3.625e-7
0.501, -7.470e-7, -3.842e-7, 3.628e-7
0.500, -7.464e-7, -3.833e-7, 3.631e-7
0.499, -7.443e-7, -3.818e-7, 3.625e-7
0.498, -7.434e-7, -3.818e-7, 3.616e-7
0.497, -7.452e-7, -3.827e-7, 3.625e-7
0.496, -7.446e-7, -3.836e-7, 3.610e-7
0.495, -7.434e-7, -3.833e-7, 3.600e-7
0.494, -7.434e-7, -3.818e-7, 3.616e-7
0.493, -7.443e-7, -3.836e-7, 3.606e-7
0.492, -7.425e-7, -3.821e-7, 3.603e-7
0.491, -7.415e-7, -3.806e-7, 3.610e-7
0.490, -7.403e-7, -3.809e-7, 3.594e-7
0.489, -7.443e-7, -3.830e-7, 3.613e-7
0.488, -7.409e-7, -3.809e-7, 3.600e-7
0.487, -7.406e-7, -3.827e-7, 3.579e-7
0.486, -7.415e-7, -3.830e-7, 3.585e-7
0.485, -7.434e-7, -3.824e-7, 3.610e-7
0.484, -7.428e-7, -3.836e-7, 3.591e-7
0.483, -7.428e-7, -3.821e-7, 3.606e-7
0.482, -7.394e-7, -3.806e-7, 3.588e-7
0.481, -7.434e-7, -3.842e-7, 3.591e-7
0.480, -7.425e-7, -3.833e-7, 3.591e-7
0.479, -7.406e-7, -3.824e-7, 3.582e-7
0.478, -7.412e-7, -3.830e-7, 3.582e-7
0.477, -7.415e-7, -3.824e-7, 3.591e-7
0.476, -7.391e-7, -3.821e-7, 3.570e-7
0.475, -7.409e-7, -3.836e-7, 3.573e-7
0.474, -7.431e-7, -3.827e-7, 3.603e-7
0.473, -7.391e-7, -3.824e-7, 3.567e-7
0.472, -7.415e-7, -3.833e-7, 3.582e-7
0.471, -7.403e-7, -3.806e-7, 3.597e-7
0.470, -7.394e-7, -3.842e-7, 3.552e-7
0.469, -7.403e-7, -3.839e-7, 3.564e-7
0.468, -7.412e-7, -3.833e-7, 3.579e-7
0.467, -7.391e-7, -3.842e-7, 3.548e-7
0.466, -7.446e-7, -3.852e-7, 3.594e-7
0.465, -7.409e-7, -3.824e-7, 3.585e-7
0.464, -7.394e-7, -3.839e-7, 3.555e-7
0.463, -7.425e-7, -3.845e-7, 3.579e-7
0.462, -7.382e-7, -3.821e-7, 3.561e-7
0.461, -7.409e-7, -3.864e-7, 3.545e-7
0.460, -7.431e-7, -3.849e-7, 3.582e-7
0.459, -7.397e-7, -3.830e-7, 3.567e-7
0.458, -7.406e-7, -3.849e-7, 3.558e-7
0.457, -7.437e-7, -3.845e-7, 3.591e-7
0.456, -7.400e-7, -3.833e-7, 3.567e-7
0.455, -7.421e-7, -3.873e-7, 3.548e-7
0.454, -7.428e-7, -3.855e-7, 3.573e-7
0.453, -7.418e-7, -3.858e-7, 3.561e-7
0.452, -7.409e-7, -3.867e-7, 3.542e-7
0.451, -7.412e-7, -3.845e-7, 3.567e-7
0.450, -7.434e-7, -3.858e-7, 3.576e-7
0.449, -7.440e-7, -3.882e-7, 3.558e-7
0.448, -7.440e-7, -3.861e-7, 3.579e-7
0.447, -7.437e-7, -3.867e-7, 3.570e-7
0.446, -7.443e-7, -3.879e-7, 3.564e-7
0.445, -7.455e-7, -3.882e-7, 3.573e-7
0.444, -7.443e-7, -3.870e-7, 3.573e-7
0.443, -7.455e-7, -3.876e-7, 3.579e-7
0.442, -7.431e-7, -3.867e-7, 3.564e-7
0.441, -7.428e-7, -3.873e-7, 3.555e-7
0.440, -7.452e-7, -3.873e-7, 3.579e-7
0.439, -7.428e-7, -3.855e-7, 3.573e-7
0.438, -7.437e-7, -3.879e-7, 3.558e-7
0.437, -7.452e-7, -3.879e-7, 3.573e-7
0.436, -7.470e-7, -3.897e-7, 3.573e-7
0.435, -7.458e-7, -3.882e-7, 3.576e-7
0.434, -7.461e-7, -3.870e-7, 3.591e-7
0.433, -7.482e-7, -3.894e-7, 3.588e-7
0.432, -7.482e-7, -3.916e-7, 3.567e-7
0.431, -7.473e-7, -3.900e-7, 3.573e-7
0.430, -7.467e-7, -3.903e-7, 3.564e-7
0.429, -7.461e-7, -3.897e-7, 3.564e-7
0.428, -7.473e-7, -3.903e-7, 3.570e-7
0.427, -7.489e-7, -3.910e-7, 3.579e-7
0.426, -7.486e-7, -3.916e-7, 3.570e-7
0.425, -7.489e-7, -3.900e-7, 3.588e-7
0.424, -7.489e-7, -3.922e-7, 3.567e-7
0.423, -7.473e-7, -3.910e-7, 3.564e-7
0.422, -7.470e-7, -3.891e-7, 3.579e-7
0.421, -7.461e-7, -3.907e-7, 3.555e-7
0.420, -7.489e-7, -3.919e-7, 3.570e-7
0.419, -7.452e-7, -3.891e-7, 3.561e-7
0.418, -7.467e-7, -3.919e-7, 3.548e-7
0.417, -7.501e-7, -3.922e-7, 3.579e-7
0.416, -7.455e-7, -3.903e-7, 3.552e-7
0.415, -7.482e-7, -3.931e-7, 3.552e-7
0.414, -7.495e-7, -3.919e-7, 3.576e-7
0.413, -7.473e-7, -3.910e-7, 3.564e-7
0.412, -7.492e-7, -3.940e-7, 3.552e-7
0.411, -7.495e-7, -3.925e-7, 3.570e-7
0.410, -7.479e-7, -3.937e-7, 3.542e-7
0.409, -7.501e-7, -3.937e-7, 3.564e-7
0.408, -7.479e-7, -3.913e-7, 3.567e-7
0.407, -7.489e-7, -3.931e-7, 3.558e-7
0.406, -7.525e-7, -3.955e-7, 3.570e-7
0.405, -7.473e-7, -3.907e-7, 3.567e-7
0.404, -7.479e-7, -3.931e-7, 3.548e-7
0.403, -7.519e-7, -3.946e-7, 3.573e-7
0.402, -7.507e-7, -3.928e-7, 3.579e-7
0.401, -7.492e-7, -3.943e-7, 3.548e-7
0.400, -7.513e-7, -3.952e-7, 3.561e-7
0.399, -7.501e-7, -3.937e-7, 3.564e-7
0.398, -7.495e-7, -3.952e-7, 3.542e-7
0.397, -7.507e-7, -3.946e-7, 3.561e-7
0.396, -7.510e-7, -3.943e-7, 3.567e-7
0.395, -7.492e-7, -3.946e-7, 3.545e-7
0.394, -7.516e-7, -3.958e-7, 3.558e-7
0.393, -7.495e-7, -3.937e-7, 3.558e-7
0.392, -7.510e-7, -3.961e-7, 3.548e-7
0.391, -7.519e-7, -3.965e-7, 3.555e-7
0.390, -7.507e-7, -3.955e-7, 3.552e-7
0.389, -7.510e-7, -3.961e-7, 3.548e-7
0.388, -7.507e-7, -3.958e-7, 3.548e-7
0.387, -7.510e-7, -3.955e-7, 3.555e-7
0.386, -7.519e-7, -3.961e-7, 3.558e-7
0.385, -7.516e-7, -3.961e-7, 3.555e-7
0.384, -7.470e-7, -3.943e-7, 3.527e-7
0.383, -7.507e-7, -3.965e-7, 3.542e-7
0.382, -7.504e-7, -3.958e-7, 3.545e-7
0.381, -7.510e-7, -3.974e-7, 3.536e-7
0.380, -7.513e-7, -3.955e-7, 3.558e-7
0.379, -7.510e-7, -3.952e-7, 3.558e-7
0.378, -7.516e-7, -3.974e-7, 3.542e-7
0.377, -7.510e-7, -3.952e-7, 3.558e-7
0.376, -7.513e-7, -3.961e-7, 3.552e-7
0.375, -7.513e-7, -3.989e-7, 3.524e-7
0.374, -7.547e-7, -3.980e-7, 3.567e-7
0.373, -7.522e-7, -3.980e-7, 3.542e-7
0.372, -7.547e-7, -3.992e-7, 3.555e-7
0.371, -7.534e-7, -3.977e-7, 3.558e-7
0.370, -7.519e-7, -3.977e-7, 3.542e-7
0.369, -7.550e-7, -4.001e-7, 3.548e-7
0.368, -7.528e-7, -3.971e-7, 3.558e-7
0.367, -7.525e-7, -3.974e-7, 3.552e-7
0.366, -7.556e-7, -4.001e-7, 3.555e-7
0.365, -7.540e-7, -3.980e-7, 3.561e-7
0.364, -7.544e-7, -3.998e-7, 3.545e-7
0.363, -7.556e-7, -4.007e-7, 3.548e-7
0.362, -7.534e-7, -3.980e-7, 3.555e-7
0.361, -7.544e-7, -4.010e-7, 3.533e-7
0.360, -7.556e-7, -4.001e-7, 3.555e-7
0.359, -7.556e-7, -3.995e-7, 3.561e-7
0.358, -7.553e-7, -4.010e-7, 3.542e-7
0.357, -7.601e-7, -4.035e-7, 3.567e-7
0.356, -7.562e-7, -3.998e-7, 3.564e-7
0.355, -7.562e-7, -4.019e-7, 3.542e-7
0.354, -7.592e-7, -4.032e-7, 3.561e-7
0.353, -7.568e-7, -4.010e-7, 3.558e-7
0.352, -7.595e-7, -4.047e-7, 3.548e-7
0.351, -7.608e-7, -4.029e-7, 3.579e-7
0.350, -7.574e-7, -4.007e-7, 3.567e-7
0.349, -7.611e-7, -4.056e-7, 3.555e-7
0.348, -7.605e-7, -4.035e-7, 3.570e-7
0.347, -7.577e-7, -4.013e-7, 3.564e-7
0.346, -7.583e-7, -4.047e-7, 3.536e-7
0.345, -7.638e-7, -4.050e-7, 3.588e-7
0.344, -7.589e-7, -4.029e-7, 3.561e-7
0.343, -7.611e-7, -4.059e-7, 3.552e-7
0.342, -7.608e-7, -4.041e-7, 3.567e-7
0.341, -7.611e-7, -4.044e-7, 3.567e-7
0.340, -7.620e-7, -4.071e-7, 3.548e-7
0.339, -7.620e-7, -4.059e-7, 3.561e-7
0.338, -7.614e-7, -4.059e-7, 3.555e-7
0.337, -7.644e-7, -4.062e-7, 3.582e-7
0.336, -7.663e-7, -4.080e-7, 3.582e-7
0.335, -7.635e-7, -4.068e-7, 3.567e-7
0.334, -7.632e-7, -4.068e-7, 3.564e-7
0.333, -7.647e-7, -4.077e-7, 3.570e-7
0.332, -7.656e-7, -4.090e-7, 3.567e-7
0.331, -7.678e-7, -4.087e-7, 3.591e-7
0.330, -7.666e-7, -4.096e-7, 3.570e-7
0.329, -7.669e-7, -4.093e-7, 3.576e-7
0.328, -7.678e-7, -4.102e-7, 3.576e-7
0.327, -7.666e-7, -4.090e-7, 3.576e-7
0.326, -7.702e-7, -4.108e-7, 3.594e-7
0.325, -7.714e-7, -4.117e-7, 3.597e-7
0.324, -7.684e-7, -4.105e-7, 3.579e-7
0.323, -7.708e-7, -4.108e-7, 3.600e-7
0.322, -7.702e-7, -4.096e-7, 3.606e-7
0.321, -7.699e-7, -4.117e-7, 3.582e-7
0.320, -7.717e-7, -4.129e-7, 3.588e-7
0.319, -7.730e-7, -4.117e-7, 3.613e-7
0.318, -7.708e-7, -4.114e-7, 3.594e-7
0.317, -7.714e-7, -4.123e-7, 3.591e-7
0.316, -7.717e-7, -4.111e-7, 3.606e-7
0.315, -7.748e-7, -4.138e-7, 3.610e-7
0.314, -7.742e-7, -4.145e-7, 3.597e-7
0.313, -7.736e-7, -4.123e-7, 3.613e-7
0.312, -7.751e-7, -4.145e-7, 3.606e-7
0.311, -7.742e-7, -4.142e-7, 3.600e-7
0.310, -7.736e-7, -4.138e-7, 3.597e-7
0.309, -7.742e-7, -4.151e-7, 3.591e-7
0.308, -7.760e-7, -4.138e-7, 3.622e-7
0.307, -7.760e-7, -4.148e-7, 3.613e-7
0.306, -7.766e-7, -4.160e-7, 3.606e-7
0.305, -7.794e-7, -4.163e-7, 3.631e-7
0.304, -7.754e-7, -4.151e-7, 3.603e-7
0.303, -7.785e-7, -4.172e-7, 3.613e-7
0.302, -7.791e-7, -4.163e-7, 3.628e-7
0.301, -7.763e-7, -4.160e-7, 3.603e-7
0.300, -7.806e-7, -4.196e-7, 3.610e-7
0.299, -7.788e-7, -4.157e-7, 3.631e-7
0.298, -7.769e-7, -4.169e-7, 3.600e-7
0.297, -7.812e-7, -4.193e-7, 3.619e-7
0.296, -7.803e-7, -4.169e-7, 3.634e-7
0.295, -7.800e-7, -4.190e-7, 3.610e-7
0.294, -7.849e-7, -4.218e-7, 3.631e-7
0.293, -7.809e-7, -4.181e-7, 3.628e-7
0.292, -7.800e-7, -4.193e-7, 3.606e-7
0.291, -7.812e-7, -4.206e-7, 3.606e-7
0.290, -7.824e-7, -4.196e-7, 3.628e-7
0.289, -7.800e-7, -4.196e-7, 3.603e-7
0.288, -7.818e-7, -4.190e-7, 3.628e-7
0.287, -7.809e-7, -4.190e-7, 3.619e-7
0.286, -7.833e-7, -4.218e-7, 3.616e-7
0.285, -7.840e-7, -4.233e-7, 3.606e-7
0.284, -7.827e-7, -4.209e-7, 3.619e-7
0.283, -7.830e-7, -4.218e-7, 3.613e-7
0.282, -7.849e-7, -4.221e-7, 3.628e-7
0.281, -7.861e-7, -4.227e-7, 3.634e-7
0.280, -7.846e-7, -4.227e-7, 3.619e-7
0.279, -7.888e-7, -4.251e-7, 3.637e-7
0.278, -7.840e-7, -4.221e-7, 3.619e-7
0.277, -7.846e-7, -4.227e-7, 3.619e-7
0.276, -7.852e-7, -4.227e-7, 3.625e-7
0.275, -7.852e-7, -4.227e-7, 3.625e-7
0.274, -7.879e-7, -4.242e-7, 3.637e-7
0.273, -7.873e-7, -4.242e-7, 3.631e-7
0.272, -7.882e-7, -4.245e-7, 3.637e-7
0.271, -7.894e-7, -4.257e-7, 3.637e-7
0.270, -7.888e-7, -4.248e-7, 3.640e-7
0.269, -7.897e-7, -4.267e-7, 3.631e-7
0.268, -7.888e-7, -4.248e-7, 3.640e-7
0.267, -7.894e-7, -4.254e-7, 3.640e-7
0.266, -7.885e-7, -4.257e-7, 3.628e-7
0.265, -7.919e-7, -4.270e-7, 3.649e-7
0.264, -7.913e-7, -4.267e-7, 3.646e-7
0.263, -7.891e-7, -4.270e-7, 3.622e-7
0.262, -7.894e-7, -4.257e-7, 3.637e-7
0.261, -7.904e-7, -4.261e-7, 3.643e-7
0.260, -7.922e-7, -4.288e-7, 3.634e-7
0.259, -7.919e-7, -4.276e-7, 3.643e-7
0.258, -7.916e-7, -4.270e-7, 3.646e-7
0.257, -7.937e-7, -4.300e-7, 3.637e-7
0.256, -7.943e-7, -4.282e-7, 3.661e-7
0.255, -7.931e-7, -4.288e-7, 3.643e-7
0.254, -7.940e-7, -4.300e-7, 3.640e-7
0.253, -7.959e-7, -4.294e-7, 3.664e-7
0.252, -7.940e-7, -4.300e-7, 3.640e-7
0.251, -7.986e-7, -4.328e-7, 3.658e-7
0.250, -7.955e-7, -4.297e-7, 3.658e-7
0.249, -7.980e-7, -4.331e-7, 3.649e-7
0.248, -7.983e-7, -4.325e-7, 3.658e-7
0.247, -7.983e-7, -4.315e-7, 3.667e-7
0.246, -7.992e-7, -4.340e-7, 3.652e-7
0.245, -8.010e-7, -4.331e-7, 3.680e-7
0.244, -7.995e-7, -4.328e-7, 3.667e-7
0.243, -8.004e-7, -4.358e-7, 3.646e-7
0.242, -8.029e-7, -4.346e-7, 3.683e-7
0.241, -8.013e-7, -4.337e-7, 3.677e-7
0.240, -8.029e-7, -4.376e-7, 3.652e-7
0.239, -8.032e-7, -4.361e-7, 3.671e-7
0.238, -8.017e-7, -4.352e-7, 3.664e-7
0.237, -8.050e-7, -4.383e-7, 3.667e-7
0.236, -8.047e-7, -4.364e-7, 3.683e-7
0.235, -8.044e-7, -4.370e-7, 3.674e-7
0.234, -8.068e-7, -4.395e-7, 3.674e-7
0.233, -8.096e-7, -4.398e-7, 3.698e-7
0.232, -8.081e-7, -4.380e-7, 3.701e-7
0.231, -8.087e-7, -4.401e-7, 3.686e-7
0.230, -8.087e-7, -4.395e-7, 3.692e-7
0.229, -8.102e-7, -4.413e-7, 3.689e-7
0.228, -8.102e-7, -4.413e-7, 3.689e-7
0.227, -8.114e-7, -4.407e-7, 3.707e-7
0.226, -8.108e-7, -4.413e-7, 3.695e-7
0.225, -8.132e-7, -4.428e-7, 3.704e-7
0.224, -8.126e-7, -4.422e-7, 3.704e-7
0.223, -8.136e-7, -4.431e-7, 3.704e-7
0.222, -8.157e-7, -4.438e-7, 3.719e-7
0.221, -8.126e-7, -4.422e-7, 3.704e-7
0.220, -8.175e-7, -4.456e-7, 3.719e-7
0.219, -8.160e-7, -4.444e-7, 3.716e-7
0.218, -8.160e-7, -4.450e-7, 3.710e-7
0.217, -8.178e-7, -4.468e-7, 3.710e-7
0.216, -8.212e-7, -4.459e-7, 3.753e-7
0.215, -8.172e-7, -4.462e-7, 3.710e-7
0.214, -8.209e-7, -4.480e-7, 3.729e-7
0.213, -8.236e-7, -4.477e-7, 3.759e-7
0.212, -8.224e-7, -4.480e-7, 3.744e-7
0.211, -8.236e-7, -4.486e-7, 3.750e-7
0.210, -8.242e-7, -4.489e-7, 3.753e-7
0.209, -8.242e-7, -4.499e-7, 3.744e-7
0.208, -8.255e-7, -4.499e-7, 3.756e-7
0.207, -8.261e-7, -4.502e-7, 3.759e-7
0.206, -8.255e-7, -4.514e-7, 3.741e-7
0.205, -8.251e-7, -4.502e-7, 3.750e-7
0.204, -8.261e-7, -4.499e-7, 3.762e-7
0.203, -8.282e-7, -4.535e-7, 3.747e-7
0.202, -8.297e-7, -4.547e-7, 3.750e-7
0.201, -8.297e-7, -4.532e-7, 3.765e-7
0.200, -8.303e-7, -4.550e-7, 3.753e-7
0.199, -8.331e-7, -4.553e-7, 3.777e-7
0.198, -8.303e-7, -4.560e-7, 3.744e-7
0.197, -8.343e-7, -4.569e-7, 3.774e-7
0.196, -8.343e-7, -4.563e-7, 3.780e-7
0.195, -8.337e-7, -4.563e-7, 3.774e-7
0.194, -8.355e-7, -4.578e-7, 3.777e-7
0.193, -8.364e-7, -4.575e-7, 3.790e-7
0.192, -8.370e-7, -4.590e-7, 3.780e-7
0.191, -8.401e-7, -4.605e-7, 3.796e-7
0.190, -8.389e-7, -4.578e-7, 3.811e-7
0.189, -8.377e-7, -4.596e-7, 3.780e-7
0.188, -8.410e-7, -4.618e-7, 3.793e-7
0.187, -8.407e-7, -4.608e-7, 3.799e-7
0.186, -8.392e-7, -4.611e-7, 3.780e-7
0.185, -8.453e-7, -4.636e-7, 3.817e-7
0.184, -8.416e-7, -4.615e-7, 3.802e-7
0.183, -8.428e-7, -4.636e-7, 3.793e-7
0.182, -8.450e-7, -4.639e-7, 3.811e-7
0.181, -8.456e-7, -4.639e-7, 3.817e-7
0.180, -8.447e-7, -4.642e-7, 3.805e-7
0.179, -8.480e-7, -4.669e-7, 3.811e-7
0.178, -8.468e-7, -4.645e-7, 3.823e-7
0.177, -8.456e-7, -4.651e-7, 3.805e-7
0.176, -8.511e-7, -4.688e-7, 3.823e-7
0.175, -8.496e-7, -4.666e-7, 3.829e-7
0.174, -8.493e-7, -4.679e-7, 3.814e-7
0.173, -8.526e-7, -4.688e-7, 3.838e-7
0.172, -8.514e-7, -4.685e-7, 3.829e-7
0.171, -8.532e-7, -4.703e-7, 3.829e-7
0.170, -8.547e-7, -4.700e-7, 3.848e-7
0.169, -8.532e-7, -4.700e-7, 3.832e-7
0.168, -8.538e-7, -4.715e-7, 3.823e-7
0.167, -8.566e-7, -4.718e-7, 3.848e-7
0.166, -8.551e-7, -4.721e-7, 3.829e-7
0.165, -8.581e-7, -4.734e-7, 3.848e-7
0.164, -8.590e-7, -4.734e-7, 3.857e-7
0.163, -8.593e-7, -4.743e-7, 3.851e-7
0.162, -8.590e-7, -4.743e-7, 3.848e-7
0.161, -8.593e-7, -4.740e-7, 3.854e-7
0.160, -8.618e-7, -4.773e-7, 3.844e-7
0.159, -8.621e-7, -4.764e-7, 3.857e-7
0.158, -8.630e-7, -4.758e-7, 3.872e-7
0.157, -8.648e-7, -4.788e-7, 3.860e-7
0.156, -8.657e-7, -4.785e-7, 3.872e-7
0.155, -8.651e-7, -4.785e-7, 3.866e-7
0.154, -8.666e-7, -4.804e-7, 3.863e-7
0.153, -8.691e-7, -4.813e-7, 3.878e-7
0.152, -8.694e-7, -4.813e-7, 3.881e-7
0.151, -8.718e-7, -4.843e-7, 3.875e-7
0.150, -8.706e-7, -4.825e-7, 3.881e-7
0.149, -8.709e-7, -4.825e-7, 3.884e-7
0.148, -8.752e-7, -4.865e-7, 3.887e-7
0.147, -8.767e-7, -4.859e-7, 3.909e-7
0.146, -8.740e-7, -4.846e-7, 3.893e-7
0.145, -8.752e-7, -4.865e-7, 3.887e-7
0.144, -8.782e-7, -4.865e-7, 3.918e-7
0.143, -8.782e-7, -4.886e-7, 3.896e-7
0.142, -8.819e-7, -4.889e-7, 3.930e-7
0.141, -8.816e-7, -4.895e-7, 3.921e-7
0.140, -8.831e-7, -4.914e-7, 3.918e-7
0.139, -8.843e-7, -4.932e-7, 3.912e-7
0.138, -8.862e-7, -4.920e-7, 3.942e-7
0.137, -8.853e-7, -4.944e-7, 3.909e-7
0.136, -8.892e-7, -4.944e-7, 3.948e-7
0.135, -8.889e-7, -4.938e-7, 3.951e-7
0.134, -8.895e-7, -4.972e-7, 3.924e-7
0.133, -8.935e-7, -4.978e-7, 3.957e-7
0.132, -8.905e-7, -4.962e-7, 3.942e-7
0.131, -8.962e-7, -5.008e-7, 3.954e-7
0.130, -8.966e-7, -5.002e-7, 3.963e-7
0.129, -8.984e-7, -5.005e-7, 3.979e-7
0.128, -8.993e-7, -5.030e-7, 3.963e-7
0.127, -8.996e-7, -5.026e-7, 3.970e-7
0.126, -9.005e-7, -5.026e-7, 3.979e-7
0.125, -9.036e-7, -5.063e-7, 3.973e-7
0.124, -9.048e-7, -5.054e-7, 3.994e-7
0.123, -9.072e-7, -5.063e-7, 4.009e-7
0.122, -9.066e-7, -5.078e-7, 3.988e-7
0.121, -9.106e-7, -5.088e-7, 4.018e-7
0.120, -9.094e-7, -5.088e-7, 4.006e-7
0.119, -9.143e-7, -5.121e-7, 4.021e-7
0.118, -9.152e-7, -5.118e-7, 4.034e-7
0.117, -9.155e-7, -5.124e-7, 4.031e-7
0.116, -9.188e-7, -5.149e-7, 4.040e-7
0.115, -9.194e-7, -5.158e-7, 4.037e-7
0.114, -9.188e-7, -5.149e-7, 4.040e-7
0.113, -9.237e-7, -5.179e-7, 4.058e-7
0.112, -9.234e-7, -5.176e-7, 4.058e-7
0.111, -9.271e-7, -5.207e-7, 4.064e-7
0.110, -9.280e-7, -5.200e-7, 4.079e-7
0.109, -9.289e-7, -5.219e-7, 4.070e-7
0.108, -9.320e-7, -5.243e-7, 4.076e-7
0.107, -9.350e-7, -5.252e-7, 4.098e-7
0.106, -9.323e-7, -5.240e-7, 4.082e-7
0.105, -9.365e-7, -5.271e-7, 4.095e-7
0.104, -9.374e-7, -5.268e-7, 4.107e-7
0.103, -9.417e-7, -5.295e-7, 4.122e-7
0.102, -9.426e-7, -5.301e-7, 4.125e-7
0.101, -9.442e-7, -5.310e-7, 4.131e-7
0.100, -9.448e-7, -5.322e-7, 4.125e-7
0.099, -9.490e-7, -5.347e-7, 4.144e-7
0.098, -9.484e-7, -5.329e-7, 4.156e-7
0.097, -9.527e-7, -5.371e-7, 4.156e-7
0.096, -9.542e-7, -5.380e-7, 4.162e-7
0.095, -9.545e-7, -5.377e-7, 4.168e-7
0.094, -9.561e-7, -5.402e-7, 4.159e-7
0.093, -9.582e-7, -5.402e-7, 4.180e-7
0.092, -9.582e-7, -5.396e-7, 4.186e-7
0.091, -9.622e-7, -5.438e-7, 4.183e-7
0.090, -9.646e-7, -5.448e-7, 4.198e-7
0.089, -9.649e-7, -5.442e-7, 4.208e-7
0.088, -9.674e-7, -5.472e-7, 4.201e-7
0.087, -9.713e-7, -5.484e-7, 4.229e-7
0.086, -9.710e-7, -5.481e-7, 4.229e-7
0.085, -9.747e-7, -5.524e-7, 4.223e-7
0.084, -9.750e-7, -5.512e-7, 4.238e-7
0.083, -9.759e-7, -5.524e-7, 4.235e-7
0.082, -9.808e-7, -5.551e-7, 4.256e-7
0.081, -9.802e-7, -5.542e-7, 4.259e-7
0.080, -9.817e-7, -5.564e-7, 4.253e-7
0.079, -9.878e-7, -5.591e-7, 4.287e-7
0.078, -9.878e-7, -5.585e-7, 4.293e-7
0.077, -9.869e-7, -5.594e-7, 4.275e-7
0.076, -9.930e-7, -5.634e-7, 4.296e-7
0.075, -9.948e-7, -5.619e-7, 4.330e-7
0.074, -9.924e-7, -5.634e-7, 4.290e-7
0.073, -9.979e-7, -5.667e-7, 4.311e-7
0.072, -9.988e-7, -5.658e-7, 4.330e-7
0.071, -1.000e-6, -5.680e-7, 4.320e-7
0.070, -1.003e-6, -5.689e-7, 4.342e-7
0.069, -1.002e-6, -5.686e-7, 4.339e-7
0.068, -1.006e-6, -5.713e-7, 4.351e-7
0.067, -1.010e-6, -5.734e-7, 4.363e-7
0.066, -1.012e-6, -5.734e-7, 4.388e-7
0.065, -1.013e-6, -5.762e-7, 4.369e-7
0.064, -1.017e-6, -5.786e-7, 4.388e-7
0.063, -1.017e-6, -5.768e-7, 4.400e-7
0.062, -1.019e-6, -5.802e-7, 4.391e-7
0.061, -1.023e-6, -5.799e-7, 4.427e-7
0.060, -1.023e-6, -5.817e-7, 4.415e-7
0.059, -1.026e-6, -5.841e-7, 4.418e-7
0.058, -1.026e-6, -5.823e-7, 4.440e-7
0.057, -1.030e-6, -5.863e-7, 4.433e-7
0.056, -1.032e-6, -5.881e-7, 4.436e-7
0.055, -1.034e-6, -5.881e-7, 4.461e-7
0.054, -1.035e-6, -5.896e-7, 4.452e-7
0.053, -1.038e-6, -5.902e-7, 4.476e-7
0.052, -1.038e-6, -5.899e-7, 4.482e-7
0.051, -1.041e-6, -5.930e-7, 4.476e-7
0.050, -1.046e-6, -5.954e-7, 4.504e-7
0.049, -1.047e-6, -5.951e-7, 4.516e-7
0.048, -1.049e-6, -5.982e-7, 4.510e-7
0.047, -1.051e-6, -5.985e-7, 4.528e-7
0.046, -1.052e-6, -5.991e-7, 4.534e-7
0.045, -1.058e-6, -6.018e-7, 4.562e-7
0.044, -1.059e-6, -6.027e-7, 4.565e-7
0.043, -1.061e-6, -6.049e-7, 4.559e-7
0.042, -1.063e-6, -6.061e-7, 4.574e-7
0.041, -1.065e-6, -6.061e-7, 4.589e-7
0.040, -1.067e-6, -6.076e-7, 4.589e-7
0.039, -1.070e-6, -6.091e-7, 4.604e-7
0.038, -1.073e-6, -6.101e-7, 4.629e-7
0.037, -1.074e-6, -6.122e-7, 4.620e-7
0.036, -1.077e-6, -6.128e-7, 4.638e-7
0.035, -1.079e-6, -6.149e-7, 4.641e-7
0.034, -1.080e-6, -6.149e-7, 4.647e-7
0.033, -1.085e-6, -6.174e-7, 4.674e-7
0.032, -1.086e-6, -6.171e-7, 4.693e-7
0.031, -1.087e-6, -6.201e-7, 4.671e-7
0.030, -1.092e-6, -6.217e-7, 4.699e-7
0.029, -1.093e-6, -6.220e-7, 4.708e-7
0.028, -1.094e-6, -6.241e-7, 4.696e-7
0.027, -1.099e-6, -6.244e-7, 4.742e-7
0.026, -1.099e-6, -6.253e-7, 4.732e-7
0.025, -1.101e-6, -6.265e-7, 4.745e-7
0.024, -1.105e-6, -6.290e-7, 4.760e-7
0.023, -1.106e-6, -6.287e-7, 4.772e-7
0.022, -1.108e-6, -6.311e-7, 4.769e-7
0.021, -1.114e-6, -6.330e-7, 4.815e-7
0.020, -1.114e-6, -6.330e-7, 4.806e-7
0.019, -1.116e-6, -6.357e-7, 4.806e-7
0.018, -1.120e-6, -6.369e-7, 4.827e-7
0.017, -1.121e-6, -6.369e-7, 4.836e-7
0.016, -1.125e-6, -6.394e-7, 4.851e-7
0.015, -1.126e-6, -6.397e-7, 4.864e-7
0.014, -1.128e-6, -6.409e-7, 4.870e-7
0.013, -1.131e-6, -6.436e-7, 4.876e-7
0.012, -1.135e-6, -6.439e-7, 4.909e-7
0.011, -1.136e-6, -6.455e-7, 4.906e-7
0.010, -1.137e-6, -6.461e-7, 4.909e-7
0.009, -1.142e-6, -6.464e-7, 4.955e-7
0.008, -1.144e-6, -6.491e-7, 4.949e-7
0.007, -1.146e-6, -6.516e-7, 4.940e-7
0.006, -1.149e-6, -6.507e-7, 4.980e-7
0.005, -1.150e-6, -6.525e-7, 4.980e-7
0.004, -1.153e-6, -6.534e-7, 4.995e-7
0.003, -1.154e-6, -6.531e-7, 5.007e-7
0.002, -1.157e-6, -6.552e-7, 5.022e-7
0.001, -1.161e-6, -6.564e-7, 5.044e-7
0.000, -1.162e-6, -6.571e-7, 5.047e-7
-0.001, -1.165e-6, -6.601e-7, 5.053e-7
-0.002, -1.168e-6, -6.598e-7, 5.077e-7
-0.003, -1.168e-6, -6.601e-7, 5.077e-7
-0.004, -1.173e-6, -6.644e-7, 5.083e-7
-0.005, -1.172e-6, -6.613e-7, 5.111e-7
-0.006, -1.175e-6, -6.629e-7, 5.117e-7
-0.007, -1.180e-6, -6.656e-7, 5.141e-7
-0.008, -1.181e-6, -6.656e-7, 5.151e-7
-0.009, -1.182e-6, -6.671e-7, 5.154e-7
-0.010, -1.185e-6, -6.680e-7, 5.169e-7
-0.011, -1.186e-6, -6.690e-7, 5.169e-7
-0.012, -1.189e-6, -6.693e-7, 5.199e-7
-0.013, -1.193e-6, -6.714e-7, 5.212e-7
-0.014, -1.190e-6, -6.699e-7, 5.205e-7
-0.015, -1.194e-6, -6.741e-7, 5.202e-7
-0.016, -1.198e-6, -6.741e-7, 5.239e-7
-0.017, -1.199e-6, -6.732e-7, 5.260e-7
-0.018, -1.200e-6, -6.751e-7, 5.245e-7
-0.019, -1.201e-6, -6.754e-7, 5.260e-7
-0.020, -1.205e-6, -6.763e-7, 5.285e-7
-0.021, -1.209e-6, -6.796e-7, 5.294e-7
-0.022, -1.211e-6, -6.790e-7, 5.315e-7
-0.023, -1.209e-6, -6.769e-7, 5.321e-7
-0.024, -1.215e-6, -6.818e-7, 5.331e-7
-0.025, -1.215e-6, -6.799e-7, 5.346e-7
-0.026, -1.215e-6, -6.806e-7, 5.346e-7
-0.027, -1.217e-6, -6.827e-7, 5.343e-7
-0.028, -1.220e-6, -6.818e-7, 5.382e-7
-0.029, -1.219e-6, -6.821e-7, 5.367e-7
-0.030, -1.224e-6, -6.842e-7, 5.398e-7
-0.031, -1.225e-6, -6.836e-7, 5.410e-7
-0.032, -1.225e-6, -6.845e-7, 5.401e-7
-0.033, -1.228e-6, -6.854e-7, 5.428e-7
-0.034, -1.229e-6, -6.845e-7, 5.447e-7
-0.035, -1.229e-6, -6.854e-7, 5.434e-7
-0.036, -1.232e-6, -6.870e-7, 5.450e-7
-0.037, -1.233e-6, -6.857e-7, 5.468e-7
-0.038, -1.234e-6, -6.867e-7, 5.474e-7
-0.039, -1.237e-6, -6.888e-7, 5.486e-7
-0.040, -1.239e-6, -6.876e-7, 5.511e-7
-0.041, -1.239e-6, -6.891e-7, 5.498e-7
-0.042, -1.242e-6, -6.900e-7, 5.520e-7
-0.043, -1.241e-6, -6.876e-7, 5.538e-7
-0.044, -1.242e-6, -6.900e-7, 5.520e-7
-0.045, -1.245e-6, -6.897e-7, 5.550e-7
-0.046, -1.245e-6, -6.882e-7, 5.569e-7
-0.047, -1.245e-6, -6.900e-7, 5.553e-7
-0.048, -1.246e-6, -6.894e-7, 5.569e-7
-0.049, -1.248e-6, -6.894e-7, 5.584e-7
-0.050, -1.250e-6, -6.903e-7, 5.599e-7
-0.051, -1.250e-6, -6.891e-7, 5.608e-7
-0.052, -1.248e-6, -6.876e-7, 5.608e-7
-0.053, -1.252e-6, -6.903e-7, 5.620e-7
-0.054, -1.254e-6, -6.906e-7, 5.630e-7
-0.055, -1.254e-6, -6.918e-7, 5.624e-7
-0.056, -1.256e-6, -6.915e-7, 5.645e-7
-0.057, -1.255e-6, -6.888e-7, 5.666e-7
-0.058, -1.258e-6, -6.922e-7, 5.657e-7
-0.059, -1.258e-6, -6.906e-7, 5.669e-7
-0.060, -1.257e-6, -6.888e-7, 5.681e-7
-0.061, -1.258e-6, -6.906e-7, 5.672e-7
-0.062, -1.260e-6, -6.900e-7, 5.700e-7
-0.063, -1.262e-6, -6.897e-7, 5.718e-7
-0.064, -1.261e-6, -6.903e-7, 5.703e-7
-0.065, -1.262e-6, -6.900e-7, 5.721e-7
-0.066, -1.262e-6, -6.888e-7, 5.730e-7
-0.067, -1.263e-6, -6.897e-7, 5.733e-7
-0.068, -1.264e-6, -6.903e-7, 5.736e-7
-0.069, -1.263e-6, -6.879e-7, 5.752e-7
-0.070, -1.265e-6, -6.891e-7, 5.764e-7
-0.071, -1.266e-6, -6.888e-7, 5.776e-7
-0.072, -1.262e-6, -6.867e-7, 5.755e-7
-0.073, -1.265e-6, -6.879e-7, 5.773e-7
-0.074, -1.267e-6, -6.873e-7, 5.794e-7
-0.075, -1.267e-6, -6.876e-7, 5.791e-7
-0.076, -1.269e-6, -6.894e-7, 5.800e-7
-0.077, -1.267e-6, -6.857e-7, 5.813e-7
-0.078, -1.268e-6, -6.882e-7, 5.800e-7
-0.079, -1.269e-6, -6.870e-7, 5.822e-7
-0.080, -1.268e-6, -6.845e-7, 5.834e-7
-0.081, -1.268e-6, -6.857e-7, 5.822e-7
-0.082, -1.271e-6, -6.861e-7, 5.846e-7
-0.083, -1.272e-6, -6.854e-7, 5.862e-7
-0.084, -1.270e-6, -6.861e-7, 5.837e-7
-0.085, -1.272e-6, -6.851e-7, 5.868e-7
-0.086, -1.268e-6, -6.818e-7, 5.858e-7
-0.087, -1.270e-6, -6.845e-7, 5.858e-7
-0.088, -1.272e-6, -6.842e-7, 5.880e-7
-0.089, -1.270e-6, -6.827e-7, 5.874e-7
-0.090, -1.272e-6, -6.839e-7, 5.877e-7
-0.091, -1.274e-6, -6.833e-7, 5.904e-7
-0.092, -1.272e-6, -6.809e-7, 5.907e-7
-0.093, -1.272e-6, -6.824e-7, 5.895e-7
-0.094, -1.274e-6, -6.815e-7, 5.923e-7
-0.095, -1.270e-6, -6.799e-7, 5.898e-7
-0.096, -1.271e-6, -6.818e-7, 5.895e-7
-0.097, -1.271e-6, -6.790e-7, 5.916e-7
-0.098, -1.272e-6, -6.790e-7, 5.926e-7
-0.099, -1.272e-6, -6.790e-7, 5.929e-7
-0.100, -1.272e-6, -6.784e-7, 5.938e-7
-0.101, -1.270e-6, -6.775e-7, 5.929e-7
-0.102, -1.271e-6, -6.775e-7, 5.935e-7
-0.103, -1.273e-6, -6.763e-7, 5.962e-7
-0.104, -1.269e-6, -6.745e-7, 5.944e-7
-0.105, -1.270e-6, -6.751e-7, 5.947e-7
-0.106, -1.268e-6, -6.732e-7, 5.947e-7
-0.107, -1.267e-6, -6.729e-7, 5.944e-7
-0.108, -1.270e-6, -6.732e-7, 5.965e-7
-0.109, -1.270e-6, -6.723e-7, 5.974e-7
-0.110, -1.269e-6, -6.717e-7, 5.968e-7
-0.111, -1.269e-6, -6.711e-7, 5.974e-7
-0.112, -1.267e-6, -6.702e-7, 5.971e-7
-0.113, -1.268e-6, -6.711e-7, 5.971e-7
-0.114, -1.265e-6, -6.677e-7, 5.968e-7
-0.115, -1.267e-6, -6.699e-7, 5.968e-7
-0.116, -1.267e-6, -6.687e-7, 5.984e-7
-0.117, -1.265e-6, -6.668e-7, 5.981e-7
-0.118, -1.263e-6, -6.662e-7, 5.971e-7
-0.119, -1.265e-6, -6.668e-7, 5.987e-7
-0.120, -1.265e-6, -6.653e-7, 6.002e-7
-0.121, -1.262e-6, -6.653e-7, 5.968e-7
-0.122, -1.264e-6, -6.647e-7, 5.996e-7
-0.123, -1.262e-6, -6.629e-7, 5.993e-7
-0.124, -1.260e-6, -6.619e-7, 5.984e-7
-0.125, -1.262e-6, -6.626e-7, 5.999e-7
-0.126, -1.262e-6, -6.619e-7, 5.996e-7
-0.127, -1.258e-6, -6.592e-7, 5.984e-7
-0.128, -1.258e-6, -6.595e-7, 5.987e-7
-0.129, -1.259e-6, -6.583e-7, 6.011e-7
-0.130, -1.257e-6, -6.574e-7, 5.996e-7
-0.131, -1.258e-6, -6.577e-7, 6.002e-7
-0.132, -1.252e-6, -6.549e-7, 5.974e-7
-0.133, -1.255e-6, -6.577e-7, 5.971e-7
-0.134, -1.255e-6, -6.555e-7, 5.993e-7
-0.135, -1.251e-6, -6.516e-7, 5.990e-7
-0.136, -1.251e-6, -6.531e-7, 5.977e-7
-0.137, -1.250e-6, -6.516e-7, 5.987e-7
-0.138, -1.247e-6, -6.497e-7, 5.974e-7
-0.139, -1.248e-6, -6.500e-7, 5.984e-7
-0.140, -1.245e-6, -6.473e-7, 5.981e-7
-0.141, -1.244e-6, -6.476e-7, 5.968e-7
-0.142, -1.245e-6, -6.482e-7, 5.968e-7
-0.143, -1.245e-6, -6.461e-7, 5.990e-7
-0.144, -1.241e-6, -6.449e-7, 5.959e-7
-0.145, -1.243e-6, -6.455e-7, 5.971e-7
-0.146, -1.243e-6, -6.452e-7, 5.974e-7
-0.147, -1.237e-6, -6.424e-7, 5.941e-7
-0.148, -1.239e-6, -6.427e-7, 5.959e-7
-0.149, -1.238e-6, -6.412e-7, 5.968e-7
-0.150, -1.235e-6, -6.415e-7, 5.935e-7
-0.151, -1.235e-6, -6.397e-7, 5.950e-7
-0.152, -1.233e-6, -6.369e-7, 5.965e-7
-0.153, -1.229e-6, -6.366e-7, 5.923e-7
-0.154, -1.233e-6, -6.394e-7, 5.935e-7
-0.155, -1.228e-6, -6.342e-7, 5.938e-7
-0.156, -1.225e-6, -6.342e-7, 5.910e-7
-0.157, -1.225e-6, -6.333e-7, 5.913e-7
-0.158, -1.223e-6, -6.320e-7, 5.910e-7
-0.159, -1.226e-6, -6.336e-7, 5.923e-7
-0.160, -1.223e-6, -6.317e-7, 5.910e-7
-0.161, -1.220e-6, -6.296e-7, 5.901e-7
-0.162, -1.221e-6, -6.314e-7, 5.892e-7
-0.163, -1.217e-6, -6.272e-7, 5.901e-7
-0.164, -1.218e-6, -6.290e-7, 5.892e-7
-0.165, -1.217e-6, -6.275e-7, 5.898e-7
-0.166, -1.215e-6, -6.259e-7, 5.892e-7
-0.167, -1.212e-6, -6.262e-7, 5.862e-7
-0.168, -1.214e-6, -6.265e-7, 5.874e-7
-0.169, -1.211e-6, -6.223e-7, 5.883e-7
-0.170, -1.209e-6, -6.232e-7, 5.855e-7
-0.171, -1.209e-6, -6.226e-7, 5.865e-7
-0.172, -1.205e-6, -6.204e-7, 5.846e-7
-0.173, -1.204e-6, -6.201e-7, 5.843e-7
-0.174, -1.204e-6, -6.195e-7, 5.849e-7
-0.175, -1.200e-6, -6.180e-7, 5.825e-7
-0.176, -1.199e-6, -6.183e-7, 5.810e-7
-0.177, -1.202e-6, -6.180e-7, 5.837e-7
-0.178, -1.202e-6, -6.198e-7, 5.822e-7
-0.179, -1.196e-6, -6.159e-7, 5.804e-7
-0.180, -1.196e-6, -6.149e-7, 5.813e-7
-0.181, -1.195e-6, -6.149e-7, 5.800e-7
-0.182, -1.194e-6, -6.134e-7, 5.810e-7
-0.183, -1.195e-6, -6.137e-7, 5.813e-7
-0.184, -1.191e-6, -6.134e-7, 5.779e-7
-0.185, -1.190e-6, -6.125e-7, 5.776e-7
-0.186, -1.189e-6, -6.104e-7, 5.782e-7
-0.187, -1.188e-6, -6.107e-7, 5.773e-7
-0.188, -1.186e-6, -6.085e-7, 5.770e-7
-0.189, -1.183e-6, -6.067e-7, 5.767e-7
-0.190, -1.184e-6, -6.085e-7, 5.755e-7
-0.191, -1.183e-6, -6.082e-7, 5.749e-7
-0.192, -1.185e-6, -6.088e-7, 5.758e-7
-0.193, -1.181e-6, -6.085e-7, 5.724e-7
-0.194, -1.179e-6, -6.061e-7, 5.733e-7
-0.195, -1.180e-6, -6.055e-7, 5.743e-7
-0.196, -1.178e-6, -6.070e-7, 5.706e-7
-0.197, -1.178e-6, -6.055e-7, 5.724e-7
-0.198, -1.174e-6, -6.027e-7, 5.715e-7
-0.199, -1.176e-6, -6.052e-7, 5.706e-7
-0.200, -1.175e-6, -6.046e-7, 5.703e-7
-0.201, -1.173e-6, -6.024e-7, 5.703e-7
-0.202, -1.172e-6, -6.043e-7, 5.675e-7
-0.203, -1.174e-6, -6.046e-7, 5.694e-7
-0.204, -1.169e-6, -6.006e-7, 5.688e-7
-0.205, -1.169e-6, -6.024e-7, 5.666e-7
-0.206, -1.169e-6, -6.009e-7, 5.685e-7
-0.207, -1.166e-6, -5.991e-7, 5.666e-7
-0.208, -1.166e-6, -6.012e-7, 5.648e-7
-0.209, -1.167e-6, -6.003e-7, 5.669e-7
-0.210, -1.164e-6, -5.991e-7, 5.645e-7
-0.211, -1.161e-6, -5.985e-7, 5.627e-7
-0.212, -1.162e-6, -5.979e-7, 5.639e-7
-0.213, -1.159e-6, -5.969e-7, 5.623e-7
-0.214, -1.160e-6, -5.985e-7, 5.614e-7
-0.215, -1.158e-6, -5.957e-7, 5.620e-7
-0.216, -1.157e-6, -5.963e-7, 5.611e-7
-0.217, -1.155e-6, -5.948e-7, 5.599e-7
-0.218, -1.156e-6, -5.945e-7, 5.611e-7
-0.219, -1.157e-6, -5.985e-7, 5.587e-7
-0.220, -1.156e-6, -5.960e-7, 5.599e-7
-0.221, -1.153e-6, -5.945e-7, 5.581e-7
-0.222, -1.153e-6, -5.945e-7, 5.581e-7
-0.223, -1.154e-6, -5.966e-7, 5.578e-7
-0.224, -1.150e-6, -5.933e-7, 5.566e-7
-0.225, -1.150e-6, -5.939e-7, 5.556e-7
-0.226, -1.150e-6, -5.936e-7, 5.566e-7
-0.227, -1.147e-6, -5.918e-7, 5.553e-7
-0.228, -1.148e-6, -5.939e-7, 5.541e-7
-0.229, -1.148e-6, -5.927e-7, 5.556e-7
-0.230, -1.141e-6, -5.902e-7, 5.511e-7
-0.231, -1.145e-6, -5.921e-7, 5.532e-7
-0.232, -1.145e-6, -5.915e-7, 5.532e-7
-0.233, -1.142e-6, -5.905e-7, 5.514e-7
-0.234, -1.143e-6, -5.921e-7, 5.511e-7
-0.235, -1.141e-6, -5.911e-7, 5.501e-7
-0.236, -1.143e-6, -5.936e-7, 5.495e-7
-0.237, -1.142e-6, -5.924e-7, 5.498e-7
-0.238, -1.138e-6, -5.893e-7, 5.489e-7
-0.239, -1.137e-6, -5.896e-7, 5.474e-7
-0.240, -1.136e-6, -5.896e-7, 5.468e-7
-0.241, -1.135e-6, -5.872e-7, 5.477e-7
-0.242, -1.135e-6, -5.896e-7, 5.450e-7
-0.243, -1.134e-6, -5.881e-7, 5.456e-7
-0.244, -1.133e-6, -5.890e-7, 5.443e-7
-0.245, -1.140e-6, -5.966e-7, 5.434e-7
-0.246, -1.132e-6, -5.881e-7, 5.443e-7
-0.247, -1.130e-6, -5.872e-7, 5.428e-7
-0.248, -1.132e-6, -5.896e-7, 5.422e-7
-0.249, -1.128e-6, -5.860e-7, 5.425e-7
-0.250, -1.128e-6, -5.872e-7, 5.407e-7
-0.251, -1.127e-6, -5.869e-7, 5.398e-7
-0.252, -1.129e-6, -5.878e-7, 5.413e-7
-0.253, -1.123e-6, -5.850e-7, 5.382e-7
-0.254, -1.127e-6, -5.878e-7, 5.389e-7
-0.255, -1.125e-6, -5.857e-7, 5.389e-7
-0.256, -1.123e-6, -5.854e-7, 5.373e-7
-0.257, -1.125e-6, -5.875e-7, 5.373e-7
-0.258, -1.121e-6, -5.832e-7, 5.382e-7
-0.259, -1.126e-6, -5.905e-7, 5.355e-7
-0.260, -1.121e-6, -5.857e-7, 5.355e-7
-0.261, -1.121e-6, -5.850e-7, 5.361e-7
-0.262, -1.119e-6, -5.854e-7, 5.334e-7
-0.263, -1.120e-6, -5.857e-7, 5.343e-7
-0.264, -1.116e-6, -5.823e-7, 5.340e-7
-0.265, -1.115e-6, -5.829e-7, 5.318e-7
-0.266, -1.118e-6, -5.854e-7, 5.327e-7
-0.267, -1.117e-6, -5.841e-7, 5.334e-7
-0.268, -1.114e-6, -5.835e-7, 5.300e-7
-0.269, -1.115e-6, -5.835e-7, 5.315e-7
-0.270, -1.113e-6, -5.838e-7, 5.294e-7
-0.271, -1.112e-6, -5.835e-7, 5.285e-7
-0.272, -1.113e-6, -5.841e-7, 5.288e-7
-0.273, -1.110e-6, -5.823e-7, 5.276e-7
-0.274, -1.109e-6, -5.823e-7, 5.270e-7
-0.275, -1.109e-6, -5.808e-7, 5.279e-7
-0.276, -1.107e-6, -5.814e-7, 5.251e-7
-0.277, -1.111e-6, -5.835e-7, 5.273e-7
-0.278, -1.105e-6, -5.792e-7, 5.254e-7
-0.279, -1.105e-6, -5.808e-7, 5.245e-7
-0.280, -1.110e-6, -5.844e-7, 5.251e-7
-0.281, -1.104e-6, -5.808e-7, 5.236e-7
-0.282, -1.105e-6, -5.820e-7, 5.230e-7
-0.283, -1.104e-6, -5.814e-7, 5.230e-7
-0.284, -1.104e-6, -5.811e-7, 5.227e-7
-0.285, -1.103e-6, -5.814e-7, 5.218e-7
-0.286, -1.103e-6, -5.805e-7, 5.224e-7
-0.287, -1.103e-6, -5.817e-7, 5.208e-7
-0.288, -1.102e-6, -5.814e-7, 5.205e-7
-0.289, -1.101e-6, -5.799e-7, 5.212e-7
-0.290, -1.099e-6, -5.799e-7, 5.193e-7
-0.291, -1.100e-6, -5.823e-7, 5.181e-7
-0.292, -1.103e-6, -5.820e-7, 5.215e-7
-0.293, -1.097e-6, -5.786e-7, 5.187e-7
-0.294, -1.099e-6, -5.808e-7, 5.181e-7
-0.295, -1.099e-6, -5.802e-7, 5.184e-7
-0.296, -1.096e-6, -5.805e-7, 5.160e-7
-0.297, -1.097e-6, -5.802e-7, 5.169e-7
-0.298, -1.097e-6, -5.792e-7, 5.178e-7
-0.299, -1.097e-6, -5.817e-7, 5.150e-7
-0.300, -1.096e-6, -5.808e-7, 5.157e-7
-0.301, -1.097e-6, -5.802e-7, 5.169e-7
-0.302, -1.094e-6, -5.783e-7, 5.154e-7
-0.303, -1.096e-6, -5.799e-7, 5.160e-7
-0.304, -1.092e-6, -5.774e-7, 5.144e-7
-0.305, -1.096e-6, -5.832e-7, 5.123e-7
-0.306, -1.096e-6, -5.805e-7, 5.154e-7
-0.307, -1.093e-6, -5.786e-7, 5.141e-7
-0.308, -1.095e-6, -5.808e-7, 5.138e-7
-0.309, -1.093e-6, -5.799e-7, 5.132e-7
-0.310, -1.091e-6, -5.777e-7, 5.132e-7
-0.311, -1.099e-6, -5.875e-7, 5.117e-7
-0.312, -1.094e-6, -5.802e-7, 5.135e-7
-0.313, -1.094e-6, -5.817e-7, 5.123e-7
-0.314, -1.092e-6, -5.820e-7, 5.105e-7
-0.315, -1.093e-6, -5.805e-7, 5.129e-7
-0.316, -1.090e-6, -5.792e-7, 5.108e-7
-0.317, -1.094e-6, -5.826e-7, 5.111e-7
-0.318, -1.093e-6, -5.811e-7, 5.117e-7
-0.319, -1.092e-6, -5.808e-7, 5.108e-7
-0.320, -1.090e-6, -5.802e-7, 5.096e-7
-0.321, -1.093e-6, -5.832e-7, 5.102e-7
-0.322, -1.089e-6, -5.805e-7, 5.089e-7
-0.323, -1.091e-6, -5.811e-7, 5.099e-7
-0.324, -1.091e-6, -5.805e-7, 5.105e-7
-0.325, -1.091e-6, -5.823e-7, 5.086e-7
-0.326, -1.093e-6, -5.829e-7, 5.099e-7
-0.327, -1.088e-6, -5.802e-7, 5.077e-7
-0.328, -1.090e-6, -5.820e-7, 5.077e-7
-0.329, -1.089e-6, -5.814e-7, 5.080e-7
-0.330, -1.088e-6, -5.823e-7, 5.062e-7
-0.331, -1.090e-6, -5.826e-7, 5.071e-7
-0.332, -1.090e-6, -5.820e-7, 5.077e-7
-0.333, -1.089e-6, -5.829e-7, 5.059e-7
-0.334, -1.089e-6, -5.829e-7, 5.065e-7
-0.335, -1.090e-6, -5.826e-7, 5.071e-7
-0.336, -1.087e-6, -5.814e-7, 5.053e-7
-0.337, -1.089e-6, -5.838e-7, 5.053e-7
-0.338, -1.088e-6, -5.826e-7, 5.059e-7
-0.339, -1.088e-6, -5.835e-7, 5.047e-7
-0.340, -1.088e-6, -5.847e-7, 5.031e-7
-0.341, -1.088e-6, -5.823e-7, 5.062e-7
-0.342, -1.088e-6, -5.829e-7, 5.047e-7
-0.343, -1.089e-6, -5.838e-7, 5.053e-7
-0.344, -1.088e-6, -5.838e-7, 5.047e-7
-0.345, -1.089e-6, -5.857e-7, 5.031e-7
-0.346, -1.091e-6, -5.866e-7, 5.041e-7
-0.347, -1.088e-6, -5.841e-7, 5.035e-7
-0.348, -1.085e-6, -5.838e-7, 5.016e-7
-0.349, -1.090e-6, -5.860e-7, 5.038e-7
-0.350, -1.087e-6, -5.844e-7, 5.022e-7
-0.351, -1.088e-6, -5.860e-7, 5.022e-7
-0.352, -1.087e-6, -5.844e-7, 5.022e-7
-0.353, -1.088e-6, -5.863e-7, 5.016e-7
-0.354, -1.085e-6, -5.844e-7, 5.001e-7
-0.355, -1.087e-6, -5.860e-7, 5.010e-7
-0.356, -1.086e-6, -5.857e-7, 5.004e-7
-0.357, -1.087e-6, -5.875e-7, 4.995e-7
-0.358, -1.086e-6, -5.850e-7, 5.007e-7
-0.359, -1.086e-6, -5.863e-7, 4.998e-7
-0.360, -1.090e-6, -5.905e-7, 4.992e-7
-0.361, -1.086e-6, -5.863e-7, 5.001e-7
-0.362, -1.082e-6, -5.841e-7, 4.977e-7
-0.363, -1.088e-6, -5.893e-7, 4.989e-7
-0.364, -1.085e-6, -5.863e-7, 4.989e-7
-0.365, -1.086e-6, -5.890e-7, 4.973e-7
-0.366, -1.090e-6, -5.921e-7, 4.983e-7
-0.367, -1.092e-6, -5.921e-7, 4.995e-7
-0.368, -1.084e-6, -5.881e-7, 4.961e-7
-0.369, -1.086e-6, -5.893e-7, 4.964e-7
-0.370, -1.085e-6, -5.869e-7, 4.977e-7
-0.371, -1.083e-6, -5.878e-7, 4.955e-7
-0.372, -1.084e-6, -5.887e-7, 4.955e-7
-0.373, -1.083e-6, -5.866e-7, 4.964e-7
-0.374, -1.086e-6, -5.899e-7, 4.958e-7
-0.375, -1.084e-6, -5.890e-7, 4.952e-7
-0.376, -1.086e-6, -5.915e-7, 4.946e-7
-0.377, -1.083e-6, -5.884e-7, 4.943e-7
-0.378, -1.083e-6, -5.899e-7, 4.928e-7
-0.379, -1.084e-6, -5.905e-7, 4.937e-7
-0.380, -1.086e-6, -5.927e-7, 4.931e-7
-0.381, -1.081e-6, -5.893e-7, 4.912e-7
-0.382, -1.082e-6, -5.905e-7, 4.912e-7
-0.383, -1.083e-6, -5.911e-7, 4.922e-7
-0.384, -1.080e-6, -5.896e-7, 4.903e-7
-0.385, -1.081e-6, -5.908e-7, 4.906e-7
-0.386, -1.081e-6, -5.921e-7, 4.891e-7
-0.387, -1.079e-6, -5.902e-7, 4.891e-7
-0.388, -1.083e-6, -5.942e-7, 4.885e-7
-0.389, -1.082e-6, -5.924e-7, 4.894e-7
-0.390, -1.082e-6, -5.930e-7, 4.894e-7
-0.391, -1.081e-6, -5.936e-7, 4.879e-7
-0.392, -1.083e-6, -5.948e-7, 4.885e-7
-0.393, -1.081e-6, -5.933e-7, 4.873e-7
-0.394, -1.089e-6, -6.003e-7, 4.885e-7
-0.395, -1.080e-6, -5.942e-7, 4.861e-7
-0.396, -1.082e-6, -5.954e-7, 4.870e-7
-0.397, -1.081e-6, -5.951e-7, 4.858e-7
-0.398, -1.082e-6, -5.951e-7, 4.870e-7
-0.399, -1.081e-6, -5.963e-7, 4.848e-7
-0.400, -1.082e-6, -5.966e-7, 4.851e-7
