Mar. 20, 2018   16:03:11
Square Wave Voltammetry
File: c:\users\electrochemist\desktop\2018\20032018_unbufarray_unpap\66_g4_ph9,96_5.txt
Data Source:  Experiment
Instrument Model:  CHI1040A
Header: 
Note: 

Init E (V) = 0.7
Final E (V) = -0.4
Incr E (V) = 0.001
Amplitude (V) = 0.1
Frequency (Hz) = 152
Quiet Time (sec) = 2
Sensitivity (A/V) = 1e-6

Difference:

Forward:

Reverse:

Potential/V, Diff(i/A), For(i/A), Rev(i/A)

0.699, -7.708e-7, -1.834e-7, 5.874e-7
0.698, -9.225e-7, -3.870e-7, 5.355e-7
0.697, -9.216e-7, -3.995e-7, 5.221e-7
0.696, -9.158e-7, -4.010e-7, 5.148e-7
0.695, -9.103e-7, -4.029e-7, 5.074e-7
0.694, -9.072e-7, -4.038e-7, 5.035e-7
0.693, -8.990e-7, -4.001e-7, 4.989e-7
0.692, -8.950e-7, -4.026e-7, 4.925e-7
0.691, -8.935e-7, -4.035e-7, 4.900e-7
0.690, -8.908e-7, -4.013e-7, 4.894e-7
0.689, -8.865e-7, -4.022e-7, 4.842e-7
0.688, -8.843e-7, -4.029e-7, 4.815e-7
0.687, -8.795e-7, -4.001e-7, 4.794e-7
0.686, -8.740e-7, -4.010e-7, 4.729e-7
0.685, -8.761e-7, -4.016e-7, 4.745e-7
0.684, -8.703e-7, -3.995e-7, 4.708e-7
0.683, -8.700e-7, -4.013e-7, 4.687e-7
0.682, -8.700e-7, -4.001e-7, 4.699e-7
0.681, -8.612e-7, -3.986e-7, 4.626e-7
0.680, -8.599e-7, -3.989e-7, 4.610e-7
0.679, -8.554e-7, -3.961e-7, 4.592e-7
0.678, -8.541e-7, -3.977e-7, 4.565e-7
0.677, -8.544e-7, -3.983e-7, 4.562e-7
0.676, -8.511e-7, -3.949e-7, 4.562e-7
0.675, -8.474e-7, -3.961e-7, 4.513e-7
0.674, -8.462e-7, -3.974e-7, 4.488e-7
0.673, -8.432e-7, -3.949e-7, 4.482e-7
0.672, -8.425e-7, -3.986e-7, 4.440e-7
0.671, -8.413e-7, -3.977e-7, 4.437e-7
0.670, -8.392e-7, -3.968e-7, 4.424e-7
0.669, -8.343e-7, -3.961e-7, 4.382e-7
0.668, -8.340e-7, -3.955e-7, 4.385e-7
0.667, -8.316e-7, -3.925e-7, 4.391e-7
0.666, -8.288e-7, -3.952e-7, 4.336e-7
0.665, -8.316e-7, -3.958e-7, 4.357e-7
0.664, -8.270e-7, -3.931e-7, 4.339e-7
0.663, -8.245e-7, -3.952e-7, 4.293e-7
0.662, -8.261e-7, -3.946e-7, 4.314e-7
0.661, -8.239e-7, -3.928e-7, 4.311e-7
0.660, -8.212e-7, -3.943e-7, 4.269e-7
0.659, -8.190e-7, -3.925e-7, 4.266e-7
0.658, -8.157e-7, -3.907e-7, 4.250e-7
0.657, -8.145e-7, -3.922e-7, 4.223e-7
0.656, -8.148e-7, -3.919e-7, 4.229e-7
0.655, -8.126e-7, -3.910e-7, 4.217e-7
0.654, -8.111e-7, -3.913e-7, 4.198e-7
0.653, -8.111e-7, -3.925e-7, 4.186e-7
0.652, -8.084e-7, -3.910e-7, 4.174e-7
0.651, -8.062e-7, -3.900e-7, 4.162e-7
0.650, -8.044e-7, -3.888e-7, 4.156e-7
0.649, -8.056e-7, -3.916e-7, 4.141e-7
0.648, -8.038e-7, -3.897e-7, 4.141e-7
0.647, -8.007e-7, -3.876e-7, 4.131e-7
0.646, -8.004e-7, -3.910e-7, 4.095e-7
0.645, -8.001e-7, -3.888e-7, 4.113e-7
0.644, -7.983e-7, -3.876e-7, 4.107e-7
0.643, -7.986e-7, -3.907e-7, 4.079e-7
0.642, -7.989e-7, -3.888e-7, 4.101e-7
0.641, -7.937e-7, -3.873e-7, 4.064e-7
0.640, -7.922e-7, -3.873e-7, 4.049e-7
0.639, -7.907e-7, -3.861e-7, 4.046e-7
0.638, -7.910e-7, -3.876e-7, 4.034e-7
0.637, -7.910e-7, -3.885e-7, 4.025e-7
0.636, -7.894e-7, -3.864e-7, 4.031e-7
0.635, -7.885e-7, -3.876e-7, 4.009e-7
0.634, -7.891e-7, -3.882e-7, 4.009e-7
0.633, -7.891e-7, -3.858e-7, 4.034e-7
0.632, -7.840e-7, -3.852e-7, 3.988e-7
0.631, -7.867e-7, -3.885e-7, 3.982e-7
0.630, -7.843e-7, -3.855e-7, 3.988e-7
0.629, -7.827e-7, -3.867e-7, 3.960e-7
0.628, -7.849e-7, -3.870e-7, 3.979e-7
0.627, -7.815e-7, -3.839e-7, 3.976e-7
0.626, -7.818e-7, -3.870e-7, 3.948e-7
0.625, -7.815e-7, -3.852e-7, 3.964e-7
0.624, -7.815e-7, -3.855e-7, 3.960e-7
0.623, -7.803e-7, -3.876e-7, 3.927e-7
0.622, -7.794e-7, -3.845e-7, 3.948e-7
0.621, -7.757e-7, -3.830e-7, 3.927e-7
0.620, -7.785e-7, -3.870e-7, 3.915e-7
0.619, -7.763e-7, -3.830e-7, 3.933e-7
0.618, -7.739e-7, -3.830e-7, 3.909e-7
0.617, -7.739e-7, -3.858e-7, 3.881e-7
0.616, -7.766e-7, -3.849e-7, 3.918e-7
0.615, -7.754e-7, -3.849e-7, 3.906e-7
0.614, -7.736e-7, -3.858e-7, 3.878e-7
0.613, -7.745e-7, -3.839e-7, 3.906e-7
0.612, -7.690e-7, -3.818e-7, 3.872e-7
0.611, -7.733e-7, -3.855e-7, 3.878e-7
0.610, -7.724e-7, -3.845e-7, 3.878e-7
0.609, -7.690e-7, -3.821e-7, 3.869e-7
0.608, -7.711e-7, -3.852e-7, 3.860e-7
0.607, -7.739e-7, -3.845e-7, 3.893e-7
0.606, -7.681e-7, -3.830e-7, 3.851e-7
0.605, -7.690e-7, -3.836e-7, 3.854e-7
0.604, -7.681e-7, -3.830e-7, 3.851e-7
0.603, -7.663e-7, -3.836e-7, 3.826e-7
0.602, -7.699e-7, -3.849e-7, 3.851e-7
0.601, -7.678e-7, -3.830e-7, 3.848e-7
0.600, -7.675e-7, -3.836e-7, 3.838e-7
0.599, -7.672e-7, -3.827e-7, 3.845e-7
0.598, -7.666e-7, -3.833e-7, 3.832e-7
0.597, -7.684e-7, -3.842e-7, 3.841e-7
0.596, -7.656e-7, -3.818e-7, 3.838e-7
0.595, -7.656e-7, -3.830e-7, 3.826e-7
0.594, -7.644e-7, -3.833e-7, 3.811e-7
0.593, -7.653e-7, -3.830e-7, 3.823e-7
0.592, -7.647e-7, -3.833e-7, 3.814e-7
0.591, -7.644e-7, -3.836e-7, 3.808e-7
0.590, -7.653e-7, -3.845e-7, 3.808e-7
0.589, -7.620e-7, -3.818e-7, 3.802e-7
0.588, -7.632e-7, -3.845e-7, 3.787e-7
0.587, -7.644e-7, -3.830e-7, 3.814e-7
0.586, -7.620e-7, -3.836e-7, 3.783e-7
0.585, -7.626e-7, -3.839e-7, 3.787e-7
0.584, -7.653e-7, -3.833e-7, 3.820e-7
0.583, -7.611e-7, -3.827e-7, 3.783e-7
0.582, -7.614e-7, -3.827e-7, 3.787e-7
0.581, -7.614e-7, -3.830e-7, 3.783e-7
0.580, -7.617e-7, -3.845e-7, 3.771e-7
0.579, -7.611e-7, -3.824e-7, 3.787e-7
0.578, -7.592e-7, -3.818e-7, 3.774e-7
0.577, -7.608e-7, -3.849e-7, 3.759e-7
0.576, -7.632e-7, -3.849e-7, 3.783e-7
0.575, -7.595e-7, -3.815e-7, 3.780e-7
0.574, -7.611e-7, -3.842e-7, 3.768e-7
0.573, -7.611e-7, -3.842e-7, 3.768e-7
0.572, -7.574e-7, -3.809e-7, 3.765e-7
0.571, -7.592e-7, -3.849e-7, 3.744e-7
0.570, -7.605e-7, -3.842e-7, 3.762e-7
0.569, -7.562e-7, -3.833e-7, 3.729e-7
0.568, -7.577e-7, -3.845e-7, 3.732e-7
0.567, -7.571e-7, -3.812e-7, 3.759e-7
0.566, -7.568e-7, -3.827e-7, 3.741e-7
0.565, -7.586e-7, -3.845e-7, 3.741e-7
0.564, -7.562e-7, -3.806e-7, 3.756e-7
0.563, -7.528e-7, -3.824e-7, 3.704e-7
0.562, -7.540e-7, -3.818e-7, 3.722e-7
0.561, -7.537e-7, -3.797e-7, 3.741e-7
0.560, -7.528e-7, -3.815e-7, 3.713e-7
0.559, -7.550e-7, -3.833e-7, 3.716e-7
0.558, -7.540e-7, -3.809e-7, 3.732e-7
0.557, -7.513e-7, -3.809e-7, 3.704e-7
0.556, -7.547e-7, -3.833e-7, 3.713e-7
0.555, -7.531e-7, -3.812e-7, 3.719e-7
0.554, -7.516e-7, -3.824e-7, 3.692e-7
0.553, -7.540e-7, -3.827e-7, 3.713e-7
0.552, -7.507e-7, -3.809e-7, 3.698e-7
0.551, -7.504e-7, -3.821e-7, 3.683e-7
0.550, -7.519e-7, -3.821e-7, 3.698e-7
0.549, -7.510e-7, -3.803e-7, 3.707e-7
0.548, -7.501e-7, -3.815e-7, 3.686e-7
0.547, -7.492e-7, -3.812e-7, 3.680e-7
0.546, -7.486e-7, -3.803e-7, 3.683e-7
0.545, -7.489e-7, -3.809e-7, 3.680e-7
0.544, -7.492e-7, -3.809e-7, 3.683e-7
0.543, -7.473e-7, -3.803e-7, 3.671e-7
0.542, -7.486e-7, -3.818e-7, 3.668e-7
0.541, -7.476e-7, -3.797e-7, 3.680e-7
0.540, -7.464e-7, -3.815e-7, 3.649e-7
0.539, -7.479e-7, -3.806e-7, 3.674e-7
0.538, -7.455e-7, -3.797e-7, 3.658e-7
0.537, -7.452e-7, -3.797e-7, 3.655e-7
0.536, -7.455e-7, -3.794e-7, 3.661e-7
0.535, -7.443e-7, -3.794e-7, 3.649e-7
0.534, -7.443e-7, -3.797e-7, 3.646e-7
0.533, -7.446e-7, -3.797e-7, 3.649e-7
0.532, -7.437e-7, -3.791e-7, 3.646e-7
0.531, -7.425e-7, -3.809e-7, 3.616e-7
0.530, -7.431e-7, -3.784e-7, 3.646e-7
0.529, -7.415e-7, -3.788e-7, 3.628e-7
0.528, -7.425e-7, -3.800e-7, 3.625e-7
0.527, -7.455e-7, -3.800e-7, 3.655e-7
0.526, -7.428e-7, -3.788e-7, 3.640e-7
0.525, -7.437e-7, -3.797e-7, 3.640e-7
0.524, -7.437e-7, -3.797e-7, 3.640e-7
0.523, -7.437e-7, -3.797e-7, 3.640e-7
0.522, -7.409e-7, -3.800e-7, 3.610e-7
0.521, -7.428e-7, -3.784e-7, 3.643e-7
0.520, -7.425e-7, -3.812e-7, 3.613e-7
0.519, -7.431e-7, -3.806e-7, 3.625e-7
0.518, -7.415e-7, -3.788e-7, 3.628e-7
0.517, -7.388e-7, -3.788e-7, 3.600e-7
0.516, -7.415e-7, -3.797e-7, 3.619e-7
0.515, -7.425e-7, -3.784e-7, 3.640e-7
0.514, -7.415e-7, -3.806e-7, 3.610e-7
0.513, -7.443e-7, -3.815e-7, 3.628e-7
0.512, -7.409e-7, -3.791e-7, 3.619e-7
0.511, -7.409e-7, -3.812e-7, 3.597e-7
0.510, -7.431e-7, -3.803e-7, 3.628e-7
0.509, -7.412e-7, -3.794e-7, 3.619e-7
0.508, -7.425e-7, -3.800e-7, 3.625e-7
0.507, -7.418e-7, -3.797e-7, 3.622e-7
0.506, -7.400e-7, -3.788e-7, 3.613e-7
0.505, -7.412e-7, -3.815e-7, 3.597e-7
0.504, -7.406e-7, -3.800e-7, 3.606e-7
0.503, -7.376e-7, -3.778e-7, 3.597e-7
0.502, -7.415e-7, -3.824e-7, 3.591e-7
0.501, -7.425e-7, -3.815e-7, 3.610e-7
0.500, -7.394e-7, -3.791e-7, 3.603e-7
0.499, -7.412e-7, -3.815e-7, 3.597e-7
0.498, -7.425e-7, -3.815e-7, 3.610e-7
0.497, -7.403e-7, -3.806e-7, 3.597e-7
0.496, -7.400e-7, -3.818e-7, 3.582e-7
0.495, -7.400e-7, -3.806e-7, 3.594e-7
0.494, -7.379e-7, -3.791e-7, 3.588e-7
0.493, -7.397e-7, -3.812e-7, 3.585e-7
0.492, -7.412e-7, -3.812e-7, 3.600e-7
0.491, -7.400e-7, -3.806e-7, 3.594e-7
0.490, -7.406e-7, -3.815e-7, 3.591e-7
0.489, -7.418e-7, -3.827e-7, 3.591e-7
0.488, -7.412e-7, -3.824e-7, 3.588e-7
0.487, -7.415e-7, -3.821e-7, 3.594e-7
0.486, -7.397e-7, -3.809e-7, 3.588e-7
0.485, -7.418e-7, -3.830e-7, 3.588e-7
0.484, -7.431e-7, -3.845e-7, 3.585e-7
0.483, -7.415e-7, -3.830e-7, 3.585e-7
0.482, -7.421e-7, -3.833e-7, 3.588e-7
0.481, -7.425e-7, -3.833e-7, 3.591e-7
0.480, -7.428e-7, -3.842e-7, 3.585e-7
0.479, -7.418e-7, -3.845e-7, 3.573e-7
0.478, -7.415e-7, -3.827e-7, 3.588e-7
0.477, -7.418e-7, -3.833e-7, 3.585e-7
0.476, -7.418e-7, -3.842e-7, 3.576e-7
0.475, -7.418e-7, -3.824e-7, 3.594e-7
0.474, -7.412e-7, -3.852e-7, 3.561e-7
0.473, -7.425e-7, -3.836e-7, 3.588e-7
0.472, -7.425e-7, -3.824e-7, 3.600e-7
0.471, -7.409e-7, -3.839e-7, 3.570e-7
0.470, -7.434e-7, -3.845e-7, 3.588e-7
0.469, -7.406e-7, -3.815e-7, 3.591e-7
0.468, -7.409e-7, -3.845e-7, 3.564e-7
0.467, -7.461e-7, -3.852e-7, 3.610e-7
0.466, -7.449e-7, -3.849e-7, 3.600e-7
0.465, -7.418e-7, -3.852e-7, 3.567e-7
0.464, -7.418e-7, -3.852e-7, 3.567e-7
0.463, -7.418e-7, -3.842e-7, 3.576e-7
0.462, -7.449e-7, -3.870e-7, 3.579e-7
0.461, -7.431e-7, -3.845e-7, 3.585e-7
0.460, -7.403e-7, -3.839e-7, 3.564e-7
0.459, -7.428e-7, -3.858e-7, 3.570e-7
0.458, -7.437e-7, -3.858e-7, 3.579e-7
0.457, -7.400e-7, -3.836e-7, 3.564e-7
0.456, -7.452e-7, -3.879e-7, 3.573e-7
0.455, -7.412e-7, -3.833e-7, 3.579e-7
0.454, -7.412e-7, -3.858e-7, 3.555e-7
0.453, -7.437e-7, -3.864e-7, 3.573e-7
0.452, -7.425e-7, -3.839e-7, 3.585e-7
0.451, -7.400e-7, -3.849e-7, 3.552e-7
0.450, -7.434e-7, -3.861e-7, 3.573e-7
0.449, -7.409e-7, -3.839e-7, 3.570e-7
0.448, -7.409e-7, -3.855e-7, 3.555e-7
0.447, -7.431e-7, -3.873e-7, 3.558e-7
0.446, -7.443e-7, -3.864e-7, 3.579e-7
0.445, -7.406e-7, -3.861e-7, 3.545e-7
0.444, -7.421e-7, -3.873e-7, 3.548e-7
0.443, -7.418e-7, -3.861e-7, 3.558e-7
0.442, -7.394e-7, -3.849e-7, 3.545e-7
0.441, -7.443e-7, -3.870e-7, 3.573e-7
0.440, -7.437e-7, -3.858e-7, 3.579e-7
0.439, -7.415e-7, -3.864e-7, 3.552e-7
0.438, -7.397e-7, -3.867e-7, 3.530e-7
0.437, -7.421e-7, -3.861e-7, 3.561e-7
0.436, -7.437e-7, -3.879e-7, 3.558e-7
0.435, -7.437e-7, -3.882e-7, 3.555e-7
0.434, -7.400e-7, -3.858e-7, 3.542e-7
0.433, -7.412e-7, -3.867e-7, 3.545e-7
0.432, -7.403e-7, -3.870e-7, 3.533e-7
0.431, -7.431e-7, -3.882e-7, 3.548e-7
0.430, -7.418e-7, -3.873e-7, 3.545e-7
0.429, -7.400e-7, -3.861e-7, 3.539e-7
0.428, -7.418e-7, -3.882e-7, 3.536e-7
0.427, -7.425e-7, -3.876e-7, 3.548e-7
0.426, -7.415e-7, -3.876e-7, 3.539e-7
0.425, -7.391e-7, -3.873e-7, 3.518e-7
0.424, -7.409e-7, -3.876e-7, 3.533e-7
0.423, -7.403e-7, -3.858e-7, 3.545e-7
0.422, -7.418e-7, -3.879e-7, 3.539e-7
0.421, -7.418e-7, -3.876e-7, 3.542e-7
0.420, -7.431e-7, -3.891e-7, 3.539e-7
0.419, -7.431e-7, -3.891e-7, 3.539e-7
0.418, -7.418e-7, -3.876e-7, 3.542e-7
0.417, -7.412e-7, -3.876e-7, 3.536e-7
0.416, -7.458e-7, -3.919e-7, 3.539e-7
0.415, -7.434e-7, -3.882e-7, 3.552e-7
0.414, -7.400e-7, -3.864e-7, 3.536e-7
0.413, -7.431e-7, -3.900e-7, 3.530e-7
0.412, -7.425e-7, -3.888e-7, 3.536e-7
0.411, -7.421e-7, -3.894e-7, 3.527e-7
0.410, -7.400e-7, -3.885e-7, 3.515e-7
0.409, -7.437e-7, -3.885e-7, 3.552e-7
0.408, -7.412e-7, -3.891e-7, 3.521e-7
0.407, -7.434e-7, -3.903e-7, 3.530e-7
0.406, -7.437e-7, -3.885e-7, 3.552e-7
0.405, -7.425e-7, -3.894e-7, 3.530e-7
0.404, -7.418e-7, -3.885e-7, 3.533e-7
0.403, -7.428e-7, -3.894e-7, 3.533e-7
0.402, -7.418e-7, -3.907e-7, 3.512e-7
0.401, -7.449e-7, -3.907e-7, 3.542e-7
0.400, -7.425e-7, -3.897e-7, 3.527e-7
0.399, -7.446e-7, -3.919e-7, 3.527e-7
0.398, -7.473e-7, -3.916e-7, 3.558e-7
0.397, -7.425e-7, -3.888e-7, 3.536e-7
0.396, -7.431e-7, -3.922e-7, 3.509e-7
0.395, -7.464e-7, -3.925e-7, 3.539e-7
0.394, -7.449e-7, -3.919e-7, 3.530e-7
0.393, -7.446e-7, -3.934e-7, 3.512e-7
0.392, -7.458e-7, -3.919e-7, 3.539e-7
0.391, -7.458e-7, -3.922e-7, 3.536e-7
0.390, -7.464e-7, -3.934e-7, 3.530e-7
0.389, -7.486e-7, -3.934e-7, 3.552e-7
0.388, -7.440e-7, -3.903e-7, 3.536e-7
0.387, -7.464e-7, -3.949e-7, 3.515e-7
0.386, -7.479e-7, -3.937e-7, 3.542e-7
0.385, -7.458e-7, -3.922e-7, 3.536e-7
0.384, -7.470e-7, -3.952e-7, 3.518e-7
0.383, -7.476e-7, -3.931e-7, 3.545e-7
0.382, -7.489e-7, -3.946e-7, 3.542e-7
0.381, -7.476e-7, -3.943e-7, 3.533e-7
0.380, -7.492e-7, -3.946e-7, 3.545e-7
0.379, -7.476e-7, -3.949e-7, 3.527e-7
0.378, -7.492e-7, -3.946e-7, 3.545e-7
0.377, -7.492e-7, -3.961e-7, 3.530e-7
0.376, -7.501e-7, -3.955e-7, 3.545e-7
0.375, -7.522e-7, -3.977e-7, 3.545e-7
0.374, -7.513e-7, -3.971e-7, 3.542e-7
0.373, -7.531e-7, -3.986e-7, 3.545e-7
0.372, -7.531e-7, -3.977e-7, 3.555e-7
0.371, -7.519e-7, -3.974e-7, 3.545e-7
0.370, -7.544e-7, -3.992e-7, 3.552e-7
0.369, -7.528e-7, -3.971e-7, 3.558e-7
0.368, -7.534e-7, -3.983e-7, 3.552e-7
0.367, -7.531e-7, -3.974e-7, 3.558e-7
0.366, -7.556e-7, -3.983e-7, 3.573e-7
0.365, -7.528e-7, -3.992e-7, 3.536e-7
0.364, -7.553e-7, -3.998e-7, 3.555e-7
0.363, -7.574e-7, -3.992e-7, 3.582e-7
0.362, -7.540e-7, -3.992e-7, 3.548e-7
0.361, -7.562e-7, -4.010e-7, 3.552e-7
0.360, -7.559e-7, -4.004e-7, 3.555e-7
0.359, -7.544e-7, -4.004e-7, 3.539e-7
0.358, -7.580e-7, -4.016e-7, 3.564e-7
0.357, -7.574e-7, -4.007e-7, 3.567e-7
0.356, -7.577e-7, -4.032e-7, 3.545e-7
0.355, -7.583e-7, -4.010e-7, 3.573e-7
0.354, -7.583e-7, -4.016e-7, 3.567e-7
0.353, -7.574e-7, -4.022e-7, 3.552e-7
0.352, -7.620e-7, -4.038e-7, 3.582e-7
0.351, -7.589e-7, -4.026e-7, 3.564e-7
0.350, -7.617e-7, -4.044e-7, 3.573e-7
0.349, -7.620e-7, -4.041e-7, 3.579e-7
0.348, -7.598e-7, -4.035e-7, 3.564e-7
0.347, -7.626e-7, -4.050e-7, 3.576e-7
0.346, -7.598e-7, -4.029e-7, 3.570e-7
0.345, -7.608e-7, -4.035e-7, 3.573e-7
0.344, -7.620e-7, -4.056e-7, 3.564e-7
0.343, -7.595e-7, -4.023e-7, 3.573e-7
0.342, -7.592e-7, -4.041e-7, 3.552e-7
0.341, -7.620e-7, -4.062e-7, 3.558e-7
0.340, -7.617e-7, -4.038e-7, 3.579e-7
0.339, -7.608e-7, -4.059e-7, 3.548e-7
0.338, -7.663e-7, -4.080e-7, 3.582e-7
0.337, -7.623e-7, -4.065e-7, 3.558e-7
0.336, -7.620e-7, -4.062e-7, 3.558e-7
0.335, -7.644e-7, -4.074e-7, 3.570e-7
0.334, -7.620e-7, -4.038e-7, 3.582e-7
0.333, -7.611e-7, -4.062e-7, 3.548e-7
0.332, -7.644e-7, -4.074e-7, 3.570e-7
0.331, -7.653e-7, -4.065e-7, 3.588e-7
0.330, -7.620e-7, -4.065e-7, 3.555e-7
0.329, -7.672e-7, -4.102e-7, 3.570e-7
0.328, -7.644e-7, -4.065e-7, 3.579e-7
0.327, -7.632e-7, -4.068e-7, 3.564e-7
0.326, -7.656e-7, -4.084e-7, 3.573e-7
0.325, -7.669e-7, -4.084e-7, 3.585e-7
0.324, -7.675e-7, -4.105e-7, 3.570e-7
0.323, -7.656e-7, -4.087e-7, 3.570e-7
0.322, -7.675e-7, -4.096e-7, 3.579e-7
0.321, -7.684e-7, -4.102e-7, 3.582e-7
0.320, -7.684e-7, -4.102e-7, 3.582e-7
0.319, -7.699e-7, -4.105e-7, 3.594e-7
0.318, -7.684e-7, -4.105e-7, 3.579e-7
0.317, -7.681e-7, -4.102e-7, 3.579e-7
0.316, -7.678e-7, -4.105e-7, 3.573e-7
0.315, -7.696e-7, -4.111e-7, 3.585e-7
0.314, -7.656e-7, -4.090e-7, 3.567e-7
0.313, -7.659e-7, -4.102e-7, 3.558e-7
0.312, -7.687e-7, -4.105e-7, 3.582e-7
0.311, -7.666e-7, -4.096e-7, 3.570e-7
0.310, -7.672e-7, -4.123e-7, 3.548e-7
0.309, -7.687e-7, -4.120e-7, 3.567e-7
0.308, -7.693e-7, -4.108e-7, 3.585e-7
0.307, -7.699e-7, -4.129e-7, 3.570e-7
0.306, -7.721e-7, -4.132e-7, 3.588e-7
0.305, -7.696e-7, -4.117e-7, 3.579e-7
0.304, -7.721e-7, -4.148e-7, 3.573e-7
0.303, -7.717e-7, -4.126e-7, 3.591e-7
0.302, -7.684e-7, -4.114e-7, 3.570e-7
0.301, -7.705e-7, -4.132e-7, 3.573e-7
0.300, -7.736e-7, -4.132e-7, 3.603e-7
0.299, -7.705e-7, -4.138e-7, 3.567e-7
0.298, -7.742e-7, -4.166e-7, 3.576e-7
0.297, -7.724e-7, -4.132e-7, 3.591e-7
0.296, -7.733e-7, -4.148e-7, 3.585e-7
0.295, -7.757e-7, -4.178e-7, 3.579e-7
0.294, -7.742e-7, -4.145e-7, 3.597e-7
0.293, -7.745e-7, -4.163e-7, 3.582e-7
0.292, -7.739e-7, -4.160e-7, 3.579e-7
0.291, -7.745e-7, -4.160e-7, 3.585e-7
0.290, -7.730e-7, -4.163e-7, 3.567e-7
0.289, -7.760e-7, -4.166e-7, 3.594e-7
0.288, -7.766e-7, -4.172e-7, 3.594e-7
0.287, -7.763e-7, -4.178e-7, 3.585e-7
0.286, -7.797e-7, -4.184e-7, 3.613e-7
0.285, -7.760e-7, -4.163e-7, 3.597e-7
0.284, -7.775e-7, -4.193e-7, 3.582e-7
0.283, -7.803e-7, -4.190e-7, 3.613e-7
0.282, -7.791e-7, -4.187e-7, 3.603e-7
0.281, -7.794e-7, -4.212e-7, 3.582e-7
0.280, -7.818e-7, -4.190e-7, 3.628e-7
0.279, -7.800e-7, -4.193e-7, 3.606e-7
0.278, -7.791e-7, -4.199e-7, 3.591e-7
0.277, -7.849e-7, -4.215e-7, 3.634e-7
0.276, -7.800e-7, -4.196e-7, 3.603e-7
0.275, -7.824e-7, -4.221e-7, 3.603e-7
0.274, -7.849e-7, -4.224e-7, 3.625e-7
0.273, -7.830e-7, -4.212e-7, 3.619e-7
0.272, -7.858e-7, -4.245e-7, 3.613e-7
0.271, -7.852e-7, -4.215e-7, 3.637e-7
0.270, -7.830e-7, -4.230e-7, 3.600e-7
0.269, -7.858e-7, -4.245e-7, 3.613e-7
0.268, -7.870e-7, -4.227e-7, 3.643e-7
0.267, -7.885e-7, -4.257e-7, 3.628e-7
0.266, -7.873e-7, -4.251e-7, 3.622e-7
0.265, -7.876e-7, -4.245e-7, 3.631e-7
0.264, -7.873e-7, -4.257e-7, 3.616e-7
0.263, -7.913e-7, -4.267e-7, 3.646e-7
0.262, -7.870e-7, -4.254e-7, 3.616e-7
0.261, -7.916e-7, -4.282e-7, 3.634e-7
0.260, -7.922e-7, -4.267e-7, 3.655e-7
0.259, -7.916e-7, -4.267e-7, 3.649e-7
0.258, -7.931e-7, -4.291e-7, 3.640e-7
0.257, -7.934e-7, -4.282e-7, 3.652e-7
0.256, -7.928e-7, -4.288e-7, 3.640e-7
0.255, -7.934e-7, -4.294e-7, 3.640e-7
0.254, -7.955e-7, -4.303e-7, 3.652e-7
0.253, -7.968e-7, -4.309e-7, 3.658e-7
0.252, -7.986e-7, -4.315e-7, 3.671e-7
0.251, -7.971e-7, -4.312e-7, 3.658e-7
0.250, -7.949e-7, -4.309e-7, 3.640e-7
0.249, -7.989e-7, -4.325e-7, 3.664e-7
0.248, -7.980e-7, -4.315e-7, 3.664e-7
0.247, -8.001e-7, -4.337e-7, 3.664e-7
0.246, -7.983e-7, -4.319e-7, 3.664e-7
0.245, -7.992e-7, -4.331e-7, 3.661e-7
0.244, -8.020e-7, -4.349e-7, 3.671e-7
0.243, -8.010e-7, -4.340e-7, 3.671e-7
0.242, -8.029e-7, -4.337e-7, 3.692e-7
0.241, -8.059e-7, -4.370e-7, 3.689e-7
0.240, -8.035e-7, -4.358e-7, 3.677e-7
0.239, -8.038e-7, -4.355e-7, 3.683e-7
0.238, -8.044e-7, -4.364e-7, 3.680e-7
0.237, -8.065e-7, -4.373e-7, 3.692e-7
0.236, -8.047e-7, -4.364e-7, 3.683e-7
0.235, -8.071e-7, -4.392e-7, 3.680e-7
0.234, -8.071e-7, -4.370e-7, 3.701e-7
0.233, -8.068e-7, -4.376e-7, 3.692e-7
0.232, -8.093e-7, -4.401e-7, 3.692e-7
0.231, -8.078e-7, -4.395e-7, 3.683e-7
0.230, -8.081e-7, -4.395e-7, 3.686e-7
0.229, -8.087e-7, -4.407e-7, 3.680e-7
0.228, -8.096e-7, -4.401e-7, 3.695e-7
0.227, -8.074e-7, -4.398e-7, 3.677e-7
0.226, -8.129e-7, -4.428e-7, 3.701e-7
0.225, -8.108e-7, -4.395e-7, 3.713e-7
0.224, -8.117e-7, -4.416e-7, 3.701e-7
0.223, -8.139e-7, -4.431e-7, 3.707e-7
0.222, -8.142e-7, -4.407e-7, 3.735e-7
0.221, -8.136e-7, -4.441e-7, 3.695e-7
0.220, -8.166e-7, -4.444e-7, 3.722e-7
0.219, -8.148e-7, -4.425e-7, 3.722e-7
0.218, -8.148e-7, -4.434e-7, 3.713e-7
0.217, -8.169e-7, -4.459e-7, 3.710e-7
0.216, -8.175e-7, -4.447e-7, 3.729e-7
0.215, -8.166e-7, -4.453e-7, 3.713e-7
0.214, -8.175e-7, -4.453e-7, 3.722e-7
0.213, -8.178e-7, -4.450e-7, 3.729e-7
0.212, -8.175e-7, -4.465e-7, 3.710e-7
0.211, -8.203e-7, -4.474e-7, 3.729e-7
0.210, -8.200e-7, -4.471e-7, 3.729e-7
0.209, -8.193e-7, -4.465e-7, 3.729e-7
0.208, -8.175e-7, -4.453e-7, 3.722e-7
0.207, -8.224e-7, -4.502e-7, 3.722e-7
0.206, -8.221e-7, -4.499e-7, 3.722e-7
0.205, -8.227e-7, -4.486e-7, 3.741e-7
0.204, -8.239e-7, -4.505e-7, 3.735e-7
0.203, -8.233e-7, -4.502e-7, 3.732e-7
0.202, -8.224e-7, -4.489e-7, 3.735e-7
0.201, -8.242e-7, -4.508e-7, 3.735e-7
0.200, -8.248e-7, -4.508e-7, 3.741e-7
0.199, -8.248e-7, -4.508e-7, 3.741e-7
0.198, -8.270e-7, -4.532e-7, 3.738e-7
0.197, -8.270e-7, -4.520e-7, 3.750e-7
0.196, -8.261e-7, -4.520e-7, 3.741e-7
0.195, -8.276e-7, -4.529e-7, 3.747e-7
0.194, -8.297e-7, -4.541e-7, 3.756e-7
0.193, -8.291e-7, -4.529e-7, 3.762e-7
0.192, -8.309e-7, -4.560e-7, 3.750e-7
0.191, -8.328e-7, -4.560e-7, 3.768e-7
0.190, -8.334e-7, -4.569e-7, 3.765e-7
0.189, -8.331e-7, -4.575e-7, 3.756e-7
0.188, -8.355e-7, -4.584e-7, 3.771e-7
0.187, -8.334e-7, -4.569e-7, 3.765e-7
0.186, -8.355e-7, -4.590e-7, 3.765e-7
0.185, -8.380e-7, -4.593e-7, 3.786e-7
0.184, -8.349e-7, -4.578e-7, 3.771e-7
0.183, -8.380e-7, -4.602e-7, 3.777e-7
0.182, -8.383e-7, -4.593e-7, 3.790e-7
0.181, -8.361e-7, -4.602e-7, 3.759e-7
0.180, -8.401e-7, -4.621e-7, 3.780e-7
0.179, -8.383e-7, -4.599e-7, 3.783e-7
0.178, -8.416e-7, -4.639e-7, 3.777e-7
0.177, -8.438e-7, -4.633e-7, 3.805e-7
0.176, -8.428e-7, -4.627e-7, 3.802e-7
0.175, -8.435e-7, -4.642e-7, 3.793e-7
0.174, -8.462e-7, -4.654e-7, 3.808e-7
0.173, -8.453e-7, -4.648e-7, 3.805e-7
0.172, -8.468e-7, -4.673e-7, 3.796e-7
0.171, -8.511e-7, -4.685e-7, 3.826e-7
0.170, -8.456e-7, -4.657e-7, 3.799e-7
0.169, -8.505e-7, -4.694e-7, 3.811e-7
0.168, -8.520e-7, -4.709e-7, 3.811e-7
0.167, -8.499e-7, -4.682e-7, 3.817e-7
0.166, -8.514e-7, -4.709e-7, 3.805e-7
0.165, -8.554e-7, -4.709e-7, 3.844e-7
0.164, -8.547e-7, -4.706e-7, 3.841e-7
0.163, -8.563e-7, -4.737e-7, 3.826e-7
0.162, -8.551e-7, -4.724e-7, 3.826e-7
0.161, -8.560e-7, -4.727e-7, 3.832e-7
0.160, -8.584e-7, -4.749e-7, 3.835e-7
0.159, -8.605e-7, -4.746e-7, 3.860e-7
0.158, -8.618e-7, -4.755e-7, 3.863e-7
0.157, -8.627e-7, -4.767e-7, 3.860e-7
0.156, -8.624e-7, -4.767e-7, 3.857e-7
0.155, -8.621e-7, -4.776e-7, 3.844e-7
0.154, -8.663e-7, -4.788e-7, 3.875e-7
0.153, -8.673e-7, -4.807e-7, 3.866e-7
0.152, -8.682e-7, -4.816e-7, 3.866e-7
0.151, -8.709e-7, -4.816e-7, 3.893e-7
0.150, -8.691e-7, -4.810e-7, 3.881e-7
0.149, -8.734e-7, -4.846e-7, 3.887e-7
0.148, -8.749e-7, -4.843e-7, 3.905e-7
0.147, -8.755e-7, -4.856e-7, 3.899e-7
0.146, -8.767e-7, -4.862e-7, 3.905e-7
0.145, -8.789e-7, -4.865e-7, 3.924e-7
0.144, -8.773e-7, -4.862e-7, 3.912e-7
0.143, -8.810e-7, -4.895e-7, 3.915e-7
0.142, -8.807e-7, -4.892e-7, 3.915e-7
0.141, -8.834e-7, -4.907e-7, 3.927e-7
0.140, -8.819e-7, -4.898e-7, 3.921e-7
0.139, -8.850e-7, -4.907e-7, 3.942e-7
0.138, -8.843e-7, -4.926e-7, 3.918e-7
0.137, -8.895e-7, -4.947e-7, 3.948e-7
0.136, -8.883e-7, -4.926e-7, 3.957e-7
0.135, -8.886e-7, -4.947e-7, 3.939e-7
0.134, -8.908e-7, -4.959e-7, 3.948e-7
0.133, -8.929e-7, -4.956e-7, 3.973e-7
0.132, -8.941e-7, -4.981e-7, 3.960e-7
0.131, -8.953e-7, -4.996e-7, 3.957e-7
0.130, -8.947e-7, -4.981e-7, 3.967e-7
0.129, -8.984e-7, -5.017e-7, 3.967e-7
0.128, -9.002e-7, -5.014e-7, 3.988e-7
0.127, -8.999e-7, -5.020e-7, 3.979e-7
0.126, -9.033e-7, -5.036e-7, 3.997e-7
0.125, -9.039e-7, -5.030e-7, 4.009e-7
0.124, -9.045e-7, -5.045e-7, 4.000e-7
0.123, -9.072e-7, -5.072e-7, 4.000e-7
0.122, -9.072e-7, -5.066e-7, 4.006e-7
0.121, -9.072e-7, -5.072e-7, 4.000e-7
0.120, -9.136e-7, -5.130e-7, 4.006e-7
0.119, -9.130e-7, -5.100e-7, 4.031e-7
0.118, -9.124e-7, -5.106e-7, 4.018e-7
0.117, -9.158e-7, -5.127e-7, 4.031e-7
0.116, -9.185e-7, -5.127e-7, 4.058e-7
0.115, -9.173e-7, -5.139e-7, 4.034e-7
0.114, -9.197e-7, -5.158e-7, 4.040e-7
0.113, -9.210e-7, -5.152e-7, 4.058e-7
0.112, -9.216e-7, -5.170e-7, 4.046e-7
0.111, -9.265e-7, -5.188e-7, 4.076e-7
0.110, -9.255e-7, -5.176e-7, 4.079e-7
0.109, -9.258e-7, -5.191e-7, 4.067e-7
0.108, -9.307e-7, -5.231e-7, 4.076e-7
0.107, -9.289e-7, -5.207e-7, 4.082e-7
0.106, -9.298e-7, -5.228e-7, 4.070e-7
0.105, -9.335e-7, -5.249e-7, 4.086e-7
0.104, -9.344e-7, -5.240e-7, 4.104e-7
0.103, -9.341e-7, -5.252e-7, 4.089e-7
0.102, -9.393e-7, -5.274e-7, 4.119e-7
0.101, -9.399e-7, -5.274e-7, 4.125e-7
0.100, -9.402e-7, -5.289e-7, 4.113e-7
0.099, -9.445e-7, -5.307e-7, 4.137e-7
0.098, -9.426e-7, -5.304e-7, 4.122e-7
0.097, -9.463e-7, -5.338e-7, 4.125e-7
0.096, -9.484e-7, -5.341e-7, 4.144e-7
0.095, -9.478e-7, -5.344e-7, 4.134e-7
0.094, -9.509e-7, -5.365e-7, 4.144e-7
0.093, -9.521e-7, -5.368e-7, 4.153e-7
0.092, -9.515e-7, -5.371e-7, 4.144e-7
0.091, -9.558e-7, -5.399e-7, 4.159e-7
0.090, -9.558e-7, -5.396e-7, 4.162e-7
0.089, -9.579e-7, -5.402e-7, 4.177e-7
0.088, -9.603e-7, -5.420e-7, 4.183e-7
0.087, -9.622e-7, -5.426e-7, 4.195e-7
0.086, -9.640e-7, -5.451e-7, 4.189e-7
0.085, -9.670e-7, -5.463e-7, 4.208e-7
0.084, -9.677e-7, -5.466e-7, 4.211e-7
0.083, -9.710e-7, -5.481e-7, 4.229e-7
0.082, -9.716e-7, -5.493e-7, 4.223e-7
0.081, -9.731e-7, -5.509e-7, 4.223e-7
0.080, -9.750e-7, -5.521e-7, 4.229e-7
0.079, -9.768e-7, -5.521e-7, 4.247e-7
0.078, -9.783e-7, -5.542e-7, 4.241e-7
0.077, -9.832e-7, -5.573e-7, 4.259e-7
0.076, -9.841e-7, -5.564e-7, 4.278e-7
0.075, -9.838e-7, -5.576e-7, 4.263e-7
0.074, -9.890e-7, -5.615e-7, 4.275e-7
0.073, -9.866e-7, -5.582e-7, 4.284e-7
0.072, -9.915e-7, -5.625e-7, 4.290e-7
0.071, -9.951e-7, -5.640e-7, 4.311e-7
0.070, -9.936e-7, -5.625e-7, 4.311e-7
0.069, -9.985e-7, -5.673e-7, 4.311e-7
0.068, -1.001e-6, -5.683e-7, 4.327e-7
0.067, -1.003e-6, -5.680e-7, 4.354e-7
0.066, -1.003e-6, -5.701e-7, 4.330e-7
0.065, -1.008e-6, -5.710e-7, 4.366e-7
0.064, -1.006e-6, -5.707e-7, 4.357e-7
0.063, -1.010e-6, -5.756e-7, 4.348e-7
0.062, -1.014e-6, -5.759e-7, 4.385e-7
0.061, -1.012e-6, -5.747e-7, 4.375e-7
0.060, -1.018e-6, -5.795e-7, 4.388e-7
0.059, -1.021e-6, -5.802e-7, 4.409e-7
0.058, -1.023e-6, -5.805e-7, 4.421e-7
0.057, -1.023e-6, -5.826e-7, 4.403e-7
0.056, -1.028e-6, -5.835e-7, 4.449e-7
0.055, -1.027e-6, -5.832e-7, 4.433e-7
0.054, -1.031e-6, -5.872e-7, 4.440e-7
0.053, -1.034e-6, -5.887e-7, 4.455e-7
0.052, -1.034e-6, -5.875e-7, 4.464e-7
0.051, -1.039e-6, -5.921e-7, 4.467e-7
0.050, -1.041e-6, -5.924e-7, 4.485e-7
0.049, -1.041e-6, -5.915e-7, 4.491e-7
0.048, -1.046e-6, -5.960e-7, 4.504e-7
0.047, -1.048e-6, -5.957e-7, 4.519e-7
0.046, -1.050e-6, -5.976e-7, 4.525e-7
0.045, -1.051e-6, -5.985e-7, 4.525e-7
0.044, -1.055e-6, -6.003e-7, 4.549e-7
0.043, -1.056e-6, -6.015e-7, 4.543e-7
0.042, -1.061e-6, -6.043e-7, 4.568e-7
0.041, -1.064e-6, -6.055e-7, 4.589e-7
0.040, -1.064e-6, -6.067e-7, 4.577e-7
0.039, -1.068e-6, -6.082e-7, 4.595e-7
0.038, -1.070e-6, -6.085e-7, 4.613e-7
0.037, -1.073e-6, -6.113e-7, 4.613e-7
0.036, -1.076e-6, -6.122e-7, 4.638e-7
0.035, -1.076e-6, -6.134e-7, 4.629e-7
0.034, -1.080e-6, -6.153e-7, 4.644e-7
0.033, -1.084e-6, -6.159e-7, 4.678e-7
0.032, -1.085e-6, -6.171e-7, 4.678e-7
0.031, -1.088e-6, -6.204e-7, 4.681e-7
0.030, -1.090e-6, -6.207e-7, 4.693e-7
0.029, -1.093e-6, -6.217e-7, 4.711e-7
0.028, -1.095e-6, -6.238e-7, 4.708e-7
0.027, -1.096e-6, -6.226e-7, 4.732e-7
0.026, -1.098e-6, -6.256e-7, 4.723e-7
0.025, -1.101e-6, -6.265e-7, 4.748e-7
0.024, -1.105e-6, -6.290e-7, 4.763e-7
0.023, -1.107e-6, -6.305e-7, 4.769e-7
0.022, -1.110e-6, -6.317e-7, 4.787e-7
0.021, -1.110e-6, -6.302e-7, 4.803e-7
0.020, -1.114e-6, -6.345e-7, 4.797e-7
0.019, -1.120e-6, -6.363e-7, 4.836e-7
0.018, -1.119e-6, -6.360e-7, 4.833e-7
0.017, -1.120e-6, -6.363e-7, 4.836e-7
0.016, -1.125e-6, -6.378e-7, 4.870e-7
0.015, -1.127e-6, -6.406e-7, 4.861e-7
0.014, -1.128e-6, -6.412e-7, 4.867e-7
0.013, -1.133e-6, -6.427e-7, 4.900e-7
0.012, -1.131e-6, -6.421e-7, 4.885e-7
0.011, -1.134e-6, -6.445e-7, 4.894e-7
0.010, -1.140e-6, -6.467e-7, 4.937e-7
0.009, -1.138e-6, -6.464e-7, 4.919e-7
0.008, -1.141e-6, -6.482e-7, 4.928e-7
0.007, -1.144e-6, -6.476e-7, 4.961e-7
0.006, -1.145e-6, -6.494e-7, 4.955e-7
0.005, -1.148e-6, -6.519e-7, 4.964e-7
0.004, -1.150e-6, -6.510e-7, 4.992e-7
0.003, -1.152e-6, -6.534e-7, 4.983e-7
0.002, -1.155e-6, -6.561e-7, 4.992e-7
0.001, -1.158e-6, -6.540e-7, 5.038e-7
0.000, -1.156e-6, -6.549e-7, 5.013e-7
-0.001, -1.162e-6, -6.580e-7, 5.041e-7
-0.002, -1.162e-6, -6.564e-7, 5.056e-7
-0.003, -1.165e-6, -6.589e-7, 5.059e-7
-0.004, -1.172e-6, -6.629e-7, 5.089e-7
-0.005, -1.169e-6, -6.601e-7, 5.093e-7
-0.006, -1.172e-6, -6.616e-7, 5.105e-7
-0.007, -1.174e-6, -6.622e-7, 5.114e-7
-0.008, -1.175e-6, -6.632e-7, 5.120e-7
-0.009, -1.176e-6, -6.644e-7, 5.120e-7
-0.010, -1.180e-6, -6.659e-7, 5.141e-7
-0.011, -1.183e-6, -6.668e-7, 5.166e-7
-0.012, -1.183e-6, -6.674e-7, 5.157e-7
-0.013, -1.186e-6, -6.680e-7, 5.181e-7
-0.014, -1.189e-6, -6.693e-7, 5.199e-7
-0.015, -1.189e-6, -6.690e-7, 5.202e-7
-0.016, -1.190e-6, -6.699e-7, 5.205e-7
-0.017, -1.193e-6, -6.708e-7, 5.224e-7
-0.018, -1.195e-6, -6.717e-7, 5.236e-7
-0.019, -1.196e-6, -6.714e-7, 5.245e-7
-0.020, -1.198e-6, -6.729e-7, 5.254e-7
-0.021, -1.202e-6, -6.751e-7, 5.273e-7
-0.022, -1.202e-6, -6.748e-7, 5.273e-7
-0.023, -1.203e-6, -6.763e-7, 5.270e-7
-0.024, -1.205e-6, -6.763e-7, 5.291e-7
-0.025, -1.207e-6, -6.766e-7, 5.306e-7
-0.026, -1.210e-6, -6.793e-7, 5.309e-7
-0.027, -1.211e-6, -6.781e-7, 5.324e-7
-0.028, -1.211e-6, -6.778e-7, 5.337e-7
-0.029, -1.212e-6, -6.784e-7, 5.340e-7
-0.030, -1.215e-6, -6.793e-7, 5.358e-7
-0.031, -1.215e-6, -6.796e-7, 5.352e-7
-0.032, -1.218e-6, -6.824e-7, 5.361e-7
-0.033, -1.222e-6, -6.824e-7, 5.398e-7
-0.034, -1.222e-6, -6.815e-7, 5.401e-7
-0.035, -1.223e-6, -6.830e-7, 5.404e-7
-0.036, -1.226e-6, -6.830e-7, 5.428e-7
-0.037, -1.224e-6, -6.821e-7, 5.416e-7
-0.038, -1.229e-6, -6.839e-7, 5.450e-7
-0.039, -1.230e-6, -6.845e-7, 5.453e-7
-0.040, -1.229e-6, -6.836e-7, 5.450e-7
-0.041, -1.233e-6, -6.861e-7, 5.474e-7
-0.042, -1.234e-6, -6.836e-7, 5.504e-7
-0.043, -1.234e-6, -6.842e-7, 5.501e-7
-0.044, -1.236e-6, -6.867e-7, 5.492e-7
-0.045, -1.237e-6, -6.851e-7, 5.517e-7
-0.046, -1.239e-6, -6.882e-7, 5.504e-7
-0.047, -1.241e-6, -6.867e-7, 5.547e-7
-0.048, -1.240e-6, -6.861e-7, 5.541e-7
-0.049, -1.243e-6, -6.882e-7, 5.550e-7
-0.050, -1.245e-6, -6.876e-7, 5.572e-7
-0.051, -1.245e-6, -6.870e-7, 5.581e-7
-0.052, -1.245e-6, -6.882e-7, 5.572e-7
-0.053, -1.251e-6, -6.894e-7, 5.611e-7
-0.054, -1.249e-6, -6.879e-7, 5.614e-7
-0.055, -1.252e-6, -6.909e-7, 5.611e-7
-0.056, -1.253e-6, -6.885e-7, 5.645e-7
-0.057, -1.251e-6, -6.873e-7, 5.636e-7
-0.058, -1.252e-6, -6.894e-7, 5.627e-7
-0.059, -1.256e-6, -6.900e-7, 5.660e-7
-0.060, -1.255e-6, -6.876e-7, 5.678e-7
-0.061, -1.257e-6, -6.906e-7, 5.660e-7
-0.062, -1.261e-6, -6.906e-7, 5.700e-7
-0.063, -1.256e-6, -6.876e-7, 5.685e-7
-0.064, -1.260e-6, -6.903e-7, 5.697e-7
-0.065, -1.260e-6, -6.891e-7, 5.712e-7
-0.066, -1.262e-6, -6.906e-7, 5.715e-7
-0.067, -1.264e-6, -6.912e-7, 5.730e-7
-0.068, -1.262e-6, -6.891e-7, 5.733e-7
-0.069, -1.263e-6, -6.888e-7, 5.739e-7
-0.070, -1.265e-6, -6.891e-7, 5.758e-7
-0.071, -1.266e-6, -6.897e-7, 5.764e-7
-0.072, -1.267e-6, -6.894e-7, 5.776e-7
-0.073, -1.269e-6, -6.903e-7, 5.788e-7
-0.074, -1.267e-6, -6.891e-7, 5.782e-7
-0.075, -1.269e-6, -6.906e-7, 5.788e-7
-0.076, -1.268e-6, -6.891e-7, 5.788e-7
-0.077, -1.268e-6, -6.888e-7, 5.791e-7
-0.078, -1.269e-6, -6.879e-7, 5.813e-7
-0.079, -1.271e-6, -6.876e-7, 5.834e-7
-0.080, -1.271e-6, -6.885e-7, 5.825e-7
-0.081, -1.271e-6, -6.885e-7, 5.828e-7
-0.082, -1.270e-6, -6.857e-7, 5.843e-7
-0.083, -1.270e-6, -6.867e-7, 5.834e-7
-0.084, -1.275e-6, -6.888e-7, 5.862e-7
-0.085, -1.273e-6, -6.861e-7, 5.871e-7
-0.086, -1.273e-6, -6.864e-7, 5.862e-7
-0.087, -1.274e-6, -6.861e-7, 5.883e-7
-0.088, -1.273e-6, -6.851e-7, 5.877e-7
-0.089, -1.273e-6, -6.848e-7, 5.883e-7
-0.090, -1.276e-6, -6.873e-7, 5.889e-7
-0.091, -1.274e-6, -6.833e-7, 5.907e-7
-0.092, -1.276e-6, -6.870e-7, 5.895e-7
-0.093, -1.274e-6, -6.833e-7, 5.907e-7
-0.094, -1.273e-6, -6.830e-7, 5.904e-7
-0.095, -1.274e-6, -6.830e-7, 5.913e-7
-0.096, -1.274e-6, -6.824e-7, 5.920e-7
-0.097, -1.274e-6, -6.812e-7, 5.926e-7
-0.098, -1.276e-6, -6.839e-7, 5.916e-7
-0.099, -1.274e-6, -6.790e-7, 5.947e-7
-0.100, -1.273e-6, -6.790e-7, 5.935e-7
-0.101, -1.275e-6, -6.824e-7, 5.929e-7
-0.102, -1.273e-6, -6.775e-7, 5.959e-7
-0.103, -1.271e-6, -6.769e-7, 5.944e-7
-0.104, -1.270e-6, -6.769e-7, 5.929e-7
-0.105, -1.271e-6, -6.751e-7, 5.962e-7
-0.106, -1.269e-6, -6.760e-7, 5.932e-7
-0.107, -1.270e-6, -6.745e-7, 5.953e-7
-0.108, -1.268e-6, -6.723e-7, 5.959e-7
-0.109, -1.265e-6, -6.720e-7, 5.932e-7
-0.110, -1.271e-6, -6.741e-7, 5.965e-7
-0.111, -1.268e-6, -6.714e-7, 5.968e-7
-0.112, -1.266e-6, -6.708e-7, 5.953e-7
-0.113, -1.269e-6, -6.720e-7, 5.968e-7
-0.114, -1.267e-6, -6.690e-7, 5.981e-7
-0.115, -1.266e-6, -6.714e-7, 5.950e-7
-0.116, -1.268e-6, -6.708e-7, 5.974e-7
-0.117, -1.265e-6, -6.662e-7, 5.993e-7
-0.118, -1.262e-6, -6.665e-7, 5.956e-7
-0.119, -1.263e-6, -6.659e-7, 5.971e-7
-0.120, -1.262e-6, -6.635e-7, 5.990e-7
-0.121, -1.260e-6, -6.650e-7, 5.953e-7
-0.122, -1.262e-6, -6.635e-7, 5.987e-7
-0.123, -1.261e-6, -6.632e-7, 5.974e-7
-0.124, -1.259e-6, -6.616e-7, 5.977e-7
-0.125, -1.259e-6, -6.616e-7, 5.974e-7
-0.126, -1.256e-6, -6.592e-7, 5.968e-7
-0.127, -1.257e-6, -6.592e-7, 5.974e-7
-0.128, -1.256e-6, -6.577e-7, 5.984e-7
-0.129, -1.254e-6, -6.574e-7, 5.965e-7
-0.130, -1.253e-6, -6.558e-7, 5.971e-7
-0.131, -1.252e-6, -6.549e-7, 5.974e-7
-0.132, -1.251e-6, -6.540e-7, 5.968e-7
-0.133, -1.251e-6, -6.540e-7, 5.965e-7
-0.134, -1.249e-6, -6.522e-7, 5.968e-7
-0.135, -1.246e-6, -6.507e-7, 5.956e-7
-0.136, -1.248e-6, -6.519e-7, 5.965e-7
-0.137, -1.245e-6, -6.488e-7, 5.965e-7
-0.138, -1.247e-6, -6.507e-7, 5.962e-7
-0.139, -1.246e-6, -6.491e-7, 5.968e-7
-0.140, -1.241e-6, -6.467e-7, 5.941e-7
-0.141, -1.242e-6, -6.470e-7, 5.947e-7
-0.142, -1.242e-6, -6.458e-7, 5.965e-7
-0.143, -1.238e-6, -6.442e-7, 5.938e-7
-0.144, -1.236e-6, -6.433e-7, 5.926e-7
-0.145, -1.237e-6, -6.412e-7, 5.953e-7
-0.146, -1.237e-6, -6.415e-7, 5.953e-7
-0.147, -1.236e-6, -6.424e-7, 5.935e-7
-0.148, -1.235e-6, -6.406e-7, 5.941e-7
-0.149, -1.234e-6, -6.397e-7, 5.941e-7
-0.150, -1.231e-6, -6.391e-7, 5.923e-7
-0.151, -1.231e-6, -6.384e-7, 5.926e-7
-0.152, -1.228e-6, -6.372e-7, 5.904e-7
-0.153, -1.227e-6, -6.360e-7, 5.913e-7
-0.154, -1.225e-6, -6.330e-7, 5.916e-7
-0.155, -1.224e-6, -6.348e-7, 5.892e-7
-0.156, -1.227e-6, -6.366e-7, 5.907e-7
-0.157, -1.223e-6, -6.317e-7, 5.913e-7
-0.158, -1.222e-6, -6.323e-7, 5.892e-7
-0.159, -1.223e-6, -6.336e-7, 5.898e-7
-0.160, -1.219e-6, -6.293e-7, 5.895e-7
-0.161, -1.219e-6, -6.302e-7, 5.889e-7
-0.162, -1.220e-6, -6.293e-7, 5.910e-7
-0.163, -1.216e-6, -6.275e-7, 5.889e-7
-0.164, -1.217e-6, -6.317e-7, 5.855e-7
-0.165, -1.218e-6, -6.275e-7, 5.904e-7
-0.166, -1.213e-6, -6.250e-7, 5.877e-7
-0.167, -1.212e-6, -6.262e-7, 5.855e-7
-0.168, -1.216e-6, -6.275e-7, 5.883e-7
-0.169, -1.209e-6, -6.220e-7, 5.868e-7
-0.170, -1.209e-6, -6.244e-7, 5.846e-7
-0.171, -1.210e-6, -6.220e-7, 5.883e-7
-0.172, -1.208e-6, -6.214e-7, 5.862e-7
-0.173, -1.205e-6, -6.207e-7, 5.846e-7
-0.174, -1.203e-6, -6.183e-7, 5.849e-7
-0.175, -1.202e-6, -6.186e-7, 5.837e-7
-0.176, -1.201e-6, -6.189e-7, 5.822e-7
-0.177, -1.200e-6, -6.174e-7, 5.831e-7
-0.178, -1.197e-6, -6.156e-7, 5.810e-7
-0.179, -1.198e-6, -6.159e-7, 5.819e-7
-0.180, -1.197e-6, -6.165e-7, 5.804e-7
-0.181, -1.194e-6, -6.128e-7, 5.810e-7
-0.182, -1.197e-6, -6.162e-7, 5.804e-7
-0.183, -1.193e-6, -6.116e-7, 5.816e-7
-0.184, -1.192e-6, -6.134e-7, 5.788e-7
-0.185, -1.191e-6, -6.128e-7, 5.785e-7
-0.186, -1.192e-6, -6.125e-7, 5.791e-7
-0.187, -1.189e-6, -6.116e-7, 5.770e-7
-0.188, -1.189e-6, -6.110e-7, 5.782e-7
-0.189, -1.188e-6, -6.107e-7, 5.770e-7
-0.190, -1.189e-6, -6.125e-7, 5.767e-7
-0.191, -1.186e-6, -6.082e-7, 5.782e-7
-0.192, -1.185e-6, -6.092e-7, 5.758e-7
-0.193, -1.183e-6, -6.073e-7, 5.758e-7
-0.194, -1.184e-6, -6.082e-7, 5.761e-7
-0.195, -1.181e-6, -6.073e-7, 5.736e-7
-0.196, -1.181e-6, -6.070e-7, 5.739e-7
-0.197, -1.181e-6, -6.067e-7, 5.739e-7
-0.198, -1.176e-6, -6.046e-7, 5.718e-7
-0.199, -1.176e-6, -6.046e-7, 5.712e-7
-0.200, -1.174e-6, -6.024e-7, 5.715e-7
-0.201, -1.177e-6, -6.067e-7, 5.703e-7
-0.202, -1.178e-6, -6.052e-7, 5.724e-7
-0.203, -1.171e-6, -6.015e-7, 5.694e-7
-0.204, -1.173e-6, -6.034e-7, 5.694e-7
-0.205, -1.170e-6, -6.009e-7, 5.688e-7
-0.206, -1.169e-6, -6.000e-7, 5.688e-7
-0.207, -1.168e-6, -6.018e-7, 5.663e-7
-0.208, -1.167e-6, -6.009e-7, 5.657e-7
-0.209, -1.168e-6, -6.003e-7, 5.678e-7
-0.210, -1.166e-6, -6.003e-7, 5.660e-7
-0.211, -1.167e-6, -6.006e-7, 5.666e-7
-0.212, -1.161e-6, -5.973e-7, 5.642e-7
-0.213, -1.161e-6, -5.982e-7, 5.623e-7
-0.214, -1.161e-6, -5.976e-7, 5.639e-7
-0.215, -1.159e-6, -5.966e-7, 5.623e-7
-0.216, -1.160e-6, -5.988e-7, 5.611e-7
-0.217, -1.158e-6, -5.954e-7, 5.623e-7
-0.218, -1.156e-6, -5.963e-7, 5.593e-7
-0.219, -1.157e-6, -5.979e-7, 5.596e-7
-0.220, -1.153e-6, -5.927e-7, 5.602e-7
-0.221, -1.151e-6, -5.930e-7, 5.578e-7
-0.222, -1.153e-6, -5.951e-7, 5.578e-7
-0.223, -1.151e-6, -5.927e-7, 5.581e-7
-0.224, -1.149e-6, -5.930e-7, 5.562e-7
-0.225, -1.150e-6, -5.942e-7, 5.559e-7
-0.226, -1.146e-6, -5.918e-7, 5.544e-7
-0.227, -1.145e-6, -5.921e-7, 5.532e-7
-0.228, -1.145e-6, -5.918e-7, 5.529e-7
-0.229, -1.142e-6, -5.893e-7, 5.529e-7
-0.230, -1.143e-6, -5.902e-7, 5.523e-7
-0.231, -1.142e-6, -5.908e-7, 5.514e-7
-0.232, -1.142e-6, -5.915e-7, 5.508e-7
-0.233, -1.140e-6, -5.915e-7, 5.486e-7
-0.234, -1.140e-6, -5.899e-7, 5.504e-7
-0.235, -1.136e-6, -5.872e-7, 5.486e-7
-0.236, -1.135e-6, -5.875e-7, 5.480e-7
-0.237, -1.137e-6, -5.893e-7, 5.477e-7
-0.238, -1.134e-6, -5.863e-7, 5.480e-7
-0.239, -1.135e-6, -5.875e-7, 5.471e-7
-0.240, -1.132e-6, -5.854e-7, 5.465e-7
-0.241, -1.132e-6, -5.863e-7, 5.453e-7
-0.242, -1.131e-6, -5.857e-7, 5.453e-7
-0.243, -1.130e-6, -5.860e-7, 5.437e-7
-0.244, -1.128e-6, -5.847e-7, 5.437e-7
-0.245, -1.130e-6, -5.872e-7, 5.425e-7
-0.246, -1.127e-6, -5.863e-7, 5.407e-7
-0.247, -1.125e-6, -5.847e-7, 5.404e-7
-0.248, -1.126e-6, -5.854e-7, 5.407e-7
-0.249, -1.124e-6, -5.841e-7, 5.398e-7
-0.250, -1.125e-6, -5.860e-7, 5.385e-7
-0.251, -1.122e-6, -5.829e-7, 5.392e-7
-0.252, -1.122e-6, -5.835e-7, 5.389e-7
-0.253, -1.118e-6, -5.820e-7, 5.364e-7
-0.254, -1.122e-6, -5.832e-7, 5.385e-7
-0.255, -1.118e-6, -5.814e-7, 5.367e-7
-0.256, -1.117e-6, -5.832e-7, 5.343e-7
-0.257, -1.119e-6, -5.817e-7, 5.373e-7
-0.258, -1.117e-6, -5.826e-7, 5.349e-7
-0.259, -1.118e-6, -5.835e-7, 5.346e-7
-0.260, -1.115e-6, -5.799e-7, 5.355e-7
-0.261, -1.114e-6, -5.823e-7, 5.318e-7
-0.262, -1.115e-6, -5.832e-7, 5.321e-7
-0.263, -1.111e-6, -5.786e-7, 5.327e-7
-0.264, -1.110e-6, -5.805e-7, 5.300e-7
-0.265, -1.110e-6, -5.799e-7, 5.306e-7
-0.266, -1.111e-6, -5.792e-7, 5.321e-7
-0.267, -1.109e-6, -5.805e-7, 5.282e-7
-0.268, -1.109e-6, -5.792e-7, 5.300e-7
-0.269, -1.108e-6, -5.786e-7, 5.291e-7
-0.270, -1.107e-6, -5.802e-7, 5.270e-7
-0.271, -1.112e-6, -5.829e-7, 5.291e-7
-0.272, -1.107e-6, -5.783e-7, 5.282e-7
-0.273, -1.107e-6, -5.811e-7, 5.257e-7
-0.274, -1.108e-6, -5.805e-7, 5.279e-7
-0.275, -1.104e-6, -5.768e-7, 5.273e-7
-0.276, -1.105e-6, -5.805e-7, 5.248e-7
-0.277, -1.106e-6, -5.799e-7, 5.260e-7
-0.278, -1.104e-6, -5.792e-7, 5.248e-7
-0.279, -1.106e-6, -5.820e-7, 5.242e-7
-0.280, -1.103e-6, -5.792e-7, 5.242e-7
-0.281, -1.104e-6, -5.805e-7, 5.233e-7
-0.282, -1.102e-6, -5.796e-7, 5.224e-7
-0.283, -1.103e-6, -5.799e-7, 5.227e-7
-0.284, -1.098e-6, -5.759e-7, 5.221e-7
-0.285, -1.100e-6, -5.796e-7, 5.205e-7
-0.286, -1.100e-6, -5.783e-7, 5.221e-7
-0.287, -1.098e-6, -5.774e-7, 5.208e-7
-0.288, -1.096e-6, -5.780e-7, 5.184e-7
-0.289, -1.099e-6, -5.780e-7, 5.205e-7
-0.290, -1.097e-6, -5.780e-7, 5.187e-7
-0.291, -1.100e-6, -5.808e-7, 5.190e-7
-0.292, -1.099e-6, -5.792e-7, 5.202e-7
-0.293, -1.099e-6, -5.802e-7, 5.193e-7
-0.294, -1.098e-6, -5.796e-7, 5.187e-7
-0.295, -1.096e-6, -5.780e-7, 5.181e-7
-0.296, -1.096e-6, -5.792e-7, 5.172e-7
-0.297, -1.098e-6, -5.792e-7, 5.190e-7
-0.298, -1.096e-6, -5.774e-7, 5.181e-7
-0.299, -1.098e-6, -5.826e-7, 5.157e-7
-0.300, -1.096e-6, -5.789e-7, 5.166e-7
-0.301, -1.095e-6, -5.786e-7, 5.166e-7
-0.302, -1.094e-6, -5.786e-7, 5.150e-7
-0.303, -1.095e-6, -5.783e-7, 5.163e-7
-0.304, -1.092e-6, -5.777e-7, 5.147e-7
-0.305, -1.095e-6, -5.802e-7, 5.147e-7
-0.306, -1.095e-6, -5.792e-7, 5.157e-7
-0.307, -1.093e-6, -5.796e-7, 5.135e-7
-0.308, -1.092e-6, -5.777e-7, 5.144e-7
-0.309, -1.093e-6, -5.786e-7, 5.141e-7
-0.310, -1.092e-6, -5.789e-7, 5.132e-7
-0.311, -1.093e-6, -5.796e-7, 5.138e-7
-0.312, -1.093e-6, -5.792e-7, 5.135e-7
-0.313, -1.092e-6, -5.814e-7, 5.108e-7
-0.314, -1.092e-6, -5.802e-7, 5.120e-7
-0.315, -1.092e-6, -5.805e-7, 5.120e-7
-0.316, -1.092e-6, -5.814e-7, 5.102e-7
-0.317, -1.092e-6, -5.808e-7, 5.117e-7
-0.318, -1.091e-6, -5.786e-7, 5.120e-7
-0.319, -1.093e-6, -5.826e-7, 5.102e-7
-0.320, -1.090e-6, -5.792e-7, 5.105e-7
-0.321, -1.089e-6, -5.783e-7, 5.105e-7
-0.322, -1.089e-6, -5.808e-7, 5.080e-7
-0.323, -1.089e-6, -5.786e-7, 5.102e-7
-0.324, -1.087e-6, -5.786e-7, 5.083e-7
-0.325, -1.088e-6, -5.799e-7, 5.086e-7
-0.326, -1.088e-6, -5.786e-7, 5.093e-7
-0.327, -1.085e-6, -5.783e-7, 5.068e-7
-0.328, -1.088e-6, -5.802e-7, 5.080e-7
-0.329, -1.090e-6, -5.802e-7, 5.099e-7
-0.330, -1.085e-6, -5.783e-7, 5.068e-7
-0.331, -1.087e-6, -5.799e-7, 5.068e-7
-0.332, -1.085e-6, -5.783e-7, 5.071e-7
-0.333, -1.084e-6, -5.796e-7, 5.047e-7
-0.334, -1.088e-6, -5.814e-7, 5.062e-7
-0.335, -1.086e-6, -5.792e-7, 5.065e-7
-0.336, -1.082e-6, -5.783e-7, 5.041e-7
-0.337, -1.085e-6, -5.799e-7, 5.047e-7
-0.338, -1.085e-6, -5.786e-7, 5.059e-7
-0.339, -1.085e-6, -5.811e-7, 5.044e-7
-0.340, -1.086e-6, -5.820e-7, 5.044e-7
-0.341, -1.085e-6, -5.796e-7, 5.050e-7
-0.342, -1.081e-6, -5.786e-7, 5.028e-7
-0.343, -1.084e-6, -5.817e-7, 5.022e-7
-0.344, -1.083e-6, -5.799e-7, 5.031e-7
-0.345, -1.081e-6, -5.805e-7, 5.010e-7
-0.346, -1.082e-6, -5.808e-7, 5.010e-7
-0.347, -1.082e-6, -5.802e-7, 5.019e-7
-0.348, -1.079e-6, -5.796e-7, 4.992e-7
-0.349, -1.081e-6, -5.796e-7, 5.013e-7
-0.350, -1.079e-6, -5.789e-7, 5.004e-7
-0.351, -1.083e-6, -5.826e-7, 5.007e-7
-0.352, -1.078e-6, -5.786e-7, 4.995e-7
-0.353, -1.080e-6, -5.805e-7, 4.992e-7
-0.354, -1.081e-6, -5.829e-7, 4.983e-7
-0.355, -1.077e-6, -5.786e-7, 4.980e-7
-0.356, -1.077e-6, -5.799e-7, 4.970e-7
-0.357, -1.080e-6, -5.811e-7, 4.989e-7
-0.358, -1.078e-6, -5.802e-7, 4.977e-7
-0.359, -1.077e-6, -5.802e-7, 4.964e-7
-0.360, -1.077e-6, -5.811e-7, 4.958e-7
-0.361, -1.078e-6, -5.814e-7, 4.964e-7
-0.362, -1.076e-6, -5.811e-7, 4.952e-7
-0.363, -1.078e-6, -5.808e-7, 4.967e-7
-0.364, -1.076e-6, -5.808e-7, 4.949e-7
-0.365, -1.078e-6, -5.841e-7, 4.937e-7
-0.366, -1.078e-6, -5.826e-7, 4.952e-7
-0.367, -1.077e-6, -5.814e-7, 4.952e-7
-0.368, -1.080e-6, -5.866e-7, 4.931e-7
-0.369, -1.078e-6, -5.820e-7, 4.958e-7
-0.370, -1.076e-6, -5.826e-7, 4.934e-7
-0.371, -1.076e-6, -5.832e-7, 4.931e-7
-0.372, -1.077e-6, -5.820e-7, 4.946e-7
-0.373, -1.077e-6, -5.835e-7, 4.934e-7
-0.374, -1.076e-6, -5.832e-7, 4.925e-7
-0.375, -1.076e-6, -5.823e-7, 4.937e-7
-0.376, -1.072e-6, -5.820e-7, 4.900e-7
-0.377, -1.080e-6, -5.893e-7, 4.903e-7
-0.378, -1.076e-6, -5.847e-7, 4.916e-7
-0.379, -1.076e-6, -5.860e-7, 4.903e-7
-0.380, -1.077e-6, -5.860e-7, 4.909e-7
-0.381, -1.075e-6, -5.829e-7, 4.922e-7
-0.382, -1.073e-6, -5.844e-7, 4.882e-7
-0.383, -1.075e-6, -5.857e-7, 4.897e-7
-0.384, -1.076e-6, -5.872e-7, 4.888e-7
-0.385, -1.074e-6, -5.857e-7, 4.888e-7
-0.386, -1.075e-6, -5.860e-7, 4.894e-7
-0.387, -1.073e-6, -5.854e-7, 4.879e-7
-0.388, -1.078e-6, -5.911e-7, 4.864e-7
-0.389, -1.077e-6, -5.878e-7, 4.888e-7
-0.390, -1.076e-6, -5.887e-7, 4.873e-7
-0.391, -1.076e-6, -5.908e-7, 4.848e-7
-0.392, -1.076e-6, -5.887e-7, 4.870e-7
-0.393, -1.073e-6, -5.890e-7, 4.842e-7
-0.394, -1.077e-6, -5.905e-7, 4.867e-7
-0.395, -1.077e-6, -5.896e-7, 4.876e-7
-0.396, -1.075e-6, -5.884e-7, 4.867e-7
-0.397, -1.074e-6, -5.902e-7, 4.836e-7
-0.398, -1.076e-6, -5.915e-7, 4.842e-7
-0.399, -1.077e-6, -5.936e-7, 4.830e-7
-0.400, -1.076e-6, -5.911e-7, 4.851e-7
