Feb. 28, 2018   15:09:52
Square Wave Voltammetry
File: c:\users\electrochemist\desktop\2018\28022018_unbuffered_9,2\68_e6_9,2_0118_ph9,98_2.txt
Data Source:  Experiment
Instrument Model:  CHI1040A
Header: 
Note: 

Init E (V) = 0.5
Final E (V) = -0.1
Incr E (V) = 0.001
Amplitude (V) = 0.1
Frequency (Hz) = 150
Quiet Time (sec) = 0
Sensitivity (A/V) = 1e-6

Difference:

Forward:

Reverse:

Potential/V, Diff(i/A), For(i/A), Rev(i/A)

0.499, -7.040e-7, -1.407e-7, 5.633e-7
0.498, -7.870e-7, -3.037e-7, 4.833e-7
0.497, -7.708e-7, -3.183e-7, 4.525e-7
0.496, -7.516e-7, -3.196e-7, 4.321e-7
0.495, -7.446e-7, -3.244e-7, 4.202e-7
0.494, -7.336e-7, -3.257e-7, 4.079e-7
0.493, -7.296e-7, -3.269e-7, 4.028e-7
0.492, -7.226e-7, -3.278e-7, 3.948e-7
0.491, -7.156e-7, -3.272e-7, 3.884e-7
0.490, -7.150e-7, -3.290e-7, 3.860e-7
0.489, -7.116e-7, -3.293e-7, 3.823e-7
0.488, -7.080e-7, -3.305e-7, 3.774e-7
0.487, -7.040e-7, -3.305e-7, 3.735e-7
0.486, -7.000e-7, -3.296e-7, 3.704e-7
0.485, -6.994e-7, -3.315e-7, 3.680e-7
0.484, -6.961e-7, -3.318e-7, 3.643e-7
0.483, -6.952e-7, -3.318e-7, 3.634e-7
0.482, -6.927e-7, -3.305e-7, 3.622e-7
0.481, -6.906e-7, -3.315e-7, 3.591e-7
0.480, -6.890e-7, -3.318e-7, 3.573e-7
0.479, -6.848e-7, -3.299e-7, 3.548e-7
0.478, -6.845e-7, -3.299e-7, 3.545e-7
0.477, -6.839e-7, -3.324e-7, 3.515e-7
0.476, -6.811e-7, -3.308e-7, 3.503e-7
0.475, -6.799e-7, -3.318e-7, 3.481e-7
0.474, -6.793e-7, -3.318e-7, 3.475e-7
0.473, -6.778e-7, -3.321e-7, 3.457e-7
0.472, -6.753e-7, -3.311e-7, 3.442e-7
0.471, -6.738e-7, -3.308e-7, 3.429e-7
0.470, -6.741e-7, -3.311e-7, 3.429e-7
0.469, -6.732e-7, -3.315e-7, 3.417e-7
0.468, -6.717e-7, -3.318e-7, 3.399e-7
0.467, -6.704e-7, -3.318e-7, 3.387e-7
0.466, -6.683e-7, -3.311e-7, 3.371e-7
0.465, -6.677e-7, -3.308e-7, 3.368e-7
0.464, -6.674e-7, -3.305e-7, 3.368e-7
0.463, -6.671e-7, -3.321e-7, 3.350e-7
0.462, -6.668e-7, -3.327e-7, 3.341e-7
0.461, -6.643e-7, -3.302e-7, 3.341e-7
0.460, -6.640e-7, -3.318e-7, 3.323e-7
0.459, -6.637e-7, -3.321e-7, 3.317e-7
0.458, -6.625e-7, -3.311e-7, 3.314e-7
0.457, -6.616e-7, -3.321e-7, 3.295e-7
0.456, -6.634e-7, -3.333e-7, 3.301e-7
0.455, -6.601e-7, -3.308e-7, 3.292e-7
0.454, -6.601e-7, -3.321e-7, 3.280e-7
0.453, -6.601e-7, -3.321e-7, 3.280e-7
0.452, -6.591e-7, -3.315e-7, 3.277e-7
0.451, -6.591e-7, -3.324e-7, 3.268e-7
0.450, -6.591e-7, -3.333e-7, 3.259e-7
0.449, -6.598e-7, -3.330e-7, 3.268e-7
0.448, -6.558e-7, -3.330e-7, 3.228e-7
0.447, -6.555e-7, -3.315e-7, 3.240e-7
0.446, -6.546e-7, -3.311e-7, 3.234e-7
0.445, -6.555e-7, -3.333e-7, 3.222e-7
0.444, -6.567e-7, -3.321e-7, 3.246e-7
0.443, -6.540e-7, -3.308e-7, 3.231e-7
0.442, -6.533e-7, -3.321e-7, 3.213e-7
0.441, -6.536e-7, -3.321e-7, 3.216e-7
0.440, -6.524e-7, -3.327e-7, 3.198e-7
0.439, -6.543e-7, -3.339e-7, 3.204e-7
0.438, -6.549e-7, -3.339e-7, 3.210e-7
0.437, -6.536e-7, -3.333e-7, 3.204e-7
0.436, -6.540e-7, -3.348e-7, 3.191e-7
0.435, -6.540e-7, -3.339e-7, 3.201e-7
0.434, -6.509e-7, -3.330e-7, 3.179e-7
0.433, -6.515e-7, -3.336e-7, 3.179e-7
0.432, -6.515e-7, -3.333e-7, 3.182e-7
0.431, -6.509e-7, -3.330e-7, 3.179e-7
0.430, -6.506e-7, -3.348e-7, 3.158e-7
0.429, -6.506e-7, -3.327e-7, 3.179e-7
0.428, -6.506e-7, -3.339e-7, 3.167e-7
0.427, -6.485e-7, -3.333e-7, 3.152e-7
0.426, -6.518e-7, -3.351e-7, 3.167e-7
0.425, -6.491e-7, -3.333e-7, 3.158e-7
0.424, -6.518e-7, -3.357e-7, 3.161e-7
0.423, -6.512e-7, -3.342e-7, 3.170e-7
0.422, -6.463e-7, -3.327e-7, 3.137e-7
0.421, -6.509e-7, -3.357e-7, 3.152e-7
0.420, -6.494e-7, -3.342e-7, 3.152e-7
0.419, -6.500e-7, -3.345e-7, 3.155e-7
0.418, -6.509e-7, -3.366e-7, 3.143e-7
0.417, -6.503e-7, -3.354e-7, 3.149e-7
0.416, -6.491e-7, -3.360e-7, 3.130e-7
0.415, -6.503e-7, -3.376e-7, 3.127e-7
0.414, -6.518e-7, -3.373e-7, 3.146e-7
0.413, -6.479e-7, -3.336e-7, 3.143e-7
0.412, -6.488e-7, -3.360e-7, 3.127e-7
0.411, -6.530e-7, -3.369e-7, 3.161e-7
0.410, -6.472e-7, -3.360e-7, 3.112e-7
0.409, -6.494e-7, -3.363e-7, 3.130e-7
0.408, -6.506e-7, -3.376e-7, 3.130e-7
0.407, -6.485e-7, -3.363e-7, 3.121e-7
0.406, -6.497e-7, -3.373e-7, 3.124e-7
0.405, -6.497e-7, -3.376e-7, 3.121e-7
0.404, -6.497e-7, -3.376e-7, 3.121e-7
0.403, -6.509e-7, -3.391e-7, 3.118e-7
0.402, -6.506e-7, -3.379e-7, 3.127e-7
0.401, -6.497e-7, -3.376e-7, 3.121e-7
0.400, -6.518e-7, -3.388e-7, 3.130e-7
0.399, -6.494e-7, -3.373e-7, 3.121e-7
0.398, -6.503e-7, -3.388e-7, 3.115e-7
0.397, -6.503e-7, -3.397e-7, 3.106e-7
0.396, -6.512e-7, -3.391e-7, 3.121e-7
0.395, -6.494e-7, -3.385e-7, 3.109e-7
0.394, -6.506e-7, -3.403e-7, 3.103e-7
0.393, -6.509e-7, -3.385e-7, 3.124e-7
0.392, -6.494e-7, -3.397e-7, 3.097e-7
0.391, -6.488e-7, -3.388e-7, 3.100e-7
0.390, -6.512e-7, -3.403e-7, 3.109e-7
0.389, -6.503e-7, -3.406e-7, 3.097e-7
0.388, -6.530e-7, -3.418e-7, 3.112e-7
0.387, -6.512e-7, -3.403e-7, 3.109e-7
0.386, -6.521e-7, -3.412e-7, 3.109e-7
0.385, -6.555e-7, -3.430e-7, 3.124e-7
0.384, -6.533e-7, -3.430e-7, 3.103e-7
0.383, -6.509e-7, -3.415e-7, 3.094e-7
0.382, -6.552e-7, -3.430e-7, 3.121e-7
0.381, -6.518e-7, -3.412e-7, 3.106e-7
0.380, -6.543e-7, -3.443e-7, 3.100e-7
0.379, -6.533e-7, -3.434e-7, 3.100e-7
0.378, -6.536e-7, -3.427e-7, 3.109e-7
0.377, -6.497e-7, -3.412e-7, 3.085e-7
0.376, -6.536e-7, -3.434e-7, 3.103e-7
0.375, -6.552e-7, -3.443e-7, 3.109e-7
0.374, -6.555e-7, -3.455e-7, 3.100e-7
0.373, -6.573e-7, -3.458e-7, 3.115e-7
0.372, -6.549e-7, -3.437e-7, 3.112e-7
0.371, -6.552e-7, -3.464e-7, 3.088e-7
0.370, -6.576e-7, -3.461e-7, 3.115e-7
0.369, -6.570e-7, -3.452e-7, 3.118e-7
0.368, -6.546e-7, -3.452e-7, 3.094e-7
0.367, -6.585e-7, -3.470e-7, 3.115e-7
0.366, -6.570e-7, -3.458e-7, 3.112e-7
0.365, -6.576e-7, -3.470e-7, 3.106e-7
0.364, -6.613e-7, -3.479e-7, 3.133e-7
0.363, -6.585e-7, -3.473e-7, 3.112e-7
0.362, -6.585e-7, -3.470e-7, 3.115e-7
0.361, -6.604e-7, -3.479e-7, 3.124e-7
0.360, -6.619e-7, -3.482e-7, 3.137e-7
0.359, -6.573e-7, -3.488e-7, 3.085e-7
0.358, -6.598e-7, -3.488e-7, 3.109e-7
0.357, -6.601e-7, -3.488e-7, 3.112e-7
0.356, -6.601e-7, -3.510e-7, 3.091e-7
0.355, -6.637e-7, -3.513e-7, 3.124e-7
0.354, -6.598e-7, -3.495e-7, 3.103e-7
0.353, -6.628e-7, -3.522e-7, 3.106e-7
0.352, -6.631e-7, -3.504e-7, 3.127e-7
0.351, -6.622e-7, -3.495e-7, 3.127e-7
0.350, -6.628e-7, -3.522e-7, 3.106e-7
0.349, -6.628e-7, -3.507e-7, 3.121e-7
0.348, -6.625e-7, -3.507e-7, 3.118e-7
0.347, -6.643e-7, -3.543e-7, 3.100e-7
0.346, -6.649e-7, -3.531e-7, 3.118e-7
0.345, -6.646e-7, -3.522e-7, 3.124e-7
0.344, -6.668e-7, -3.556e-7, 3.112e-7
0.343, -6.689e-7, -3.550e-7, 3.140e-7
0.342, -6.668e-7, -3.534e-7, 3.133e-7
0.341, -6.671e-7, -3.553e-7, 3.118e-7
0.340, -6.689e-7, -3.553e-7, 3.137e-7
0.339, -6.668e-7, -3.537e-7, 3.130e-7
0.338, -6.686e-7, -3.559e-7, 3.127e-7
0.337, -6.707e-7, -3.565e-7, 3.143e-7
0.336, -6.683e-7, -3.550e-7, 3.133e-7
0.335, -6.671e-7, -3.565e-7, 3.106e-7
0.334, -6.713e-7, -3.577e-7, 3.137e-7
0.333, -6.698e-7, -3.568e-7, 3.130e-7
0.332, -6.726e-7, -3.595e-7, 3.130e-7
0.331, -6.720e-7, -3.583e-7, 3.137e-7
0.330, -6.720e-7, -3.574e-7, 3.146e-7
0.329, -6.735e-7, -3.601e-7, 3.133e-7
0.328, -6.756e-7, -3.604e-7, 3.152e-7
0.327, -6.744e-7, -3.598e-7, 3.146e-7
0.326, -6.756e-7, -3.620e-7, 3.137e-7
0.325, -6.750e-7, -3.601e-7, 3.149e-7
0.324, -6.759e-7, -3.611e-7, 3.149e-7
0.323, -6.750e-7, -3.626e-7, 3.124e-7
0.322, -6.768e-7, -3.614e-7, 3.155e-7
0.321, -6.753e-7, -3.601e-7, 3.152e-7
0.320, -6.793e-7, -3.647e-7, 3.146e-7
0.319, -6.820e-7, -3.656e-7, 3.164e-7
0.318, -6.771e-7, -3.626e-7, 3.146e-7
0.317, -6.796e-7, -3.653e-7, 3.143e-7
0.316, -6.799e-7, -3.638e-7, 3.161e-7
0.315, -6.808e-7, -3.647e-7, 3.161e-7
0.314, -6.790e-7, -3.656e-7, 3.133e-7
0.313, -6.820e-7, -3.647e-7, 3.173e-7
0.312, -6.826e-7, -3.650e-7, 3.176e-7
0.311, -6.826e-7, -3.675e-7, 3.152e-7
0.310, -6.866e-7, -3.681e-7, 3.185e-7
0.309, -6.814e-7, -3.653e-7, 3.161e-7
0.308, -6.845e-7, -3.687e-7, 3.158e-7
0.307, -6.878e-7, -3.690e-7, 3.188e-7
0.306, -6.863e-7, -3.687e-7, 3.176e-7
0.305, -6.887e-7, -3.708e-7, 3.179e-7
0.304, -6.881e-7, -3.687e-7, 3.194e-7
0.303, -6.878e-7, -3.693e-7, 3.185e-7
0.302, -6.897e-7, -3.723e-7, 3.173e-7
0.301, -6.924e-7, -3.720e-7, 3.204e-7
0.300, -6.906e-7, -3.705e-7, 3.201e-7
0.299, -6.924e-7, -3.736e-7, 3.188e-7
0.298, -6.945e-7, -3.733e-7, 3.213e-7
0.297, -6.927e-7, -3.727e-7, 3.201e-7
0.296, -6.933e-7, -3.742e-7, 3.191e-7
0.295, -6.942e-7, -3.742e-7, 3.201e-7
0.294, -6.936e-7, -3.733e-7, 3.204e-7
0.293, -6.964e-7, -3.760e-7, 3.204e-7
0.292, -6.973e-7, -3.763e-7, 3.210e-7
0.291, -6.976e-7, -3.766e-7, 3.210e-7
0.290, -6.985e-7, -3.772e-7, 3.213e-7
0.289, -6.976e-7, -3.766e-7, 3.210e-7
0.288, -6.997e-7, -3.775e-7, 3.222e-7
0.287, -7.009e-7, -3.797e-7, 3.213e-7
0.286, -7.040e-7, -3.800e-7, 3.240e-7
0.285, -6.994e-7, -3.778e-7, 3.216e-7
0.284, -7.022e-7, -3.797e-7, 3.225e-7
0.283, -7.052e-7, -3.809e-7, 3.243e-7
0.282, -7.034e-7, -3.800e-7, 3.234e-7
0.281, -7.058e-7, -3.830e-7, 3.228e-7
0.280, -7.080e-7, -3.827e-7, 3.252e-7
0.279, -7.055e-7, -3.827e-7, 3.228e-7
0.278, -7.083e-7, -3.846e-7, 3.237e-7
0.277, -7.101e-7, -3.833e-7, 3.268e-7
0.276, -7.080e-7, -3.827e-7, 3.252e-7
0.275, -7.092e-7, -3.855e-7, 3.237e-7
0.274, -7.113e-7, -3.858e-7, 3.256e-7
0.273, -7.113e-7, -3.858e-7, 3.256e-7
0.272, -7.125e-7, -3.885e-7, 3.240e-7
0.271, -7.156e-7, -3.879e-7, 3.277e-7
0.270, -7.132e-7, -3.867e-7, 3.265e-7
0.269, -7.168e-7, -3.897e-7, 3.271e-7
0.268, -7.177e-7, -3.882e-7, 3.295e-7
0.267, -7.156e-7, -3.882e-7, 3.274e-7
0.266, -7.162e-7, -3.900e-7, 3.262e-7
0.265, -7.183e-7, -3.903e-7, 3.280e-7
0.264, -7.199e-7, -3.910e-7, 3.289e-7
0.263, -7.202e-7, -3.916e-7, 3.286e-7
0.262, -7.217e-7, -3.922e-7, 3.295e-7
0.261, -7.223e-7, -3.916e-7, 3.307e-7
0.260, -7.226e-7, -3.937e-7, 3.289e-7
0.259, -7.260e-7, -3.943e-7, 3.317e-7
0.258, -7.260e-7, -3.949e-7, 3.310e-7
0.257, -7.263e-7, -3.958e-7, 3.304e-7
0.256, -7.287e-7, -3.965e-7, 3.323e-7
0.255, -7.281e-7, -3.968e-7, 3.313e-7
0.254, -7.287e-7, -3.977e-7, 3.310e-7
0.253, -7.299e-7, -3.980e-7, 3.320e-7
0.252, -7.293e-7, -3.968e-7, 3.326e-7
0.251, -7.333e-7, -4.004e-7, 3.329e-7
0.250, -7.333e-7, -3.989e-7, 3.344e-7
0.249, -7.351e-7, -4.013e-7, 3.338e-7
0.248, -7.367e-7, -4.026e-7, 3.341e-7
0.247, -7.345e-7, -3.998e-7, 3.347e-7
0.246, -7.373e-7, -4.023e-7, 3.350e-7
0.245, -7.379e-7, -4.026e-7, 3.353e-7
0.244, -7.397e-7, -4.038e-7, 3.359e-7
0.243, -7.373e-7, -4.019e-7, 3.353e-7
0.242, -7.418e-7, -4.050e-7, 3.368e-7
0.241, -7.428e-7, -4.044e-7, 3.384e-7
0.240, -7.425e-7, -4.053e-7, 3.371e-7
0.239, -7.437e-7, -4.071e-7, 3.365e-7
0.238, -7.458e-7, -4.074e-7, 3.384e-7
0.237, -7.449e-7, -4.071e-7, 3.378e-7
0.236, -7.449e-7, -4.074e-7, 3.375e-7
0.235, -7.486e-7, -4.090e-7, 3.396e-7
0.234, -7.473e-7, -4.096e-7, 3.378e-7
0.233, -7.495e-7, -4.093e-7, 3.402e-7
0.232, -7.534e-7, -4.117e-7, 3.417e-7
0.231, -7.513e-7, -4.111e-7, 3.402e-7
0.230, -7.547e-7, -4.129e-7, 3.417e-7
0.229, -7.550e-7, -4.123e-7, 3.426e-7
0.228, -7.574e-7, -4.148e-7, 3.426e-7
0.227, -7.565e-7, -4.142e-7, 3.423e-7
0.226, -7.586e-7, -4.148e-7, 3.439e-7
0.225, -7.586e-7, -4.160e-7, 3.426e-7
0.224, -7.635e-7, -4.178e-7, 3.457e-7
0.223, -7.611e-7, -4.166e-7, 3.445e-7
0.222, -7.608e-7, -4.169e-7, 3.439e-7
0.221, -7.641e-7, -4.193e-7, 3.448e-7
0.220, -7.663e-7, -4.200e-7, 3.463e-7
0.219, -7.672e-7, -4.206e-7, 3.466e-7
0.218, -7.684e-7, -4.218e-7, 3.466e-7
0.217, -7.708e-7, -4.227e-7, 3.481e-7
0.216, -7.678e-7, -4.221e-7, 3.457e-7
0.215, -7.721e-7, -4.236e-7, 3.484e-7
0.214, -7.733e-7, -4.236e-7, 3.497e-7
0.213, -7.736e-7, -4.251e-7, 3.484e-7
0.212, -7.748e-7, -4.254e-7, 3.494e-7
0.211, -7.748e-7, -4.254e-7, 3.494e-7
0.210, -7.772e-7, -4.270e-7, 3.503e-7
0.209, -7.785e-7, -4.288e-7, 3.497e-7
0.208, -7.788e-7, -4.273e-7, 3.515e-7
0.207, -7.794e-7, -4.294e-7, 3.500e-7
0.206, -7.833e-7, -4.309e-7, 3.524e-7
0.205, -7.827e-7, -4.294e-7, 3.533e-7
0.204, -7.852e-7, -4.312e-7, 3.539e-7
0.203, -7.855e-7, -4.319e-7, 3.536e-7
0.202, -7.870e-7, -4.325e-7, 3.545e-7
0.201, -7.870e-7, -4.337e-7, 3.533e-7
0.200, -7.894e-7, -4.343e-7, 3.552e-7
0.199, -7.907e-7, -4.349e-7, 3.558e-7
0.198, -7.934e-7, -4.367e-7, 3.567e-7
0.197, -7.940e-7, -4.361e-7, 3.579e-7
0.196, -7.959e-7, -4.370e-7, 3.588e-7
0.195, -7.937e-7, -4.370e-7, 3.567e-7
0.194, -7.980e-7, -4.395e-7, 3.585e-7
0.193, -7.980e-7, -4.401e-7, 3.579e-7
0.192, -8.013e-7, -4.410e-7, 3.603e-7
0.191, -8.007e-7, -4.413e-7, 3.594e-7
0.190, -8.020e-7, -4.413e-7, 3.606e-7
0.189, -8.026e-7, -4.419e-7, 3.606e-7
0.188, -8.053e-7, -4.431e-7, 3.622e-7
0.187, -8.062e-7, -4.438e-7, 3.625e-7
0.186, -8.096e-7, -4.456e-7, 3.640e-7
0.185, -8.093e-7, -4.453e-7, 3.640e-7
0.184, -8.105e-7, -4.459e-7, 3.646e-7
0.183, -8.136e-7, -4.486e-7, 3.649e-7
0.182, -8.142e-7, -4.489e-7, 3.652e-7
0.181, -8.151e-7, -4.489e-7, 3.661e-7
0.180, -8.169e-7, -4.505e-7, 3.664e-7
0.179, -8.181e-7, -4.511e-7, 3.671e-7
0.178, -8.181e-7, -4.529e-7, 3.652e-7
0.177, -8.193e-7, -4.523e-7, 3.671e-7
0.176, -8.212e-7, -4.532e-7, 3.680e-7
0.175, -8.221e-7, -4.538e-7, 3.683e-7
0.174, -8.264e-7, -4.560e-7, 3.704e-7
0.173, -8.251e-7, -4.550e-7, 3.701e-7
0.172, -8.291e-7, -4.566e-7, 3.725e-7
0.171, -8.291e-7, -4.581e-7, 3.710e-7
0.170, -8.325e-7, -4.599e-7, 3.725e-7
0.169, -8.319e-7, -4.596e-7, 3.722e-7
0.168, -8.349e-7, -4.608e-7, 3.741e-7
0.167, -8.361e-7, -4.621e-7, 3.741e-7
0.166, -8.355e-7, -4.618e-7, 3.738e-7
0.165, -8.395e-7, -4.633e-7, 3.762e-7
0.164, -8.398e-7, -4.648e-7, 3.750e-7
0.163, -8.432e-7, -4.657e-7, 3.774e-7
0.162, -8.432e-7, -4.657e-7, 3.774e-7
0.161, -8.456e-7, -4.669e-7, 3.786e-7
0.160, -8.465e-7, -4.682e-7, 3.783e-7
0.159, -8.499e-7, -4.703e-7, 3.796e-7
0.158, -8.511e-7, -4.700e-7, 3.811e-7
0.157, -8.505e-7, -4.709e-7, 3.796e-7
0.156, -8.523e-7, -4.712e-7, 3.811e-7
0.155, -8.535e-7, -4.718e-7, 3.817e-7
0.154, -8.554e-7, -4.730e-7, 3.823e-7
0.153, -8.566e-7, -4.740e-7, 3.826e-7
0.152, -8.593e-7, -4.755e-7, 3.838e-7
0.151, -8.599e-7, -4.767e-7, 3.832e-7
0.150, -8.642e-7, -4.782e-7, 3.860e-7
0.149, -8.648e-7, -4.782e-7, 3.866e-7
0.148, -8.657e-7, -4.792e-7, 3.866e-7
0.147, -8.676e-7, -4.795e-7, 3.881e-7
0.146, -8.718e-7, -4.810e-7, 3.909e-7
0.145, -8.734e-7, -4.831e-7, 3.902e-7
0.144, -8.724e-7, -4.837e-7, 3.887e-7
0.143, -8.743e-7, -4.846e-7, 3.896e-7
0.142, -8.746e-7, -4.853e-7, 3.893e-7
0.141, -8.770e-7, -4.865e-7, 3.905e-7
0.140, -8.801e-7, -4.874e-7, 3.927e-7
0.139, -8.816e-7, -4.880e-7, 3.936e-7
0.138, -8.837e-7, -4.907e-7, 3.930e-7
0.137, -8.862e-7, -4.917e-7, 3.945e-7
0.136, -8.840e-7, -4.892e-7, 3.948e-7
0.135, -8.901e-7, -4.938e-7, 3.963e-7
0.134, -8.898e-7, -4.911e-7, 3.988e-7
0.133, -8.926e-7, -4.959e-7, 3.967e-7
0.132, -8.944e-7, -4.962e-7, 3.982e-7
0.131, -8.962e-7, -4.969e-7, 3.994e-7
0.130, -8.966e-7, -4.978e-7, 3.988e-7
0.129, -8.987e-7, -4.999e-7, 3.988e-7
0.128, -9.014e-7, -5.005e-7, 4.009e-7
0.127, -9.033e-7, -5.011e-7, 4.021e-7
0.126, -9.072e-7, -5.048e-7, 4.025e-7
0.125, -9.085e-7, -5.036e-7, 4.049e-7
0.124, -9.094e-7, -5.048e-7, 4.046e-7
0.123, -9.133e-7, -5.054e-7, 4.079e-7
0.122, -9.139e-7, -5.069e-7, 4.070e-7
0.121, -9.164e-7, -5.103e-7, 4.061e-7
0.120, -9.170e-7, -5.097e-7, 4.073e-7
0.119, -9.194e-7, -5.100e-7, 4.095e-7
0.118, -9.194e-7, -5.124e-7, 4.070e-7
0.117, -9.231e-7, -5.133e-7, 4.098e-7
0.116, -9.249e-7, -5.139e-7, 4.110e-7
0.115, -9.277e-7, -5.152e-7, 4.125e-7
0.114, -9.277e-7, -5.161e-7, 4.116e-7
0.113, -9.310e-7, -5.173e-7, 4.137e-7
0.112, -9.341e-7, -5.191e-7, 4.150e-7
0.111, -9.353e-7, -5.203e-7, 4.150e-7
0.110, -9.338e-7, -5.194e-7, 4.144e-7
0.109, -9.393e-7, -5.231e-7, 4.162e-7
0.108, -9.417e-7, -5.240e-7, 4.177e-7
0.107, -9.439e-7, -5.255e-7, 4.183e-7
0.106, -9.448e-7, -5.271e-7, 4.177e-7
0.105, -9.472e-7, -5.283e-7, 4.189e-7
0.104, -9.503e-7, -5.295e-7, 4.208e-7
0.103, -9.509e-7, -5.289e-7, 4.220e-7
0.102, -9.545e-7, -5.319e-7, 4.226e-7
0.101, -9.548e-7, -5.322e-7, 4.226e-7
0.100, -9.591e-7, -5.353e-7, 4.238e-7
0.099, -9.603e-7, -5.353e-7, 4.250e-7
0.098, -9.609e-7, -5.362e-7, 4.247e-7
0.097, -9.637e-7, -5.374e-7, 4.263e-7
0.096, -9.680e-7, -5.399e-7, 4.281e-7
0.095, -9.670e-7, -5.396e-7, 4.275e-7
0.094, -9.725e-7, -5.426e-7, 4.299e-7
0.093, -9.738e-7, -5.435e-7, 4.302e-7
0.092, -9.762e-7, -5.442e-7, 4.321e-7
0.091, -9.777e-7, -5.460e-7, 4.317e-7
0.090, -9.799e-7, -5.469e-7, 4.330e-7
0.089, -9.835e-7, -5.490e-7, 4.345e-7
0.088, -9.844e-7, -5.503e-7, 4.342e-7
0.087, -9.872e-7, -5.509e-7, 4.363e-7
0.086, -9.893e-7, -5.524e-7, 4.369e-7
0.085, -9.918e-7, -5.542e-7, 4.375e-7
0.084, -9.942e-7, -5.551e-7, 4.391e-7
0.083, -9.973e-7, -5.579e-7, 4.394e-7
0.082, -9.985e-7, -5.585e-7, 4.400e-7
0.081, -1.002e-6, -5.603e-7, 4.418e-7
0.080, -1.004e-6, -5.615e-7, 4.424e-7
0.079, -1.006e-6, -5.622e-7, 4.436e-7
0.078, -1.008e-6, -5.643e-7, 4.440e-7
0.077, -1.010e-6, -5.637e-7, 4.467e-7
0.076, -1.012e-6, -5.658e-7, 4.464e-7
0.075, -1.015e-6, -5.676e-7, 4.473e-7
0.074, -1.016e-6, -5.683e-7, 4.476e-7
0.073, -1.023e-6, -5.716e-7, 4.510e-7
0.072, -1.025e-6, -5.741e-7, 4.513e-7
0.071, -1.026e-6, -5.728e-7, 4.528e-7
0.070, -1.028e-6, -5.756e-7, 4.525e-7
0.069, -1.030e-6, -5.765e-7, 4.537e-7
0.068, -1.033e-6, -5.771e-7, 4.555e-7
0.067, -1.035e-6, -5.802e-7, 4.546e-7
0.066, -1.038e-6, -5.805e-7, 4.574e-7
0.065, -1.040e-6, -5.814e-7, 4.586e-7
0.064, -1.043e-6, -5.835e-7, 4.592e-7
0.063, -1.046e-6, -5.853e-7, 4.604e-7
0.062, -1.047e-6, -5.857e-7, 4.613e-7
0.061, -1.050e-6, -5.878e-7, 4.626e-7
0.060, -1.054e-6, -5.896e-7, 4.647e-7
0.059, -1.055e-6, -5.902e-7, 4.644e-7
0.058, -1.060e-6, -5.942e-7, 4.653e-7
0.057, -1.063e-6, -5.948e-7, 4.687e-7
0.056, -1.063e-6, -5.942e-7, 4.684e-7
0.055, -1.065e-6, -5.969e-7, 4.684e-7
0.054, -1.071e-6, -5.994e-7, 4.720e-7
0.053, -1.071e-6, -5.994e-7, 4.717e-7
0.052, -1.076e-6, -6.030e-7, 4.726e-7
0.051, -1.076e-6, -6.030e-7, 4.732e-7
0.050, -1.079e-6, -6.046e-7, 4.748e-7
0.049, -1.081e-6, -6.058e-7, 4.754e-7
0.048, -1.086e-6, -6.076e-7, 4.784e-7
0.047, -1.087e-6, -6.098e-7, 4.775e-7
0.046, -1.094e-6, -6.134e-7, 4.806e-7
0.045, -1.095e-6, -6.125e-7, 4.821e-7
0.044, -1.098e-6, -6.143e-7, 4.839e-7
0.043, -1.100e-6, -6.168e-7, 4.836e-7
0.042, -1.103e-6, -6.171e-7, 4.858e-7
0.041, -1.106e-6, -6.198e-7, 4.858e-7
0.040, -1.108e-6, -6.211e-7, 4.870e-7
0.039, -1.112e-6, -6.223e-7, 4.900e-7
0.038, -1.112e-6, -6.226e-7, 4.891e-7
0.037, -1.117e-6, -6.262e-7, 4.909e-7
0.036, -1.121e-6, -6.272e-7, 4.934e-7
0.035, -1.123e-6, -6.296e-7, 4.937e-7
0.034, -1.126e-6, -6.308e-7, 4.955e-7
0.033, -1.128e-6, -6.314e-7, 4.961e-7
0.032, -1.129e-6, -6.320e-7, 4.967e-7
0.031, -1.132e-6, -6.345e-7, 4.974e-7
0.030, -1.137e-6, -6.366e-7, 5.007e-7
0.029, -1.138e-6, -6.372e-7, 5.004e-7
0.028, -1.143e-6, -6.400e-7, 5.028e-7
0.027, -1.144e-6, -6.397e-7, 5.044e-7
0.026, -1.146e-6, -6.418e-7, 5.041e-7
0.025, -1.152e-6, -6.458e-7, 5.065e-7
0.024, -1.154e-6, -6.445e-7, 5.096e-7
0.023, -1.155e-6, -6.470e-7, 5.083e-7
0.022, -1.159e-6, -6.500e-7, 5.093e-7
0.021, -1.164e-6, -6.500e-7, 5.135e-7
0.020, -1.165e-6, -6.522e-7, 5.126e-7
0.019, -1.168e-6, -6.537e-7, 5.144e-7
0.018, -1.171e-6, -6.546e-7, 5.163e-7
0.017, -1.173e-6, -6.564e-7, 5.166e-7
0.016, -1.179e-6, -6.592e-7, 5.196e-7
0.015, -1.181e-6, -6.592e-7, 5.215e-7
0.014, -1.182e-6, -6.613e-7, 5.205e-7
0.013, -1.185e-6, -6.629e-7, 5.221e-7
0.012, -1.187e-6, -6.622e-7, 5.248e-7
0.011, -1.192e-6, -6.662e-7, 5.254e-7
0.010, -1.195e-6, -6.684e-7, 5.263e-7
0.009, -1.197e-6, -6.680e-7, 5.285e-7
0.008, -1.197e-6, -6.693e-7, 5.282e-7
0.007, -1.202e-6, -6.723e-7, 5.297e-7
0.006, -1.206e-6, -6.723e-7, 5.337e-7
0.005, -1.207e-6, -6.738e-7, 5.331e-7
0.004, -1.209e-6, -6.757e-7, 5.337e-7
0.003, -1.213e-6, -6.757e-7, 5.376e-7
0.002, -1.214e-6, -6.778e-7, 5.364e-7
0.001, -1.221e-6, -6.815e-7, 5.392e-7
-0.000, -1.226e-6, -6.827e-7, 5.431e-7
-0.001, -1.224e-6, -6.833e-7, 5.407e-7
-0.002, -1.229e-6, -6.857e-7, 5.437e-7
-0.003, -1.233e-6, -6.857e-7, 5.468e-7
-0.004, -1.233e-6, -6.879e-7, 5.453e-7
-0.005, -1.237e-6, -6.894e-7, 5.480e-7
-0.006, -1.240e-6, -6.888e-7, 5.508e-7
-0.007, -1.241e-6, -6.909e-7, 5.501e-7
-0.008, -1.245e-6, -6.934e-7, 5.514e-7
-0.009, -1.247e-6, -6.922e-7, 5.547e-7
-0.010, -1.249e-6, -6.961e-7, 5.529e-7
-0.011, -1.255e-6, -6.980e-7, 5.572e-7
-0.012, -1.256e-6, -6.976e-7, 5.587e-7
-0.013, -1.259e-6, -7.001e-7, 5.590e-7
-0.014, -1.264e-6, -7.031e-7, 5.608e-7
-0.015, -1.265e-6, -7.013e-7, 5.639e-7
-0.016, -1.266e-6, -7.037e-7, 5.627e-7
-0.017, -1.273e-6, -7.074e-7, 5.657e-7
-0.018, -1.273e-6, -7.059e-7, 5.672e-7
-0.019, -1.276e-6, -7.080e-7, 5.675e-7
-0.020, -1.280e-6, -7.105e-7, 5.691e-7
-0.021, -1.282e-6, -7.102e-7, 5.721e-7
-0.022, -1.284e-6, -7.117e-7, 5.721e-7
-0.023, -1.287e-6, -7.135e-7, 5.739e-7
-0.024, -1.289e-6, -7.126e-7, 5.767e-7
-0.025, -1.289e-6, -7.150e-7, 5.739e-7
-0.026, -1.294e-6, -7.160e-7, 5.779e-7
-0.027, -1.298e-6, -7.172e-7, 5.807e-7
-0.028, -1.299e-6, -7.181e-7, 5.813e-7
-0.029, -1.305e-6, -7.214e-7, 5.831e-7
-0.030, -1.305e-6, -7.199e-7, 5.849e-7
-0.031, -1.305e-6, -7.211e-7, 5.834e-7
-0.032, -1.309e-6, -7.236e-7, 5.855e-7
-0.033, -1.312e-6, -7.233e-7, 5.889e-7
-0.034, -1.316e-6, -7.263e-7, 5.895e-7
-0.035, -1.320e-6, -7.272e-7, 5.926e-7
-0.036, -1.321e-6, -7.269e-7, 5.938e-7
-0.037, -1.323e-6, -7.291e-7, 5.938e-7
-0.038, -1.326e-6, -7.303e-7, 5.953e-7
-0.039, -1.329e-6, -7.303e-7, 5.987e-7
-0.040, -1.329e-6, -7.306e-7, 5.981e-7
-0.041, -1.332e-6, -7.333e-7, 5.990e-7
-0.042, -1.335e-6, -7.330e-7, 6.020e-7
-0.043, -1.336e-6, -7.343e-7, 6.017e-7
-0.044, -1.340e-6, -7.355e-7, 6.042e-7
-0.045, -1.341e-6, -7.346e-7, 6.066e-7
-0.046, -1.344e-6, -7.376e-7, 6.066e-7
-0.047, -1.347e-6, -7.385e-7, 6.081e-7
-0.048, -1.348e-6, -7.382e-7, 6.103e-7
-0.049, -1.349e-6, -7.388e-7, 6.103e-7
-0.050, -1.352e-6, -7.395e-7, 6.130e-7
-0.051, -1.356e-6, -7.407e-7, 6.148e-7
-0.052, -1.355e-6, -7.413e-7, 6.133e-7
-0.053, -1.360e-6, -7.437e-7, 6.164e-7
-0.054, -1.363e-6, -7.428e-7, 6.200e-7
-0.055, -1.362e-6, -7.434e-7, 6.182e-7
-0.056, -1.367e-6, -7.468e-7, 6.203e-7
-0.057, -1.367e-6, -7.440e-7, 6.228e-7
-0.058, -1.370e-6, -7.465e-7, 6.231e-7
-0.059, -1.373e-6, -7.483e-7, 6.249e-7
-0.060, -1.375e-6, -7.462e-7, 6.289e-7
-0.061, -1.375e-6, -7.483e-7, 6.270e-7
-0.062, -1.377e-6, -7.489e-7, 6.286e-7
-0.063, -1.378e-6, -7.483e-7, 6.295e-7
-0.064, -1.381e-6, -7.507e-7, 6.301e-7
-0.065, -1.384e-6, -7.510e-7, 6.328e-7
-0.066, -1.384e-6, -7.504e-7, 6.338e-7
-0.067, -1.386e-6, -7.517e-7, 6.347e-7
-0.068, -1.389e-6, -7.529e-7, 6.365e-7
-0.069, -1.391e-6, -7.523e-7, 6.386e-7
-0.070, -1.392e-6, -7.535e-7, 6.383e-7
-0.071, -1.396e-6, -7.556e-7, 6.405e-7
-0.072, -1.396e-6, -7.541e-7, 6.423e-7
-0.073, -1.396e-6, -7.538e-7, 6.423e-7
-0.074, -1.399e-6, -7.556e-7, 6.435e-7
-0.075, -1.401e-6, -7.556e-7, 6.454e-7
-0.076, -1.401e-6, -7.556e-7, 6.454e-7
-0.077, -1.406e-6, -7.581e-7, 6.475e-7
-0.078, -1.403e-6, -7.553e-7, 6.481e-7
-0.079, -1.405e-6, -7.565e-7, 6.484e-7
-0.080, -1.410e-6, -7.572e-7, 6.524e-7
-0.081, -1.409e-6, -7.565e-7, 6.524e-7
-0.082, -1.411e-6, -7.578e-7, 6.530e-7
-0.083, -1.413e-6, -7.587e-7, 6.548e-7
-0.084, -1.413e-6, -7.572e-7, 6.554e-7
-0.085, -1.414e-6, -7.596e-7, 6.545e-7
-0.086, -1.416e-6, -7.590e-7, 6.566e-7
-0.087, -1.416e-6, -7.590e-7, 6.573e-7
-0.088, -1.418e-6, -7.587e-7, 6.594e-7
-0.089, -1.421e-6, -7.602e-7, 6.609e-7
-0.090, -1.423e-6, -7.602e-7, 6.627e-7
-0.091, -1.423e-6, -7.605e-7, 6.627e-7
-0.092, -1.424e-6, -7.596e-7, 6.646e-7
-0.093, -1.423e-6, -7.587e-7, 6.643e-7
-0.094, -1.425e-6, -7.599e-7, 6.649e-7
-0.095, -1.429e-6, -7.608e-7, 6.679e-7
-0.096, -1.427e-6, -7.587e-7, 6.679e-7
-0.097, -1.430e-6, -7.599e-7, 6.701e-7
-0.098, -1.431e-6, -7.602e-7, 6.710e-7
-0.099, -1.430e-6, -7.599e-7, 6.698e-7
-0.100, -1.430e-6, -7.596e-7, 6.704e-7
