Feb. 28, 2018   15:13:19
Square Wave Voltammetry
File: c:\users\electrochemist\desktop\2018\28022018_unbuffered_9,2\68_e6_9,2_0118_ph9,98_wider1.txt
Data Source:  Experiment
Instrument Model:  CHI1040A
Header: 
Note: 

Init E (V) = 0.5
Final E (V) = -0.8
Incr E (V) = 0.001
Amplitude (V) = 0.1
Frequency (Hz) = 150
Quiet Time (sec) = 0
Sensitivity (A/V) = 1e-6

Difference:

Forward:

Reverse:
Ep = -0.347V
ip = 4.705e-8A
Ah = 3.310e-9VA

Potential/V, Diff(i/A), For(i/A), Rev(i/A)

0.499, -1.283e-6, -8.153e-8, 1.201e-6
0.498, -1.238e-6, -2.506e-7, 9.874e-7
0.497, -1.149e-6, -2.668e-7, 8.825e-7
0.496, -1.086e-6, -2.738e-7, 8.120e-7
0.495, -1.041e-6, -2.817e-7, 7.595e-7
0.494, -1.003e-6, -2.857e-7, 7.177e-7
0.493, -9.759e-7, -2.872e-7, 6.887e-7
0.492, -9.545e-7, -2.915e-7, 6.631e-7
0.491, -9.359e-7, -2.939e-7, 6.420e-7
0.490, -9.170e-7, -2.951e-7, 6.219e-7
0.489, -9.008e-7, -2.979e-7, 6.029e-7
0.488, -8.874e-7, -2.988e-7, 5.886e-7
0.487, -8.755e-7, -2.985e-7, 5.770e-7
0.486, -8.639e-7, -3.012e-7, 5.627e-7
0.485, -8.535e-7, -3.015e-7, 5.520e-7
0.484, -8.474e-7, -3.028e-7, 5.447e-7
0.483, -8.355e-7, -3.025e-7, 5.331e-7
0.482, -8.294e-7, -3.046e-7, 5.248e-7
0.481, -8.215e-7, -3.022e-7, 5.193e-7
0.480, -8.132e-7, -3.046e-7, 5.086e-7
0.479, -8.081e-7, -3.052e-7, 5.029e-7
0.478, -8.035e-7, -3.055e-7, 4.980e-7
0.477, -7.971e-7, -3.064e-7, 4.906e-7
0.476, -7.934e-7, -3.080e-7, 4.855e-7
0.475, -7.876e-7, -3.073e-7, 4.803e-7
0.474, -7.824e-7, -3.070e-7, 4.754e-7
0.473, -7.794e-7, -3.086e-7, 4.708e-7
0.472, -7.745e-7, -3.073e-7, 4.671e-7
0.471, -7.693e-7, -3.083e-7, 4.610e-7
0.470, -7.672e-7, -3.098e-7, 4.574e-7
0.469, -7.626e-7, -3.086e-7, 4.540e-7
0.468, -7.583e-7, -3.083e-7, 4.501e-7
0.467, -7.556e-7, -3.101e-7, 4.455e-7
0.466, -7.528e-7, -3.101e-7, 4.427e-7
0.465, -7.513e-7, -3.110e-7, 4.403e-7
0.464, -7.470e-7, -3.110e-7, 4.360e-7
0.463, -7.440e-7, -3.101e-7, 4.339e-7
0.462, -7.403e-7, -3.098e-7, 4.305e-7
0.461, -7.391e-7, -3.113e-7, 4.278e-7
0.460, -7.348e-7, -3.107e-7, 4.241e-7
0.459, -7.330e-7, -3.113e-7, 4.217e-7
0.458, -7.312e-7, -3.122e-7, 4.189e-7
0.457, -7.266e-7, -3.107e-7, 4.159e-7
0.456, -7.263e-7, -3.131e-7, 4.131e-7
0.455, -7.263e-7, -3.138e-7, 4.125e-7
0.454, -7.254e-7, -3.134e-7, 4.119e-7
0.453, -7.223e-7, -3.141e-7, 4.083e-7
0.452, -7.208e-7, -3.131e-7, 4.076e-7
0.451, -7.168e-7, -3.125e-7, 4.043e-7
0.450, -7.171e-7, -3.147e-7, 4.025e-7
0.449, -7.147e-7, -3.138e-7, 4.009e-7
0.448, -7.138e-7, -3.141e-7, 3.997e-7
0.447, -7.089e-7, -3.141e-7, 3.948e-7
0.446, -7.095e-7, -3.150e-7, 3.945e-7
0.445, -7.071e-7, -3.138e-7, 3.933e-7
0.444, -7.083e-7, -3.165e-7, 3.918e-7
0.443, -7.089e-7, -3.186e-7, 3.902e-7
0.442, -7.040e-7, -3.153e-7, 3.887e-7
0.441, -7.052e-7, -3.159e-7, 3.893e-7
0.440, -7.016e-7, -3.171e-7, 3.844e-7
0.439, -7.022e-7, -3.165e-7, 3.857e-7
0.438, -7.006e-7, -3.174e-7, 3.832e-7
0.437, -7.006e-7, -3.174e-7, 3.832e-7
0.436, -6.994e-7, -3.174e-7, 3.820e-7
0.435, -6.973e-7, -3.183e-7, 3.790e-7
0.434, -6.979e-7, -3.192e-7, 3.787e-7
0.433, -6.952e-7, -3.177e-7, 3.774e-7
0.432, -6.942e-7, -3.192e-7, 3.750e-7
0.431, -6.942e-7, -3.180e-7, 3.762e-7
0.430, -6.927e-7, -3.174e-7, 3.753e-7
0.429, -6.900e-7, -3.177e-7, 3.722e-7
0.428, -6.921e-7, -3.202e-7, 3.719e-7
0.427, -6.903e-7, -3.189e-7, 3.713e-7
0.426, -6.894e-7, -3.199e-7, 3.695e-7
0.425, -6.909e-7, -3.205e-7, 3.704e-7
0.424, -6.860e-7, -3.186e-7, 3.674e-7
0.423, -6.872e-7, -3.199e-7, 3.674e-7
0.422, -6.881e-7, -3.208e-7, 3.674e-7
0.421, -6.881e-7, -3.205e-7, 3.677e-7
0.420, -6.869e-7, -3.217e-7, 3.652e-7
0.419, -6.875e-7, -3.214e-7, 3.661e-7
0.418, -6.839e-7, -3.199e-7, 3.640e-7
0.417, -6.851e-7, -3.223e-7, 3.628e-7
0.416, -6.845e-7, -3.217e-7, 3.628e-7
0.415, -6.848e-7, -3.229e-7, 3.619e-7
0.414, -6.829e-7, -3.226e-7, 3.603e-7
0.413, -6.836e-7, -3.241e-7, 3.594e-7
0.412, -6.814e-7, -3.226e-7, 3.588e-7
0.411, -6.808e-7, -3.238e-7, 3.570e-7
0.410, -6.823e-7, -3.238e-7, 3.585e-7
0.409, -6.811e-7, -3.232e-7, 3.579e-7
0.408, -6.790e-7, -3.235e-7, 3.555e-7
0.407, -6.814e-7, -3.244e-7, 3.570e-7
0.406, -6.784e-7, -3.235e-7, 3.548e-7
0.405, -6.787e-7, -3.247e-7, 3.539e-7
0.404, -6.842e-7, -3.272e-7, 3.570e-7
0.403, -6.808e-7, -3.260e-7, 3.548e-7
0.402, -6.799e-7, -3.269e-7, 3.530e-7
0.401, -6.796e-7, -3.263e-7, 3.533e-7
0.400, -6.765e-7, -3.244e-7, 3.521e-7
0.399, -6.765e-7, -3.260e-7, 3.506e-7
0.398, -6.778e-7, -3.263e-7, 3.515e-7
0.397, -6.784e-7, -3.257e-7, 3.527e-7
0.396, -6.775e-7, -3.266e-7, 3.509e-7
0.395, -6.778e-7, -3.287e-7, 3.491e-7
0.394, -6.775e-7, -3.278e-7, 3.497e-7
0.393, -6.768e-7, -3.284e-7, 3.484e-7
0.392, -6.775e-7, -3.281e-7, 3.494e-7
0.391, -6.768e-7, -3.275e-7, 3.494e-7
0.390, -6.762e-7, -3.284e-7, 3.478e-7
0.389, -6.765e-7, -3.293e-7, 3.472e-7
0.388, -6.741e-7, -3.275e-7, 3.466e-7
0.387, -6.775e-7, -3.290e-7, 3.484e-7
0.386, -6.759e-7, -3.293e-7, 3.466e-7
0.385, -6.756e-7, -3.284e-7, 3.472e-7
0.384, -6.762e-7, -3.308e-7, 3.454e-7
0.383, -6.768e-7, -3.308e-7, 3.460e-7
0.382, -6.762e-7, -3.299e-7, 3.463e-7
0.381, -6.759e-7, -3.302e-7, 3.457e-7
0.380, -6.756e-7, -3.311e-7, 3.445e-7
0.379, -6.741e-7, -3.293e-7, 3.448e-7
0.378, -6.781e-7, -3.336e-7, 3.445e-7
0.377, -6.790e-7, -3.327e-7, 3.463e-7
0.376, -6.753e-7, -3.315e-7, 3.439e-7
0.375, -6.741e-7, -3.321e-7, 3.420e-7
0.374, -6.765e-7, -3.339e-7, 3.426e-7
0.373, -6.738e-7, -3.305e-7, 3.433e-7
0.372, -6.756e-7, -3.330e-7, 3.426e-7
0.371, -6.775e-7, -3.345e-7, 3.429e-7
0.370, -6.756e-7, -3.330e-7, 3.426e-7
0.369, -6.750e-7, -3.339e-7, 3.411e-7
0.368, -6.771e-7, -3.342e-7, 3.429e-7
0.367, -6.744e-7, -3.315e-7, 3.429e-7
0.366, -6.765e-7, -3.357e-7, 3.408e-7
0.365, -6.756e-7, -3.351e-7, 3.405e-7
0.364, -6.762e-7, -3.342e-7, 3.420e-7
0.363, -6.765e-7, -3.354e-7, 3.411e-7
0.362, -6.768e-7, -3.366e-7, 3.402e-7
0.361, -6.781e-7, -3.351e-7, 3.429e-7
0.360, -6.753e-7, -3.357e-7, 3.396e-7
0.359, -6.787e-7, -3.373e-7, 3.414e-7
0.358, -6.768e-7, -3.363e-7, 3.405e-7
0.357, -6.781e-7, -3.379e-7, 3.402e-7
0.356, -6.802e-7, -3.388e-7, 3.414e-7
0.355, -6.765e-7, -3.363e-7, 3.402e-7
0.354, -6.753e-7, -3.369e-7, 3.384e-7
0.353, -6.784e-7, -3.394e-7, 3.390e-7
0.352, -6.778e-7, -3.376e-7, 3.402e-7
0.351, -6.790e-7, -3.391e-7, 3.399e-7
0.350, -6.793e-7, -3.385e-7, 3.408e-7
0.349, -6.793e-7, -3.394e-7, 3.399e-7
0.348, -6.778e-7, -3.397e-7, 3.381e-7
0.347, -6.796e-7, -3.397e-7, 3.399e-7
0.346, -6.805e-7, -3.397e-7, 3.408e-7
0.345, -6.790e-7, -3.400e-7, 3.390e-7
0.344, -6.817e-7, -3.415e-7, 3.402e-7
0.343, -6.790e-7, -3.400e-7, 3.390e-7
0.342, -6.808e-7, -3.415e-7, 3.393e-7
0.341, -6.796e-7, -3.403e-7, 3.393e-7
0.340, -6.808e-7, -3.412e-7, 3.396e-7
0.339, -6.829e-7, -3.437e-7, 3.393e-7
0.338, -6.851e-7, -3.452e-7, 3.399e-7
0.337, -6.826e-7, -3.430e-7, 3.396e-7
0.336, -6.814e-7, -3.434e-7, 3.381e-7
0.335, -6.832e-7, -3.452e-7, 3.381e-7
0.334, -6.823e-7, -3.440e-7, 3.384e-7
0.333, -6.836e-7, -3.452e-7, 3.384e-7
0.332, -6.832e-7, -3.443e-7, 3.390e-7
0.331, -6.851e-7, -3.458e-7, 3.393e-7
0.330, -6.839e-7, -3.461e-7, 3.378e-7
0.329, -6.848e-7, -3.461e-7, 3.387e-7
0.328, -6.872e-7, -3.473e-7, 3.399e-7
0.327, -6.842e-7, -3.461e-7, 3.381e-7
0.326, -6.860e-7, -3.476e-7, 3.384e-7
0.325, -6.872e-7, -3.467e-7, 3.405e-7
0.324, -6.839e-7, -3.458e-7, 3.381e-7
0.323, -6.878e-7, -3.479e-7, 3.399e-7
0.322, -6.851e-7, -3.458e-7, 3.393e-7
0.321, -6.860e-7, -3.482e-7, 3.378e-7
0.320, -6.884e-7, -3.485e-7, 3.399e-7
0.319, -6.875e-7, -3.485e-7, 3.390e-7
0.318, -6.897e-7, -3.519e-7, 3.378e-7
0.317, -6.890e-7, -3.504e-7, 3.387e-7
0.316, -6.897e-7, -3.492e-7, 3.405e-7
0.315, -6.890e-7, -3.507e-7, 3.384e-7
0.314, -6.906e-7, -3.510e-7, 3.396e-7
0.313, -6.890e-7, -3.498e-7, 3.393e-7
0.312, -6.906e-7, -3.525e-7, 3.381e-7
0.311, -6.921e-7, -3.531e-7, 3.390e-7
0.310, -6.897e-7, -3.519e-7, 3.378e-7
0.309, -6.897e-7, -3.528e-7, 3.368e-7
0.308, -6.924e-7, -3.528e-7, 3.396e-7
0.307, -6.930e-7, -3.516e-7, 3.414e-7
0.306, -6.918e-7, -3.534e-7, 3.384e-7
0.305, -6.939e-7, -3.546e-7, 3.393e-7
0.304, -6.939e-7, -3.540e-7, 3.399e-7
0.303, -6.948e-7, -3.556e-7, 3.393e-7
0.302, -6.952e-7, -3.562e-7, 3.390e-7
0.301, -6.939e-7, -3.550e-7, 3.390e-7
0.300, -6.945e-7, -3.556e-7, 3.390e-7
0.299, -6.942e-7, -3.553e-7, 3.390e-7
0.298, -6.964e-7, -3.562e-7, 3.402e-7
0.297, -6.958e-7, -3.565e-7, 3.393e-7
0.296, -6.985e-7, -3.571e-7, 3.414e-7
0.295, -6.970e-7, -3.568e-7, 3.402e-7
0.294, -6.945e-7, -3.571e-7, 3.375e-7
0.293, -6.985e-7, -3.586e-7, 3.399e-7
0.292, -6.970e-7, -3.577e-7, 3.393e-7
0.291, -6.991e-7, -3.601e-7, 3.390e-7
0.290, -7.006e-7, -3.607e-7, 3.399e-7
0.289, -7.000e-7, -3.589e-7, 3.411e-7
0.288, -7.009e-7, -3.607e-7, 3.402e-7
0.287, -7.025e-7, -3.611e-7, 3.414e-7
0.286, -7.013e-7, -3.604e-7, 3.408e-7
0.285, -7.025e-7, -3.626e-7, 3.399e-7
0.284, -7.022e-7, -3.614e-7, 3.408e-7
0.283, -7.016e-7, -3.614e-7, 3.402e-7
0.282, -7.028e-7, -3.629e-7, 3.399e-7
0.281, -7.052e-7, -3.632e-7, 3.420e-7
0.280, -7.034e-7, -3.623e-7, 3.411e-7
0.279, -7.046e-7, -3.647e-7, 3.399e-7
0.278, -7.061e-7, -3.647e-7, 3.414e-7
0.277, -7.098e-7, -3.656e-7, 3.442e-7
0.276, -7.058e-7, -3.656e-7, 3.402e-7
0.275, -7.110e-7, -3.675e-7, 3.436e-7
0.274, -7.055e-7, -3.650e-7, 3.405e-7
0.273, -7.064e-7, -3.656e-7, 3.408e-7
0.272, -7.128e-7, -3.687e-7, 3.442e-7
0.271, -7.098e-7, -3.675e-7, 3.423e-7
0.270, -7.092e-7, -3.681e-7, 3.411e-7
0.269, -7.125e-7, -3.699e-7, 3.426e-7
0.268, -7.150e-7, -3.690e-7, 3.460e-7
0.267, -7.098e-7, -3.681e-7, 3.417e-7
0.266, -7.147e-7, -3.714e-7, 3.433e-7
0.265, -7.116e-7, -3.705e-7, 3.411e-7
0.264, -7.135e-7, -3.711e-7, 3.423e-7
0.263, -7.150e-7, -3.717e-7, 3.433e-7
0.262, -7.141e-7, -3.708e-7, 3.433e-7
0.261, -7.153e-7, -3.727e-7, 3.426e-7
0.260, -7.183e-7, -3.736e-7, 3.448e-7
0.259, -7.156e-7, -3.717e-7, 3.439e-7
0.258, -7.153e-7, -3.720e-7, 3.433e-7
0.257, -7.208e-7, -3.757e-7, 3.451e-7
0.256, -7.196e-7, -3.748e-7, 3.448e-7
0.255, -7.196e-7, -3.748e-7, 3.448e-7
0.254, -7.199e-7, -3.754e-7, 3.445e-7
0.253, -7.211e-7, -3.763e-7, 3.448e-7
0.252, -7.196e-7, -3.757e-7, 3.439e-7
0.251, -7.241e-7, -3.784e-7, 3.457e-7
0.250, -7.214e-7, -3.763e-7, 3.451e-7
0.249, -7.232e-7, -3.791e-7, 3.442e-7
0.248, -7.260e-7, -3.794e-7, 3.466e-7
0.247, -7.223e-7, -3.769e-7, 3.454e-7
0.246, -7.241e-7, -3.791e-7, 3.451e-7
0.245, -7.275e-7, -3.809e-7, 3.466e-7
0.244, -7.293e-7, -3.821e-7, 3.472e-7
0.243, -7.287e-7, -3.827e-7, 3.460e-7
0.242, -7.275e-7, -3.812e-7, 3.463e-7
0.241, -7.281e-7, -3.815e-7, 3.466e-7
0.240, -7.302e-7, -3.827e-7, 3.475e-7
0.239, -7.318e-7, -3.846e-7, 3.472e-7
0.238, -7.312e-7, -3.836e-7, 3.475e-7
0.237, -7.309e-7, -3.836e-7, 3.472e-7
0.236, -7.348e-7, -3.870e-7, 3.478e-7
0.235, -7.318e-7, -3.842e-7, 3.475e-7
0.234, -7.327e-7, -3.852e-7, 3.475e-7
0.233, -7.363e-7, -3.867e-7, 3.497e-7
0.232, -7.351e-7, -3.867e-7, 3.484e-7
0.231, -7.370e-7, -3.873e-7, 3.497e-7
0.230, -7.373e-7, -3.882e-7, 3.490e-7
0.229, -7.388e-7, -3.888e-7, 3.500e-7
0.228, -7.391e-7, -3.894e-7, 3.497e-7
0.227, -7.388e-7, -3.894e-7, 3.494e-7
0.226, -7.400e-7, -3.894e-7, 3.506e-7
0.225, -7.418e-7, -3.913e-7, 3.506e-7
0.224, -7.428e-7, -3.928e-7, 3.500e-7
0.223, -7.434e-7, -3.919e-7, 3.515e-7
0.222, -7.452e-7, -3.946e-7, 3.506e-7
0.221, -7.431e-7, -3.925e-7, 3.506e-7
0.220, -7.455e-7, -3.928e-7, 3.527e-7
0.219, -7.455e-7, -3.943e-7, 3.512e-7
0.218, -7.452e-7, -3.940e-7, 3.512e-7
0.217, -7.495e-7, -3.952e-7, 3.542e-7
0.216, -7.479e-7, -3.952e-7, 3.527e-7
0.215, -7.516e-7, -3.977e-7, 3.539e-7
0.214, -7.519e-7, -3.980e-7, 3.539e-7
0.213, -7.501e-7, -3.974e-7, 3.527e-7
0.212, -7.537e-7, -3.989e-7, 3.548e-7
0.211, -7.534e-7, -3.980e-7, 3.555e-7
0.210, -7.525e-7, -3.995e-7, 3.530e-7
0.209, -7.556e-7, -4.010e-7, 3.545e-7
0.208, -7.553e-7, -4.001e-7, 3.552e-7
0.207, -7.565e-7, -4.026e-7, 3.539e-7
0.206, -7.580e-7, -4.019e-7, 3.561e-7
0.205, -7.598e-7, -4.026e-7, 3.573e-7
0.204, -7.589e-7, -4.029e-7, 3.561e-7
0.203, -7.629e-7, -4.044e-7, 3.585e-7
0.202, -7.635e-7, -4.044e-7, 3.591e-7
0.201, -7.617e-7, -4.056e-7, 3.561e-7
0.200, -7.641e-7, -4.053e-7, 3.588e-7
0.199, -7.617e-7, -4.050e-7, 3.567e-7
0.198, -7.644e-7, -4.065e-7, 3.579e-7
0.197, -7.678e-7, -4.077e-7, 3.600e-7
0.196, -7.653e-7, -4.068e-7, 3.585e-7
0.195, -7.663e-7, -4.087e-7, 3.576e-7
0.194, -7.684e-7, -4.087e-7, 3.597e-7
0.193, -7.714e-7, -4.093e-7, 3.622e-7
0.192, -7.693e-7, -4.105e-7, 3.588e-7
0.191, -7.724e-7, -4.117e-7, 3.606e-7
0.190, -7.733e-7, -4.114e-7, 3.619e-7
0.189, -7.742e-7, -4.126e-7, 3.616e-7
0.188, -7.733e-7, -4.129e-7, 3.603e-7
0.187, -7.739e-7, -4.123e-7, 3.616e-7
0.186, -7.760e-7, -4.154e-7, 3.606e-7
0.185, -7.772e-7, -4.148e-7, 3.625e-7
0.184, -7.797e-7, -4.145e-7, 3.652e-7
0.183, -7.757e-7, -4.148e-7, 3.609e-7
0.182, -7.824e-7, -4.172e-7, 3.652e-7
0.181, -7.824e-7, -4.169e-7, 3.655e-7
0.180, -7.827e-7, -4.181e-7, 3.646e-7
0.179, -7.840e-7, -4.190e-7, 3.649e-7
0.178, -7.849e-7, -4.184e-7, 3.664e-7
0.177, -7.864e-7, -4.206e-7, 3.658e-7
0.176, -7.888e-7, -4.215e-7, 3.674e-7
0.175, -7.873e-7, -4.200e-7, 3.674e-7
0.174, -7.888e-7, -4.230e-7, 3.658e-7
0.173, -7.916e-7, -4.242e-7, 3.674e-7
0.172, -7.910e-7, -4.221e-7, 3.689e-7
0.171, -7.916e-7, -4.248e-7, 3.667e-7
0.170, -7.955e-7, -4.251e-7, 3.704e-7
0.169, -7.962e-7, -4.254e-7, 3.707e-7
0.168, -7.959e-7, -4.279e-7, 3.680e-7
0.167, -7.983e-7, -4.279e-7, 3.704e-7
0.166, -7.974e-7, -4.267e-7, 3.707e-7
0.165, -7.971e-7, -4.276e-7, 3.695e-7
0.164, -8.020e-7, -4.303e-7, 3.716e-7
0.163, -8.007e-7, -4.297e-7, 3.710e-7
0.162, -8.035e-7, -4.312e-7, 3.722e-7
0.161, -8.050e-7, -4.322e-7, 3.729e-7
0.160, -8.047e-7, -4.319e-7, 3.729e-7
0.159, -8.053e-7, -4.328e-7, 3.725e-7
0.158, -8.071e-7, -4.340e-7, 3.732e-7
0.157, -8.093e-7, -4.352e-7, 3.741e-7
0.156, -8.105e-7, -4.367e-7, 3.738e-7
0.155, -8.126e-7, -4.370e-7, 3.756e-7
0.154, -8.120e-7, -4.355e-7, 3.765e-7
0.153, -8.126e-7, -4.386e-7, 3.741e-7
0.152, -8.151e-7, -4.383e-7, 3.768e-7
0.151, -8.154e-7, -4.383e-7, 3.771e-7
0.150, -8.169e-7, -4.398e-7, 3.771e-7
0.149, -8.200e-7, -4.416e-7, 3.783e-7
0.148, -8.197e-7, -4.404e-7, 3.793e-7
0.147, -8.212e-7, -4.422e-7, 3.790e-7
0.146, -8.248e-7, -4.453e-7, 3.796e-7
0.145, -8.248e-7, -4.434e-7, 3.814e-7
0.144, -8.245e-7, -4.447e-7, 3.799e-7
0.143, -8.279e-7, -4.462e-7, 3.817e-7
0.142, -8.258e-7, -4.447e-7, 3.811e-7
0.141, -8.285e-7, -4.474e-7, 3.811e-7
0.140, -8.297e-7, -4.477e-7, 3.820e-7
0.139, -8.306e-7, -4.477e-7, 3.829e-7
0.138, -8.316e-7, -4.496e-7, 3.820e-7
0.137, -8.337e-7, -4.499e-7, 3.838e-7
0.136, -8.340e-7, -4.496e-7, 3.844e-7
0.135, -8.355e-7, -4.511e-7, 3.844e-7
0.134, -8.398e-7, -4.529e-7, 3.869e-7
0.133, -8.398e-7, -4.526e-7, 3.872e-7
0.132, -8.413e-7, -4.557e-7, 3.857e-7
0.131, -8.441e-7, -4.563e-7, 3.878e-7
0.130, -8.428e-7, -4.550e-7, 3.878e-7
0.129, -8.438e-7, -4.569e-7, 3.869e-7
0.128, -8.456e-7, -4.575e-7, 3.881e-7
0.127, -8.483e-7, -4.587e-7, 3.896e-7
0.126, -8.496e-7, -4.602e-7, 3.893e-7
0.125, -8.514e-7, -4.611e-7, 3.902e-7
0.124, -8.532e-7, -4.611e-7, 3.921e-7
0.123, -8.547e-7, -4.633e-7, 3.915e-7
0.122, -8.575e-7, -4.645e-7, 3.930e-7
0.121, -8.554e-7, -4.630e-7, 3.924e-7
0.120, -8.584e-7, -4.654e-7, 3.930e-7
0.119, -8.609e-7, -4.657e-7, 3.951e-7
0.118, -8.621e-7, -4.651e-7, 3.970e-7
0.117, -8.602e-7, -4.682e-7, 3.921e-7
0.116, -8.648e-7, -4.694e-7, 3.954e-7
0.115, -8.688e-7, -4.685e-7, 4.003e-7
0.114, -8.682e-7, -4.706e-7, 3.976e-7
0.113, -8.679e-7, -4.700e-7, 3.979e-7
0.112, -8.746e-7, -4.752e-7, 3.994e-7
0.111, -8.724e-7, -4.737e-7, 3.988e-7
0.110, -8.734e-7, -4.746e-7, 3.988e-7
0.109, -8.752e-7, -4.743e-7, 4.009e-7
0.108, -8.749e-7, -4.761e-7, 3.988e-7
0.107, -8.819e-7, -4.807e-7, 4.012e-7
0.106, -8.807e-7, -4.776e-7, 4.031e-7
0.105, -8.776e-7, -4.779e-7, 3.997e-7
0.104, -8.847e-7, -4.810e-7, 4.037e-7
0.103, -8.856e-7, -4.801e-7, 4.055e-7
0.102, -8.853e-7, -4.816e-7, 4.037e-7
0.101, -8.901e-7, -4.840e-7, 4.061e-7
0.100, -8.905e-7, -4.840e-7, 4.064e-7
0.099, -8.908e-7, -4.853e-7, 4.055e-7
0.098, -8.959e-7, -4.871e-7, 4.089e-7
0.097, -8.935e-7, -4.865e-7, 4.070e-7
0.096, -8.950e-7, -4.868e-7, 4.082e-7
0.095, -8.990e-7, -4.892e-7, 4.098e-7
0.094, -9.002e-7, -4.892e-7, 4.110e-7
0.093, -9.020e-7, -4.914e-7, 4.107e-7
0.092, -9.036e-7, -4.923e-7, 4.113e-7
0.091, -9.042e-7, -4.923e-7, 4.119e-7
0.090, -9.057e-7, -4.932e-7, 4.125e-7
0.089, -9.091e-7, -4.953e-7, 4.137e-7
0.088, -9.118e-7, -4.962e-7, 4.156e-7
0.087, -9.115e-7, -4.972e-7, 4.144e-7
0.086, -9.118e-7, -4.978e-7, 4.140e-7
0.085, -9.167e-7, -4.990e-7, 4.177e-7
0.084, -9.167e-7, -5.014e-7, 4.153e-7
0.083, -9.201e-7, -5.023e-7, 4.177e-7
0.082, -9.213e-7, -5.023e-7, 4.189e-7
0.081, -9.216e-7, -5.033e-7, 4.183e-7
0.080, -9.258e-7, -5.054e-7, 4.205e-7
0.079, -9.268e-7, -5.051e-7, 4.217e-7
0.078, -9.271e-7, -5.069e-7, 4.201e-7
0.077, -9.329e-7, -5.094e-7, 4.235e-7
0.076, -9.326e-7, -5.081e-7, 4.244e-7
0.075, -9.323e-7, -5.106e-7, 4.217e-7
0.074, -9.362e-7, -5.121e-7, 4.241e-7
0.073, -9.393e-7, -5.124e-7, 4.269e-7
0.072, -9.390e-7, -5.139e-7, 4.250e-7
0.071, -9.435e-7, -5.167e-7, 4.269e-7
0.070, -9.451e-7, -5.155e-7, 4.296e-7
0.069, -9.460e-7, -5.185e-7, 4.275e-7
0.068, -9.497e-7, -5.197e-7, 4.299e-7
0.067, -9.503e-7, -5.191e-7, 4.311e-7
0.066, -9.521e-7, -5.219e-7, 4.302e-7
0.065, -9.542e-7, -5.222e-7, 4.320e-7
0.064, -9.579e-7, -5.234e-7, 4.345e-7
0.063, -9.588e-7, -5.258e-7, 4.330e-7
0.062, -9.634e-7, -5.277e-7, 4.357e-7
0.061, -9.622e-7, -5.268e-7, 4.354e-7
0.060, -9.640e-7, -5.283e-7, 4.357e-7
0.059, -9.689e-7, -5.322e-7, 4.366e-7
0.058, -9.698e-7, -5.310e-7, 4.388e-7
0.057, -9.695e-7, -5.322e-7, 4.372e-7
0.056, -9.728e-7, -5.338e-7, 4.391e-7
0.055, -9.747e-7, -5.338e-7, 4.409e-7
0.054, -9.756e-7, -5.362e-7, 4.394e-7
0.053, -9.789e-7, -5.384e-7, 4.406e-7
0.052, -9.823e-7, -5.387e-7, 4.436e-7
0.051, -9.823e-7, -5.402e-7, 4.421e-7
0.050, -9.863e-7, -5.408e-7, 4.455e-7
0.049, -9.893e-7, -5.426e-7, 4.467e-7
0.048, -9.884e-7, -5.432e-7, 4.452e-7
0.047, -9.951e-7, -5.478e-7, 4.473e-7
0.046, -9.948e-7, -5.457e-7, 4.491e-7
0.045, -9.963e-7, -5.478e-7, 4.485e-7
0.044, -1.000e-6, -5.496e-7, 4.504e-7
0.043, -1.002e-6, -5.499e-7, 4.525e-7
0.042, -1.004e-6, -5.518e-7, 4.522e-7
0.041, -1.008e-6, -5.539e-7, 4.540e-7
0.040, -1.008e-6, -5.527e-7, 4.555e-7
0.039, -1.010e-6, -5.561e-7, 4.537e-7
0.038, -1.014e-6, -5.573e-7, 4.571e-7
0.037, -1.016e-6, -5.585e-7, 4.571e-7
0.036, -1.016e-6, -5.588e-7, 4.577e-7
0.035, -1.020e-6, -5.606e-7, 4.592e-7
0.034, -1.021e-6, -5.612e-7, 4.601e-7
0.033, -1.022e-6, -5.628e-7, 4.589e-7
0.032, -1.027e-6, -5.652e-7, 4.616e-7
0.031, -1.029e-6, -5.652e-7, 4.635e-7
0.030, -1.032e-6, -5.686e-7, 4.632e-7
0.029, -1.034e-6, -5.689e-7, 4.650e-7
0.028, -1.037e-6, -5.710e-7, 4.662e-7
0.027, -1.038e-6, -5.719e-7, 4.662e-7
0.026, -1.040e-6, -5.741e-7, 4.662e-7
0.025, -1.044e-6, -5.734e-7, 4.708e-7
0.024, -1.046e-6, -5.768e-7, 4.696e-7
0.023, -1.050e-6, -5.789e-7, 4.711e-7
0.022, -1.049e-6, -5.774e-7, 4.720e-7
0.021, -1.051e-6, -5.795e-7, 4.717e-7
0.020, -1.056e-6, -5.811e-7, 4.745e-7
0.019, -1.059e-6, -5.832e-7, 4.760e-7
0.018, -1.060e-6, -5.844e-7, 4.760e-7
0.017, -1.063e-6, -5.853e-7, 4.772e-7
0.016, -1.066e-6, -5.866e-7, 4.790e-7
0.015, -1.069e-6, -5.893e-7, 4.797e-7
0.014, -1.071e-6, -5.902e-7, 4.806e-7
0.013, -1.074e-6, -5.905e-7, 4.830e-7
0.012, -1.077e-6, -5.942e-7, 4.830e-7
0.011, -1.078e-6, -5.948e-7, 4.830e-7
0.010, -1.081e-6, -5.957e-7, 4.858e-7
0.009, -1.081e-6, -5.963e-7, 4.845e-7
0.008, -1.086e-6, -6.000e-7, 4.861e-7
0.007, -1.088e-6, -5.991e-7, 4.891e-7
0.006, -1.092e-6, -6.012e-7, 4.903e-7
0.005, -1.093e-6, -6.027e-7, 4.900e-7
0.004, -1.098e-6, -6.043e-7, 4.940e-7
0.003, -1.097e-6, -6.049e-7, 4.922e-7
0.002, -1.103e-6, -6.076e-7, 4.952e-7
0.001, -1.103e-6, -6.079e-7, 4.955e-7
-0.000, -1.104e-6, -6.095e-7, 4.946e-7
-0.001, -1.109e-6, -6.107e-7, 4.980e-7
-0.002, -1.110e-6, -6.116e-7, 4.986e-7
-0.003, -1.110e-6, -6.125e-7, 4.970e-7
-0.004, -1.117e-6, -6.156e-7, 5.013e-7
-0.005, -1.120e-6, -6.162e-7, 5.038e-7
-0.006, -1.120e-6, -6.162e-7, 5.035e-7
-0.007, -1.124e-6, -6.195e-7, 5.041e-7
-0.008, -1.127e-6, -6.201e-7, 5.071e-7
-0.009, -1.128e-6, -6.226e-7, 5.056e-7
-0.010, -1.134e-6, -6.256e-7, 5.086e-7
-0.011, -1.136e-6, -6.250e-7, 5.108e-7
-0.012, -1.137e-6, -6.259e-7, 5.111e-7
-0.013, -1.143e-6, -6.293e-7, 5.132e-7
-0.014, -1.144e-6, -6.287e-7, 5.151e-7
-0.015, -1.144e-6, -6.311e-7, 5.129e-7
-0.016, -1.148e-6, -6.323e-7, 5.157e-7
-0.017, -1.149e-6, -6.314e-7, 5.178e-7
-0.018, -1.153e-6, -6.354e-7, 5.178e-7
-0.019, -1.155e-6, -6.357e-7, 5.196e-7
-0.020, -1.157e-6, -6.357e-7, 5.215e-7
-0.021, -1.162e-6, -6.397e-7, 5.227e-7
-0.022, -1.165e-6, -6.406e-7, 5.248e-7
-0.023, -1.165e-6, -6.400e-7, 5.254e-7
-0.024, -1.168e-6, -6.421e-7, 5.257e-7
-0.025, -1.171e-6, -6.449e-7, 5.263e-7
-0.026, -1.173e-6, -6.439e-7, 5.291e-7
-0.027, -1.175e-6, -6.458e-7, 5.297e-7
-0.028, -1.179e-6, -6.485e-7, 5.303e-7
-0.029, -1.180e-6, -6.485e-7, 5.318e-7
-0.030, -1.185e-6, -6.510e-7, 5.337e-7
-0.031, -1.185e-6, -6.516e-7, 5.337e-7
-0.032, -1.189e-6, -6.510e-7, 5.379e-7
-0.033, -1.191e-6, -6.546e-7, 5.367e-7
-0.034, -1.194e-6, -6.549e-7, 5.389e-7
-0.035, -1.197e-6, -6.568e-7, 5.398e-7
-0.036, -1.197e-6, -6.580e-7, 5.395e-7
-0.037, -1.202e-6, -6.592e-7, 5.431e-7
-0.038, -1.204e-6, -6.598e-7, 5.437e-7
-0.039, -1.205e-6, -6.607e-7, 5.447e-7
-0.040, -1.210e-6, -6.632e-7, 5.465e-7
-0.041, -1.211e-6, -6.632e-7, 5.483e-7
-0.042, -1.211e-6, -6.635e-7, 5.480e-7
-0.043, -1.219e-6, -6.684e-7, 5.508e-7
-0.044, -1.218e-6, -6.665e-7, 5.517e-7
-0.045, -1.220e-6, -6.690e-7, 5.514e-7
-0.046, -1.226e-6, -6.705e-7, 5.550e-7
-0.047, -1.226e-6, -6.699e-7, 5.559e-7
-0.048, -1.227e-6, -6.711e-7, 5.556e-7
-0.049, -1.232e-6, -6.732e-7, 5.587e-7
-0.050, -1.231e-6, -6.720e-7, 5.590e-7
-0.051, -1.235e-6, -6.751e-7, 5.596e-7
-0.052, -1.238e-6, -6.763e-7, 5.620e-7
-0.053, -1.239e-6, -6.748e-7, 5.639e-7
-0.054, -1.242e-6, -6.784e-7, 5.633e-7
-0.055, -1.246e-6, -6.812e-7, 5.651e-7
-0.056, -1.245e-6, -6.778e-7, 5.672e-7
-0.057, -1.249e-6, -6.815e-7, 5.675e-7
-0.058, -1.251e-6, -6.821e-7, 5.694e-7
-0.059, -1.254e-6, -6.836e-7, 5.706e-7
-0.060, -1.257e-6, -6.851e-7, 5.718e-7
-0.061, -1.259e-6, -6.861e-7, 5.730e-7
-0.062, -1.261e-6, -6.851e-7, 5.755e-7
-0.063, -1.264e-6, -6.885e-7, 5.752e-7
-0.064, -1.266e-6, -6.891e-7, 5.770e-7
-0.065, -1.267e-6, -6.891e-7, 5.782e-7
-0.066, -1.265e-6, -6.879e-7, 5.773e-7
-0.067, -1.271e-6, -6.906e-7, 5.807e-7
-0.068, -1.274e-6, -6.915e-7, 5.828e-7
-0.069, -1.274e-6, -6.922e-7, 5.819e-7
-0.070, -1.279e-6, -6.934e-7, 5.852e-7
-0.071, -1.279e-6, -6.931e-7, 5.862e-7
-0.072, -1.280e-6, -6.943e-7, 5.852e-7
-0.073, -1.282e-6, -6.955e-7, 5.865e-7
-0.074, -1.286e-6, -6.964e-7, 5.895e-7
-0.075, -1.285e-6, -6.961e-7, 5.889e-7
-0.076, -1.289e-6, -6.967e-7, 5.920e-7
-0.077, -1.290e-6, -6.973e-7, 5.926e-7
-0.078, -1.291e-6, -6.980e-7, 5.929e-7
-0.079, -1.295e-6, -7.004e-7, 5.947e-7
-0.080, -1.297e-6, -6.998e-7, 5.968e-7
-0.081, -1.298e-6, -7.019e-7, 5.956e-7
-0.082, -1.299e-6, -7.007e-7, 5.984e-7
-0.083, -1.303e-6, -7.022e-7, 6.008e-7
-0.084, -1.305e-6, -7.031e-7, 6.017e-7
-0.085, -1.308e-6, -7.056e-7, 6.023e-7
-0.086, -1.307e-6, -7.034e-7, 6.035e-7
-0.087, -1.309e-6, -7.056e-7, 6.035e-7
-0.088, -1.312e-6, -7.053e-7, 6.063e-7
-0.089, -1.312e-6, -7.044e-7, 6.078e-7
-0.090, -1.312e-6, -7.056e-7, 6.063e-7
-0.091, -1.315e-6, -7.065e-7, 6.084e-7
-0.092, -1.316e-6, -7.050e-7, 6.109e-7
-0.093, -1.317e-6, -7.074e-7, 6.096e-7
-0.094, -1.320e-6, -7.089e-7, 6.112e-7
-0.095, -1.320e-6, -7.065e-7, 6.130e-7
-0.096, -1.321e-6, -7.086e-7, 6.127e-7
-0.097, -1.327e-6, -7.117e-7, 6.148e-7
-0.098, -1.324e-6, -7.089e-7, 6.154e-7
-0.099, -1.327e-6, -7.108e-7, 6.161e-7
-0.100, -1.330e-6, -7.108e-7, 6.194e-7
-0.101, -1.330e-6, -7.105e-7, 6.191e-7
-0.102, -1.328e-6, -7.089e-7, 6.191e-7
-0.103, -1.334e-6, -7.120e-7, 6.219e-7
-0.104, -1.332e-6, -7.111e-7, 6.209e-7
-0.105, -1.333e-6, -7.117e-7, 6.216e-7
-0.106, -1.336e-6, -7.114e-7, 6.246e-7
-0.107, -1.337e-6, -7.117e-7, 6.255e-7
-0.108, -1.336e-6, -7.117e-7, 6.246e-7
-0.109, -1.338e-6, -7.126e-7, 6.258e-7
-0.110, -1.340e-6, -7.114e-7, 6.286e-7
-0.111, -1.339e-6, -7.120e-7, 6.273e-7
-0.112, -1.342e-6, -7.126e-7, 6.298e-7
-0.113, -1.343e-6, -7.117e-7, 6.316e-7
-0.114, -1.342e-6, -7.117e-7, 6.304e-7
-0.115, -1.345e-6, -7.129e-7, 6.316e-7
-0.116, -1.347e-6, -7.120e-7, 6.347e-7
-0.117, -1.347e-6, -7.132e-7, 6.338e-7
-0.118, -1.350e-6, -7.144e-7, 6.359e-7
-0.119, -1.348e-6, -7.120e-7, 6.362e-7
-0.120, -1.350e-6, -7.132e-7, 6.365e-7
-0.121, -1.349e-6, -7.129e-7, 6.362e-7
-0.122, -1.349e-6, -7.111e-7, 6.383e-7
-0.123, -1.350e-6, -7.132e-7, 6.371e-7
-0.124, -1.353e-6, -7.129e-7, 6.402e-7
-0.125, -1.350e-6, -7.105e-7, 6.392e-7
-0.126, -1.351e-6, -7.114e-7, 6.392e-7
-0.127, -1.354e-6, -7.132e-7, 6.405e-7
-0.128, -1.355e-6, -7.123e-7, 6.423e-7
-0.129, -1.356e-6, -7.126e-7, 6.429e-7
-0.130, -1.356e-6, -7.120e-7, 6.435e-7
-0.131, -1.356e-6, -7.108e-7, 6.447e-7
-0.132, -1.355e-6, -7.114e-7, 6.435e-7
-0.133, -1.356e-6, -7.102e-7, 6.460e-7
-0.134, -1.356e-6, -7.095e-7, 6.469e-7
-0.135, -1.358e-6, -7.120e-7, 6.463e-7
-0.136, -1.357e-6, -7.102e-7, 6.469e-7
-0.137, -1.358e-6, -7.095e-7, 6.487e-7
-0.138, -1.359e-6, -7.111e-7, 6.484e-7
-0.139, -1.360e-6, -7.111e-7, 6.487e-7
-0.140, -1.358e-6, -7.074e-7, 6.508e-7
-0.141, -1.358e-6, -7.092e-7, 6.484e-7
-0.142, -1.360e-6, -7.105e-7, 6.493e-7
-0.143, -1.359e-6, -7.074e-7, 6.521e-7
-0.144, -1.358e-6, -7.071e-7, 6.512e-7
-0.145, -1.359e-6, -7.074e-7, 6.518e-7
-0.146, -1.360e-6, -7.062e-7, 6.542e-7
-0.147, -1.359e-6, -7.071e-7, 6.518e-7
-0.148, -1.359e-6, -7.062e-7, 6.533e-7
-0.149, -1.360e-6, -7.059e-7, 6.542e-7
-0.150, -1.359e-6, -7.059e-7, 6.533e-7
-0.151, -1.362e-6, -7.074e-7, 6.542e-7
-0.152, -1.360e-6, -7.050e-7, 6.548e-7
-0.153, -1.357e-6, -7.053e-7, 6.521e-7
-0.154, -1.359e-6, -7.038e-7, 6.551e-7
-0.155, -1.358e-6, -7.016e-7, 6.560e-7
-0.156, -1.358e-6, -7.019e-7, 6.557e-7
-0.157, -1.357e-6, -7.013e-7, 6.560e-7
-0.158, -1.360e-6, -7.013e-7, 6.588e-7
-0.159, -1.357e-6, -7.007e-7, 6.566e-7
-0.160, -1.357e-6, -7.010e-7, 6.560e-7
-0.161, -1.357e-6, -6.983e-7, 6.585e-7
-0.162, -1.355e-6, -6.983e-7, 6.566e-7
-0.163, -1.356e-6, -6.986e-7, 6.579e-7
-0.164, -1.355e-6, -6.961e-7, 6.588e-7
-0.165, -1.354e-6, -6.970e-7, 6.573e-7
-0.166, -1.356e-6, -6.973e-7, 6.585e-7
-0.167, -1.353e-6, -6.949e-7, 6.582e-7
-0.168, -1.352e-6, -6.952e-7, 6.563e-7
-0.169, -1.353e-6, -6.946e-7, 6.588e-7
-0.170, -1.354e-6, -6.949e-7, 6.594e-7
-0.171, -1.349e-6, -6.937e-7, 6.557e-7
-0.172, -1.353e-6, -6.940e-7, 6.591e-7
-0.173, -1.352e-6, -6.922e-7, 6.597e-7
-0.174, -1.350e-6, -6.915e-7, 6.582e-7
-0.175, -1.351e-6, -6.915e-7, 6.597e-7
-0.176, -1.348e-6, -6.888e-7, 6.594e-7
-0.177, -1.348e-6, -6.900e-7, 6.582e-7
-0.178, -1.347e-6, -6.888e-7, 6.585e-7
-0.179, -1.347e-6, -6.873e-7, 6.600e-7
-0.180, -1.345e-6, -6.861e-7, 6.585e-7
-0.181, -1.346e-6, -6.882e-7, 6.579e-7
-0.182, -1.346e-6, -6.873e-7, 6.585e-7
-0.183, -1.344e-6, -6.867e-7, 6.576e-7
-0.184, -1.344e-6, -6.848e-7, 6.591e-7
-0.185, -1.340e-6, -6.824e-7, 6.576e-7
-0.186, -1.341e-6, -6.842e-7, 6.569e-7
-0.187, -1.340e-6, -6.836e-7, 6.563e-7
-0.188, -1.340e-6, -6.815e-7, 6.582e-7
-0.189, -1.338e-6, -6.803e-7, 6.573e-7
-0.190, -1.338e-6, -6.809e-7, 6.569e-7
-0.191, -1.334e-6, -6.778e-7, 6.563e-7
-0.192, -1.334e-6, -6.775e-7, 6.566e-7
-0.193, -1.335e-6, -6.796e-7, 6.557e-7
-0.194, -1.337e-6, -6.772e-7, 6.594e-7
-0.195, -1.329e-6, -6.754e-7, 6.539e-7
-0.196, -1.332e-6, -6.754e-7, 6.566e-7
-0.197, -1.328e-6, -6.732e-7, 6.551e-7
-0.198, -1.327e-6, -6.726e-7, 6.545e-7
-0.199, -1.330e-6, -6.745e-7, 6.551e-7
-0.200, -1.326e-6, -6.714e-7, 6.548e-7
-0.201, -1.324e-6, -6.717e-7, 6.521e-7
-0.202, -1.325e-6, -6.705e-7, 6.542e-7
-0.203, -1.324e-6, -6.699e-7, 6.542e-7
-0.204, -1.320e-6, -6.690e-7, 6.515e-7
-0.205, -1.323e-6, -6.693e-7, 6.533e-7
-0.206, -1.322e-6, -6.665e-7, 6.551e-7
-0.207, -1.318e-6, -6.659e-7, 6.521e-7
-0.208, -1.319e-6, -6.671e-7, 6.515e-7
-0.209, -1.317e-6, -6.647e-7, 6.524e-7
-0.210, -1.314e-6, -6.638e-7, 6.499e-7
-0.211, -1.315e-6, -6.650e-7, 6.499e-7
-0.212, -1.314e-6, -6.632e-7, 6.512e-7
-0.213, -1.310e-6, -6.622e-7, 6.478e-7
-0.214, -1.310e-6, -6.622e-7, 6.481e-7
-0.215, -1.307e-6, -6.586e-7, 6.487e-7
-0.216, -1.306e-6, -6.589e-7, 6.475e-7
-0.217, -1.308e-6, -6.595e-7, 6.484e-7
-0.218, -1.307e-6, -6.580e-7, 6.490e-7
-0.219, -1.304e-6, -6.574e-7, 6.463e-7
-0.220, -1.302e-6, -6.565e-7, 6.460e-7
-0.221, -1.299e-6, -6.543e-7, 6.447e-7
-0.222, -1.298e-6, -6.540e-7, 6.441e-7
-0.223, -1.298e-6, -6.546e-7, 6.438e-7
-0.224, -1.297e-6, -6.519e-7, 6.447e-7
-0.225, -1.294e-6, -6.534e-7, 6.411e-7
-0.226, -1.296e-6, -6.537e-7, 6.423e-7
-0.227, -1.292e-6, -6.488e-7, 6.435e-7
-0.228, -1.292e-6, -6.513e-7, 6.411e-7
-0.229, -1.293e-6, -6.510e-7, 6.417e-7
-0.230, -1.289e-6, -6.482e-7, 6.408e-7
-0.231, -1.286e-6, -6.479e-7, 6.383e-7
-0.232, -1.287e-6, -6.479e-7, 6.389e-7
-0.233, -1.285e-6, -6.461e-7, 6.389e-7
-0.234, -1.283e-6, -6.464e-7, 6.371e-7
-0.235, -1.283e-6, -6.461e-7, 6.371e-7
-0.236, -1.284e-6, -6.455e-7, 6.383e-7
-0.237, -1.280e-6, -6.446e-7, 6.353e-7
-0.238, -1.282e-6, -6.455e-7, 6.362e-7
-0.239, -1.276e-6, -6.424e-7, 6.341e-7
-0.240, -1.274e-6, -6.421e-7, 6.319e-7
-0.241, -1.277e-6, -6.436e-7, 6.331e-7
-0.242, -1.274e-6, -6.406e-7, 6.335e-7
-0.243, -1.270e-6, -6.397e-7, 6.307e-7
-0.244, -1.272e-6, -6.406e-7, 6.310e-7
-0.245, -1.271e-6, -6.394e-7, 6.319e-7
-0.246, -1.269e-6, -6.400e-7, 6.286e-7
-0.247, -1.268e-6, -6.394e-7, 6.283e-7
-0.248, -1.267e-6, -6.375e-7, 6.292e-7
-0.249, -1.263e-6, -6.363e-7, 6.267e-7
-0.250, -1.264e-6, -6.369e-7, 6.267e-7
-0.251, -1.263e-6, -6.354e-7, 6.277e-7
-0.252, -1.260e-6, -6.357e-7, 6.246e-7
-0.253, -1.258e-6, -6.345e-7, 6.237e-7
-0.254, -1.258e-6, -6.345e-7, 6.237e-7
-0.255, -1.256e-6, -6.336e-7, 6.228e-7
-0.256, -1.254e-6, -6.336e-7, 6.206e-7
-0.257, -1.255e-6, -6.314e-7, 6.234e-7
-0.258, -1.253e-6, -6.323e-7, 6.203e-7
-0.259, -1.253e-6, -6.311e-7, 6.222e-7
-0.260, -1.249e-6, -6.290e-7, 6.200e-7
-0.261, -1.248e-6, -6.308e-7, 6.176e-7
-0.262, -1.248e-6, -6.299e-7, 6.182e-7
-0.263, -1.248e-6, -6.296e-7, 6.182e-7
-0.264, -1.244e-6, -6.284e-7, 6.158e-7
-0.265, -1.244e-6, -6.287e-7, 6.154e-7
-0.266, -1.244e-6, -6.272e-7, 6.170e-7
-0.267, -1.241e-6, -6.275e-7, 6.136e-7
-0.268, -1.241e-6, -6.269e-7, 6.142e-7
-0.269, -1.237e-6, -6.253e-7, 6.118e-7
-0.270, -1.237e-6, -6.253e-7, 6.115e-7
-0.271, -1.237e-6, -6.265e-7, 6.103e-7
-0.272, -1.235e-6, -6.241e-7, 6.112e-7
-0.273, -1.235e-6, -6.250e-7, 6.100e-7
-0.274, -1.233e-6, -6.244e-7, 6.090e-7
-0.275, -1.232e-6, -6.235e-7, 6.084e-7
-0.276, -1.229e-6, -6.226e-7, 6.069e-7
-0.277, -1.233e-6, -6.259e-7, 6.066e-7
-0.278, -1.229e-6, -6.211e-7, 6.081e-7
-0.279, -1.228e-6, -6.226e-7, 6.054e-7
-0.280, -1.227e-6, -6.244e-7, 6.026e-7
-0.281, -1.225e-6, -6.214e-7, 6.038e-7
-0.282, -1.222e-6, -6.192e-7, 6.023e-7
-0.283, -1.224e-6, -6.214e-7, 6.023e-7
-0.284, -1.222e-6, -6.189e-7, 6.026e-7
-0.285, -1.221e-6, -6.204e-7, 6.002e-7
-0.286, -1.221e-6, -6.214e-7, 5.996e-7
-0.287, -1.218e-6, -6.177e-7, 5.999e-7
-0.288, -1.216e-6, -6.195e-7, 5.968e-7
-0.289, -1.218e-6, -6.201e-7, 5.984e-7
-0.290, -1.218e-6, -6.186e-7, 5.990e-7
-0.291, -1.214e-6, -6.180e-7, 5.956e-7
-0.292, -1.215e-6, -6.192e-7, 5.956e-7
-0.293, -1.214e-6, -6.180e-7, 5.962e-7
-0.294, -1.214e-6, -6.180e-7, 5.962e-7
-0.295, -1.212e-6, -6.192e-7, 5.929e-7
-0.296, -1.207e-6, -6.146e-7, 5.919e-7
-0.297, -1.208e-6, -6.165e-7, 5.910e-7
-0.298, -1.208e-6, -6.174e-7, 5.907e-7
-0.299, -1.208e-6, -6.165e-7, 5.910e-7
-0.300, -1.206e-6, -6.174e-7, 5.883e-7
-0.301, -1.205e-6, -6.168e-7, 5.883e-7
-0.302, -1.204e-6, -6.156e-7, 5.883e-7
-0.303, -1.203e-6, -6.162e-7, 5.871e-7
-0.304, -1.203e-6, -6.168e-7, 5.865e-7
-0.305, -1.201e-6, -6.150e-7, 5.865e-7
-0.306, -1.199e-6, -6.153e-7, 5.840e-7
-0.307, -1.202e-6, -6.159e-7, 5.862e-7
-0.308, -1.200e-6, -6.140e-7, 5.865e-7
-0.309, -1.196e-6, -6.122e-7, 5.837e-7
-0.310, -1.198e-6, -6.153e-7, 5.831e-7
-0.311, -1.197e-6, -6.131e-7, 5.837e-7
-0.312, -1.195e-6, -6.146e-7, 5.807e-7
-0.313, -1.195e-6, -6.156e-7, 5.797e-7
-0.314, -1.195e-6, -6.140e-7, 5.807e-7
-0.315, -1.191e-6, -6.131e-7, 5.779e-7
-0.316, -1.194e-6, -6.156e-7, 5.785e-7
-0.317, -1.190e-6, -6.116e-7, 5.785e-7
-0.318, -1.190e-6, -6.140e-7, 5.761e-7
-0.319, -1.193e-6, -6.156e-7, 5.773e-7
-0.320, -1.191e-6, -6.137e-7, 5.770e-7
-0.321, -1.188e-6, -6.140e-7, 5.742e-7
-0.322, -1.191e-6, -6.159e-7, 5.752e-7
-0.323, -1.187e-6, -6.107e-7, 5.761e-7
-0.324, -1.186e-6, -6.128e-7, 5.730e-7
-0.325, -1.188e-6, -6.150e-7, 5.727e-7
-0.326, -1.185e-6, -6.116e-7, 5.736e-7
-0.327, -1.182e-6, -6.119e-7, 5.703e-7
-0.328, -1.184e-6, -6.137e-7, 5.703e-7
-0.329, -1.183e-6, -6.119e-7, 5.709e-7
-0.330, -1.180e-6, -6.119e-7, 5.681e-7
-0.331, -1.182e-6, -6.140e-7, 5.681e-7
-0.332, -1.182e-6, -6.104e-7, 5.715e-7
-0.333, -1.180e-6, -6.125e-7, 5.672e-7
-0.334, -1.180e-6, -6.122e-7, 5.675e-7
-0.335, -1.181e-6, -6.125e-7, 5.681e-7
-0.336, -1.178e-6, -6.122e-7, 5.654e-7
-0.337, -1.177e-6, -6.113e-7, 5.654e-7
-0.338, -1.176e-6, -6.107e-7, 5.657e-7
-0.339, -1.176e-6, -6.113e-7, 5.648e-7
-0.340, -1.177e-6, -6.134e-7, 5.633e-7
-0.341, -1.179e-6, -6.116e-7, 5.669e-7
-0.342, -1.174e-6, -6.128e-7, 5.614e-7
-0.343, -1.174e-6, -6.116e-7, 5.623e-7
-0.344, -1.173e-6, -6.113e-7, 5.620e-7
-0.345, -1.172e-6, -6.116e-7, 5.599e-7
-0.346, -1.173e-6, -6.131e-7, 5.602e-7
-0.347, -1.170e-6, -6.104e-7, 5.599e-7
-0.348, -1.169e-6, -6.101e-7, 5.590e-7
-0.349, -1.172e-6, -6.137e-7, 5.581e-7
-0.350, -1.170e-6, -6.098e-7, 5.599e-7
-0.351, -1.168e-6, -6.110e-7, 5.569e-7
-0.352, -1.169e-6, -6.122e-7, 5.565e-7
-0.353, -1.167e-6, -6.095e-7, 5.578e-7
-0.354, -1.168e-6, -6.122e-7, 5.556e-7
-0.355, -1.167e-6, -6.119e-7, 5.553e-7
-0.356, -1.167e-6, -6.113e-7, 5.556e-7
-0.357, -1.165e-6, -6.104e-7, 5.550e-7
-0.358, -1.164e-6, -6.113e-7, 5.529e-7
-0.359, -1.166e-6, -6.098e-7, 5.562e-7
-0.360, -1.164e-6, -6.110e-7, 5.529e-7
-0.361, -1.165e-6, -6.125e-7, 5.529e-7
-0.362, -1.165e-6, -6.116e-7, 5.538e-7
-0.363, -1.163e-6, -6.104e-7, 5.526e-7
-0.364, -1.162e-6, -6.116e-7, 5.508e-7
-0.365, -1.163e-6, -6.110e-7, 5.517e-7
-0.366, -1.161e-6, -6.122e-7, 5.492e-7
-0.367, -1.162e-6, -6.122e-7, 5.498e-7
-0.368, -1.161e-6, -6.116e-7, 5.489e-7
-0.369, -1.157e-6, -6.101e-7, 5.474e-7
-0.370, -1.160e-6, -6.122e-7, 5.474e-7
-0.371, -1.160e-6, -6.107e-7, 5.495e-7
-0.372, -1.160e-6, -6.122e-7, 5.480e-7
-0.373, -1.160e-6, -6.116e-7, 5.480e-7
-0.374, -1.158e-6, -6.101e-7, 5.483e-7
-0.375, -1.157e-6, -6.110e-7, 5.459e-7
-0.376, -1.159e-6, -6.119e-7, 5.471e-7
-0.377, -1.156e-6, -6.088e-7, 5.468e-7
-0.378, -1.155e-6, -6.119e-7, 5.434e-7
-0.379, -1.157e-6, -6.122e-7, 5.453e-7
-0.380, -1.158e-6, -6.116e-7, 5.462e-7
-0.381, -1.152e-6, -6.107e-7, 5.413e-7
-0.382, -1.154e-6, -6.119e-7, 5.419e-7
-0.383, -1.154e-6, -6.098e-7, 5.446e-7
-0.384, -1.153e-6, -6.113e-7, 5.422e-7
-0.385, -1.153e-6, -6.116e-7, 5.419e-7
-0.386, -1.152e-6, -6.101e-7, 5.419e-7
-0.387, -1.154e-6, -6.128e-7, 5.410e-7
-0.388, -1.155e-6, -6.143e-7, 5.404e-7
-0.389, -1.151e-6, -6.104e-7, 5.410e-7
-0.390, -1.149e-6, -6.098e-7, 5.389e-7
-0.391, -1.151e-6, -6.107e-7, 5.404e-7
-0.392, -1.151e-6, -6.104e-7, 5.410e-7
-0.393, -1.149e-6, -6.101e-7, 5.389e-7
-0.394, -1.150e-6, -6.116e-7, 5.385e-7
-0.395, -1.151e-6, -6.104e-7, 5.404e-7
-0.396, -1.148e-6, -6.113e-7, 5.367e-7
-0.397, -1.151e-6, -6.125e-7, 5.385e-7
-0.398, -1.150e-6, -6.101e-7, 5.401e-7
-0.399, -1.148e-6, -6.107e-7, 5.370e-7
-0.400, -1.149e-6, -6.119e-7, 5.370e-7
-0.401, -1.146e-6, -6.098e-7, 5.361e-7
-0.402, -1.147e-6, -6.122e-7, 5.346e-7
-0.403, -1.149e-6, -6.134e-7, 5.355e-7
-0.404, -1.148e-6, -6.113e-7, 5.370e-7
-0.405, -1.144e-6, -6.104e-7, 5.334e-7
-0.406, -1.147e-6, -6.134e-7, 5.334e-7
-0.407, -1.146e-6, -6.101e-7, 5.364e-7
-0.408, -1.146e-6, -6.122e-7, 5.334e-7
-0.409, -1.148e-6, -6.122e-7, 5.355e-7
-0.410, -1.146e-6, -6.113e-7, 5.346e-7
-0.411, -1.143e-6, -6.110e-7, 5.315e-7
-0.412, -1.143e-6, -6.116e-7, 5.318e-7
-0.413, -1.144e-6, -6.104e-7, 5.340e-7
-0.414, -1.144e-6, -6.110e-7, 5.331e-7
-0.415, -1.143e-6, -6.119e-7, 5.312e-7
-0.416, -1.143e-6, -6.095e-7, 5.331e-7
-0.417, -1.139e-6, -6.104e-7, 5.291e-7
-0.418, -1.143e-6, -6.131e-7, 5.294e-7
-0.419, -1.142e-6, -6.113e-7, 5.303e-7
-0.420, -1.139e-6, -6.107e-7, 5.288e-7
-0.421, -1.141e-6, -6.107e-7, 5.300e-7
-0.422, -1.141e-6, -6.110e-7, 5.303e-7
-0.423, -1.139e-6, -6.107e-7, 5.282e-7
-0.424, -1.141e-6, -6.125e-7, 5.282e-7
-0.425, -1.140e-6, -6.107e-7, 5.297e-7
-0.426, -1.139e-6, -6.119e-7, 5.276e-7
-0.427, -1.139e-6, -6.122e-7, 5.269e-7
-0.428, -1.138e-6, -6.092e-7, 5.285e-7
-0.429, -1.138e-6, -6.119e-7, 5.257e-7
-0.430, -1.140e-6, -6.137e-7, 5.260e-7
-0.431, -1.138e-6, -6.104e-7, 5.279e-7
-0.432, -1.136e-6, -6.107e-7, 5.251e-7
-0.433, -1.136e-6, -6.119e-7, 5.242e-7
-0.434, -1.137e-6, -6.107e-7, 5.260e-7
-0.435, -1.137e-6, -6.122e-7, 5.251e-7
-0.436, -1.136e-6, -6.110e-7, 5.251e-7
-0.437, -1.134e-6, -6.098e-7, 5.239e-7
-0.438, -1.136e-6, -6.119e-7, 5.239e-7
-0.439, -1.136e-6, -6.131e-7, 5.227e-7
-0.440, -1.135e-6, -6.107e-7, 5.242e-7
-0.441, -1.133e-6, -6.107e-7, 5.221e-7
-0.442, -1.136e-6, -6.131e-7, 5.230e-7
-0.443, -1.134e-6, -6.104e-7, 5.233e-7
-0.444, -1.133e-6, -6.110e-7, 5.224e-7
-0.445, -1.134e-6, -6.116e-7, 5.221e-7
-0.446, -1.134e-6, -6.113e-7, 5.227e-7
-0.447, -1.128e-6, -6.088e-7, 5.193e-7
-0.448, -1.132e-6, -6.116e-7, 5.208e-7
-0.449, -1.132e-6, -6.101e-7, 5.221e-7
-0.450, -1.131e-6, -6.101e-7, 5.208e-7
-0.451, -1.132e-6, -6.128e-7, 5.196e-7
-0.452, -1.132e-6, -6.104e-7, 5.218e-7
-0.453, -1.129e-6, -6.113e-7, 5.181e-7
-0.454, -1.132e-6, -6.119e-7, 5.205e-7
-0.455, -1.129e-6, -6.095e-7, 5.199e-7
-0.456, -1.128e-6, -6.119e-7, 5.163e-7
-0.457, -1.129e-6, -6.104e-7, 5.184e-7
-0.458, -1.128e-6, -6.098e-7, 5.181e-7
-0.459, -1.128e-6, -6.113e-7, 5.166e-7
-0.460, -1.128e-6, -6.119e-7, 5.160e-7
-0.461, -1.128e-6, -6.098e-7, 5.178e-7
-0.462, -1.127e-6, -6.110e-7, 5.160e-7
-0.463, -1.127e-6, -6.113e-7, 5.157e-7
-0.464, -1.126e-6, -6.085e-7, 5.175e-7
-0.465, -1.128e-6, -6.113e-7, 5.169e-7
-0.466, -1.128e-6, -6.119e-7, 5.160e-7
-0.467, -1.127e-6, -6.110e-7, 5.163e-7
-0.468, -1.125e-6, -6.110e-7, 5.144e-7
-0.469, -1.126e-6, -6.119e-7, 5.144e-7
-0.470, -1.124e-6, -6.092e-7, 5.150e-7
-0.471, -1.122e-6, -6.095e-7, 5.123e-7
-0.472, -1.125e-6, -6.113e-7, 5.135e-7
-0.473, -1.124e-6, -6.107e-7, 5.129e-7
-0.474, -1.123e-6, -6.104e-7, 5.129e-7
-0.475, -1.122e-6, -6.107e-7, 5.114e-7
-0.476, -1.123e-6, -6.107e-7, 5.126e-7
-0.477, -1.121e-6, -6.110e-7, 5.105e-7
-0.478, -1.125e-6, -6.128e-7, 5.123e-7
-0.479, -1.121e-6, -6.101e-7, 5.105e-7
-0.480, -1.121e-6, -6.113e-7, 5.096e-7
-0.481, -1.124e-6, -6.128e-7, 5.111e-7
-0.482, -1.121e-6, -6.104e-7, 5.108e-7
-0.483, -1.121e-6, -6.110e-7, 5.099e-7
-0.484, -1.121e-6, -6.116e-7, 5.092e-7
-0.485, -1.118e-6, -6.104e-7, 5.080e-7
-0.486, -1.118e-6, -6.113e-7, 5.065e-7
-0.487, -1.119e-6, -6.119e-7, 5.071e-7
-0.488, -1.118e-6, -6.098e-7, 5.080e-7
-0.489, -1.116e-6, -6.101e-7, 5.059e-7
-0.490, -1.118e-6, -6.110e-7, 5.071e-7
-0.491, -1.118e-6, -6.104e-7, 5.074e-7
-0.492, -1.114e-6, -6.101e-7, 5.038e-7
-0.493, -1.117e-6, -6.119e-7, 5.053e-7
-0.494, -1.116e-6, -6.101e-7, 5.059e-7
-0.495, -1.113e-6, -6.095e-7, 5.035e-7
-0.496, -1.114e-6, -6.107e-7, 5.038e-7
-0.497, -1.114e-6, -6.098e-7, 5.047e-7
-0.498, -1.114e-6, -6.088e-7, 5.050e-7
-0.499, -1.115e-6, -6.113e-7, 5.035e-7
-0.500, -1.114e-6, -6.098e-7, 5.044e-7
-0.501, -1.112e-6, -6.110e-7, 5.010e-7
-0.502, -1.114e-6, -6.122e-7, 5.013e-7
-0.503, -1.110e-6, -6.098e-7, 5.007e-7
-0.504, -1.110e-6, -6.095e-7, 5.007e-7
-0.505, -1.112e-6, -6.116e-7, 5.001e-7
-0.506, -1.113e-6, -6.107e-7, 5.019e-7
-0.507, -1.110e-6, -6.101e-7, 4.998e-7
-0.508, -1.111e-6, -6.119e-7, 4.992e-7
-0.509, -1.111e-6, -6.101e-7, 5.013e-7
-0.510, -1.108e-6, -6.095e-7, 4.983e-7
-0.511, -1.109e-6, -6.125e-7, 4.964e-7
-0.512, -1.109e-6, -6.107e-7, 4.983e-7
-0.513, -1.105e-6, -6.085e-7, 4.961e-7
-0.514, -1.109e-6, -6.131e-7, 4.961e-7
-0.515, -1.107e-6, -6.098e-7, 4.970e-7
-0.516, -1.104e-6, -6.101e-7, 4.943e-7
-0.517, -1.105e-6, -6.098e-7, 4.949e-7
-0.518, -1.104e-6, -6.082e-7, 4.961e-7
-0.519, -1.104e-6, -6.107e-7, 4.931e-7
-0.520, -1.104e-6, -6.116e-7, 4.928e-7
-0.521, -1.103e-6, -6.089e-7, 4.940e-7
-0.522, -1.102e-6, -6.107e-7, 4.915e-7
-0.523, -1.104e-6, -6.116e-7, 4.922e-7
-0.524, -1.102e-6, -6.101e-7, 4.922e-7
-0.525, -1.100e-6, -6.095e-7, 4.903e-7
-0.526, -1.102e-6, -6.122e-7, 4.900e-7
-0.527, -1.103e-6, -6.107e-7, 4.919e-7
-0.528, -1.099e-6, -6.110e-7, 4.885e-7
-0.529, -1.099e-6, -6.113e-7, 4.882e-7
-0.530, -1.099e-6, -6.104e-7, 4.891e-7
-0.531, -1.097e-6, -6.107e-7, 4.864e-7
-0.532, -1.099e-6, -6.110e-7, 4.879e-7
-0.533, -1.097e-6, -6.085e-7, 4.882e-7
-0.534, -1.097e-6, -6.110e-7, 4.864e-7
-0.535, -1.097e-6, -6.119e-7, 4.854e-7
-0.536, -1.096e-6, -6.098e-7, 4.867e-7
-0.537, -1.096e-6, -6.101e-7, 4.861e-7
-0.538, -1.095e-6, -6.119e-7, 4.830e-7
-0.539, -1.095e-6, -6.101e-7, 4.848e-7
-0.540, -1.093e-6, -6.110e-7, 4.821e-7
-0.541, -1.094e-6, -6.119e-7, 4.821e-7
-0.542, -1.095e-6, -6.119e-7, 4.830e-7
-0.543, -1.092e-6, -6.113e-7, 4.803e-7
-0.544, -1.094e-6, -6.119e-7, 4.821e-7
-0.545, -1.095e-6, -6.119e-7, 4.833e-7
-0.546, -1.091e-6, -6.116e-7, 4.790e-7
-0.547, -1.091e-6, -6.119e-7, 4.787e-7
-0.548, -1.089e-6, -6.104e-7, 4.790e-7
-0.549, -1.090e-6, -6.116e-7, 4.781e-7
-0.550, -1.089e-6, -6.122e-7, 4.766e-7
-0.551, -1.089e-6, -6.110e-7, 4.784e-7
-0.552, -1.084e-6, -6.095e-7, 4.745e-7
-0.553, -1.086e-6, -6.110e-7, 4.754e-7
-0.554, -1.088e-6, -6.113e-7, 4.763e-7
-0.555, -1.083e-6, -6.101e-7, 4.726e-7
-0.556, -1.086e-6, -6.113e-7, 4.751e-7
-0.557, -1.086e-6, -6.116e-7, 4.745e-7
-0.558, -1.082e-6, -6.122e-7, 4.699e-7
-0.559, -1.083e-6, -6.119e-7, 4.711e-7
-0.560, -1.084e-6, -6.113e-7, 4.723e-7
-0.561, -1.081e-6, -6.116e-7, 4.699e-7
-0.562, -1.083e-6, -6.119e-7, 4.714e-7
-0.563, -1.083e-6, -6.116e-7, 4.711e-7
-0.564, -1.080e-6, -6.116e-7, 4.681e-7
-0.565, -1.080e-6, -6.131e-7, 4.671e-7
-0.566, -1.081e-6, -6.113e-7, 4.702e-7
-0.567, -1.078e-6, -6.119e-7, 4.665e-7
-0.568, -1.081e-6, -6.153e-7, 4.662e-7
-0.569, -1.077e-6, -6.116e-7, 4.653e-7
-0.570, -1.078e-6, -6.134e-7, 4.650e-7
-0.571, -1.081e-6, -6.162e-7, 4.650e-7
-0.572, -1.080e-6, -6.150e-7, 4.653e-7
-0.573, -1.077e-6, -6.143e-7, 4.629e-7
-0.574, -1.079e-6, -6.150e-7, 4.638e-7
-0.575, -1.075e-6, -6.137e-7, 4.613e-7
-0.576, -1.074e-6, -6.143e-7, 4.601e-7
-0.577, -1.077e-6, -6.153e-7, 4.619e-7
-0.578, -1.075e-6, -6.140e-7, 4.607e-7
-0.579, -1.071e-6, -6.140e-7, 4.574e-7
-0.580, -1.074e-6, -6.165e-7, 4.580e-7
-0.581, -1.074e-6, -6.140e-7, 4.595e-7
-0.582, -1.072e-6, -6.153e-7, 4.565e-7
-0.583, -1.072e-6, -6.162e-7, 4.562e-7
-0.584, -1.072e-6, -6.137e-7, 4.583e-7
-0.585, -1.070e-6, -6.156e-7, 4.540e-7
-0.586, -1.072e-6, -6.174e-7, 4.543e-7
-0.587, -1.070e-6, -6.146e-7, 4.555e-7
-0.588, -1.068e-6, -6.156e-7, 4.528e-7
-0.589, -1.069e-6, -6.165e-7, 4.522e-7
-0.590, -1.070e-6, -6.177e-7, 4.528e-7
-0.591, -1.066e-6, -6.156e-7, 4.507e-7
-0.592, -1.069e-6, -6.195e-7, 4.494e-7
-0.593, -1.068e-6, -6.162e-7, 4.519e-7
-0.594, -1.063e-6, -6.165e-7, 4.467e-7
-0.595, -1.067e-6, -6.195e-7, 4.479e-7
-0.596, -1.066e-6, -6.177e-7, 4.482e-7
-0.597, -1.063e-6, -6.177e-7, 4.449e-7
-0.598, -1.064e-6, -6.186e-7, 4.452e-7
-0.599, -1.065e-6, -6.177e-7, 4.470e-7
-0.600, -1.064e-6, -6.189e-7, 4.455e-7
-0.601, -1.062e-6, -6.195e-7, 4.424e-7
-0.602, -1.064e-6, -6.198e-7, 4.442e-7
-0.603, -1.060e-6, -6.195e-7, 4.403e-7
-0.604, -1.062e-6, -6.214e-7, 4.403e-7
-0.605, -1.061e-6, -6.195e-7, 4.418e-7
-0.606, -1.060e-6, -6.211e-7, 4.391e-7
-0.607, -1.060e-6, -6.211e-7, 4.385e-7
-0.608, -1.059e-6, -6.208e-7, 4.385e-7
-0.609, -1.058e-6, -6.201e-7, 4.381e-7
-0.610, -1.059e-6, -6.229e-7, 4.363e-7
-0.611, -1.058e-6, -6.211e-7, 4.369e-7
-0.612, -1.054e-6, -6.201e-7, 4.336e-7
-0.613, -1.055e-6, -6.223e-7, 4.327e-7
-0.614, -1.058e-6, -6.217e-7, 4.366e-7
-0.615, -1.055e-6, -6.238e-7, 4.314e-7
-0.616, -1.055e-6, -6.238e-7, 4.311e-7
-0.617, -1.056e-6, -6.232e-7, 4.323e-7
-0.618, -1.054e-6, -6.232e-7, 4.308e-7
-0.619, -1.055e-6, -6.247e-7, 4.299e-7
-0.620, -1.055e-6, -6.241e-7, 4.308e-7
-0.621, -1.052e-6, -6.244e-7, 4.278e-7
-0.622, -1.053e-6, -6.259e-7, 4.275e-7
-0.623, -1.052e-6, -6.256e-7, 4.266e-7
-0.624, -1.050e-6, -6.244e-7, 4.259e-7
-0.625, -1.052e-6, -6.262e-7, 4.259e-7
-0.626, -1.051e-6, -6.259e-7, 4.253e-7
-0.627, -1.051e-6, -6.278e-7, 4.229e-7
-0.628, -1.051e-6, -6.281e-7, 4.226e-7
-0.629, -1.050e-6, -6.278e-7, 4.220e-7
-0.630, -1.048e-6, -6.275e-7, 4.201e-7
-0.631, -1.050e-6, -6.302e-7, 4.198e-7
-0.632, -1.048e-6, -6.281e-7, 4.195e-7
-0.633, -1.048e-6, -6.296e-7, 4.186e-7
-0.634, -1.047e-6, -6.299e-7, 4.174e-7
-0.635, -1.050e-6, -6.305e-7, 4.198e-7
-0.636, -1.047e-6, -6.320e-7, 4.153e-7
-0.637, -1.048e-6, -6.323e-7, 4.156e-7
-0.638, -1.048e-6, -6.311e-7, 4.168e-7
-0.639, -1.046e-6, -6.323e-7, 4.137e-7
-0.640, -1.047e-6, -6.336e-7, 4.137e-7
-0.641, -1.048e-6, -6.336e-7, 4.140e-7
-0.642, -1.045e-6, -6.336e-7, 4.119e-7
-0.643, -1.045e-6, -6.354e-7, 4.101e-7
-0.644, -1.047e-6, -6.351e-7, 4.116e-7
-0.645, -1.042e-6, -6.336e-7, 4.079e-7
-0.646, -1.047e-6, -6.378e-7, 4.089e-7
-0.647, -1.044e-6, -6.357e-7, 4.085e-7
-0.648, -1.042e-6, -6.366e-7, 4.055e-7
-0.649, -1.044e-6, -6.388e-7, 4.049e-7
-0.650, -1.043e-6, -6.378e-7, 4.055e-7
-0.651, -1.042e-6, -6.378e-7, 4.043e-7
-0.652, -1.041e-6, -6.397e-7, 4.012e-7
-0.653, -1.042e-6, -6.403e-7, 4.021e-7
-0.654, -1.042e-6, -6.409e-7, 4.006e-7
-0.655, -1.043e-6, -6.430e-7, 3.997e-7
-0.656, -1.044e-6, -6.421e-7, 4.015e-7
-0.657, -1.041e-6, -6.415e-7, 3.994e-7
-0.658, -1.041e-6, -6.427e-7, 3.979e-7
-0.659, -1.039e-6, -6.418e-7, 3.969e-7
-0.660, -1.038e-6, -6.433e-7, 3.951e-7
-0.661, -1.040e-6, -6.446e-7, 3.954e-7
-0.662, -1.041e-6, -6.458e-7, 3.951e-7
-0.663, -1.037e-6, -6.452e-7, 3.918e-7
-0.664, -1.039e-6, -6.470e-7, 3.924e-7
-0.665, -1.038e-6, -6.461e-7, 3.915e-7
-0.666, -1.037e-6, -6.470e-7, 3.902e-7
-0.667, -1.039e-6, -6.494e-7, 3.893e-7
-0.668, -1.038e-6, -6.476e-7, 3.905e-7
-0.669, -1.038e-6, -6.491e-7, 3.890e-7
-0.670, -1.041e-6, -6.522e-7, 3.890e-7
-0.671, -1.041e-6, -6.522e-7, 3.890e-7
-0.672, -1.037e-6, -6.519e-7, 3.847e-7
-0.673, -1.038e-6, -6.528e-7, 3.850e-7
-0.674, -1.041e-6, -6.540e-7, 3.866e-7
-0.675, -1.036e-6, -6.543e-7, 3.817e-7
-0.676, -1.040e-6, -6.580e-7, 3.817e-7
-0.677, -1.037e-6, -6.549e-7, 3.817e-7
-0.678, -1.037e-6, -6.562e-7, 3.805e-7
-0.679, -1.038e-6, -6.574e-7, 3.808e-7
-0.680, -1.039e-6, -6.595e-7, 3.799e-7
-0.681, -1.036e-6, -6.595e-7, 3.768e-7
-0.682, -1.035e-6, -6.598e-7, 3.750e-7
-0.683, -1.038e-6, -6.601e-7, 3.777e-7
-0.684, -1.035e-6, -6.607e-7, 3.747e-7
-0.685, -1.038e-6, -6.635e-7, 3.744e-7
-0.686, -1.039e-6, -6.638e-7, 3.753e-7
-0.687, -1.035e-6, -6.635e-7, 3.713e-7
-0.688, -1.037e-6, -6.668e-7, 3.704e-7
-0.689, -1.037e-6, -6.659e-7, 3.710e-7
-0.690, -1.033e-6, -6.647e-7, 3.683e-7
-0.691, -1.036e-6, -6.687e-7, 3.673e-7
-0.692, -1.036e-6, -6.684e-7, 3.677e-7
-0.693, -1.034e-6, -6.690e-7, 3.655e-7
-0.694, -1.037e-6, -6.711e-7, 3.661e-7
-0.695, -1.038e-6, -6.711e-7, 3.667e-7
-0.696, -1.035e-6, -6.729e-7, 3.622e-7
-0.697, -1.036e-6, -6.742e-7, 3.622e-7
-0.698, -1.037e-6, -6.745e-7, 3.628e-7
-0.699, -1.035e-6, -6.748e-7, 3.606e-7
-0.700, -1.038e-6, -6.790e-7, 3.594e-7
-0.701, -1.040e-6, -6.784e-7, 3.612e-7
-0.702, -1.036e-6, -6.787e-7, 3.573e-7
-0.703, -1.039e-6, -6.818e-7, 3.576e-7
-0.704, -1.038e-6, -6.812e-7, 3.573e-7
-0.705, -1.038e-6, -6.818e-7, 3.561e-7
-0.706, -1.039e-6, -6.845e-7, 3.542e-7
-0.707, -1.040e-6, -6.839e-7, 3.558e-7
-0.708, -1.039e-6, -6.854e-7, 3.533e-7
-0.709, -1.041e-6, -6.885e-7, 3.521e-7
-0.710, -1.041e-6, -6.888e-7, 3.521e-7
-0.711, -1.037e-6, -6.879e-7, 3.493e-7
-0.712, -1.042e-6, -6.919e-7, 3.503e-7
-0.713, -1.040e-6, -6.909e-7, 3.490e-7
-0.714, -1.042e-6, -6.934e-7, 3.487e-7
-0.715, -1.040e-6, -6.946e-7, 3.457e-7
-0.716, -1.041e-6, -6.949e-7, 3.463e-7
-0.717, -1.042e-6, -6.964e-7, 3.454e-7
-0.718, -1.042e-6, -6.980e-7, 3.435e-7
-0.719, -1.043e-6, -6.992e-7, 3.442e-7
-0.720, -1.040e-6, -7.001e-7, 3.402e-7
-0.721, -1.042e-6, -7.019e-7, 3.402e-7
-0.722, -1.044e-6, -7.022e-7, 3.420e-7
-0.723, -1.040e-6, -7.035e-7, 3.368e-7
-0.724, -1.046e-6, -7.062e-7, 3.396e-7
-0.725, -1.045e-6, -7.059e-7, 3.393e-7
-0.726, -1.043e-6, -7.074e-7, 3.359e-7
-0.727, -1.043e-6, -7.083e-7, 3.347e-7
-0.728, -1.045e-6, -7.092e-7, 3.359e-7
-0.729, -1.043e-6, -7.102e-7, 3.329e-7
-0.730, -1.046e-6, -7.144e-7, 3.313e-7
-0.731, -1.048e-6, -7.147e-7, 3.335e-7
-0.732, -1.047e-6, -7.166e-7, 3.304e-7
-0.733, -1.049e-6, -7.184e-7, 3.301e-7
-0.734, -1.050e-6, -7.208e-7, 3.295e-7
-0.735, -1.049e-6, -7.212e-7, 3.277e-7
-0.736, -1.049e-6, -7.233e-7, 3.258e-7
-0.737, -1.050e-6, -7.230e-7, 3.271e-7
-0.738, -1.049e-6, -7.245e-7, 3.246e-7
-0.739, -1.052e-6, -7.279e-7, 3.240e-7
-0.740, -1.052e-6, -7.285e-7, 3.240e-7
-0.741, -1.050e-6, -7.297e-7, 3.204e-7
-0.742, -1.052e-6, -7.312e-7, 3.207e-7
-0.743, -1.054e-6, -7.321e-7, 3.219e-7
-0.744, -1.053e-6, -7.349e-7, 3.182e-7
-0.745, -1.057e-6, -7.385e-7, 3.182e-7
-0.746, -1.056e-6, -7.382e-7, 3.173e-7
-0.747, -1.055e-6, -7.401e-7, 3.152e-7
-0.748, -1.055e-6, -7.407e-7, 3.139e-7
-0.749, -1.056e-6, -7.419e-7, 3.139e-7
-0.750, -1.058e-6, -7.453e-7, 3.124e-7
-0.751, -1.059e-6, -7.480e-7, 3.106e-7
-0.752, -1.061e-6, -7.489e-7, 3.124e-7
-0.753, -1.058e-6, -7.492e-7, 3.085e-7
-0.754, -1.060e-6, -7.517e-7, 3.085e-7
-0.755, -1.063e-6, -7.535e-7, 3.091e-7
-0.756, -1.063e-6, -7.553e-7, 3.078e-7
-0.757, -1.063e-6, -7.581e-7, 3.045e-7
-0.758, -1.064e-6, -7.590e-7, 3.048e-7
-0.759, -1.063e-6, -7.602e-7, 3.023e-7
-0.760, -1.067e-6, -7.645e-7, 3.027e-7
-0.761, -1.066e-6, -7.636e-7, 3.020e-7
-0.762, -1.066e-6, -7.672e-7, 2.990e-7
-0.763, -1.067e-6, -7.688e-7, 2.981e-7
-0.764, -1.069e-6, -7.700e-7, 2.990e-7
-0.765, -1.070e-6, -7.730e-7, 2.975e-7
-0.766, -1.070e-6, -7.742e-7, 2.956e-7
-0.767, -1.071e-6, -7.761e-7, 2.953e-7
-0.768, -1.074e-6, -7.791e-7, 2.944e-7
-0.769, -1.076e-6, -7.825e-7, 2.938e-7
-0.770, -1.073e-6, -7.816e-7, 2.917e-7
-0.771, -1.075e-6, -7.843e-7, 2.908e-7
-0.772, -1.077e-6, -7.877e-7, 2.895e-7
-0.773, -1.079e-6, -7.886e-7, 2.904e-7
-0.774, -1.077e-6, -7.892e-7, 2.874e-7
-0.775, -1.081e-6, -7.932e-7, 2.877e-7
-0.776, -1.081e-6, -7.938e-7, 2.868e-7
-0.777, -1.082e-6, -7.974e-7, 2.843e-7
-0.778, -1.082e-6, -7.993e-7, 2.831e-7
-0.779, -1.085e-6, -8.008e-7, 2.847e-7
-0.780, -1.085e-6, -8.048e-7, 2.804e-7
-0.781, -1.087e-6, -8.060e-7, 2.813e-7
-0.782, -1.088e-6, -8.078e-7, 2.801e-7
-0.783, -1.088e-6, -8.100e-7, 2.779e-7
-0.784, -1.089e-6, -8.118e-7, 2.770e-7
-0.785, -1.091e-6, -8.139e-7, 2.773e-7
-0.786, -1.092e-6, -8.154e-7, 2.770e-7
-0.787, -1.094e-6, -8.191e-7, 2.746e-7
-0.788, -1.095e-6, -8.203e-7, 2.746e-7
-0.789, -1.094e-6, -8.225e-7, 2.712e-7
-0.790, -1.099e-6, -8.267e-7, 2.718e-7
-0.791, -1.098e-6, -8.264e-7, 2.712e-7
-0.792, -1.097e-6, -8.298e-7, 2.673e-7
-0.793, -1.100e-6, -8.331e-7, 2.673e-7
-0.794, -1.103e-6, -8.347e-7, 2.679e-7
-0.795, -1.102e-6, -8.362e-7, 2.654e-7
-0.796, -1.104e-6, -8.405e-7, 2.633e-7
-0.797, -1.108e-6, -8.426e-7, 2.651e-7
-0.798, -1.107e-6, -8.454e-7, 2.618e-7
-0.799, -1.109e-6, -8.475e-7, 2.618e-7
-0.800, -1.110e-6, -8.502e-7, 2.602e-7
