Feb. 28, 2018   15:13:39
Square Wave Voltammetry
File: c:\users\electrochemist\desktop\2018\28022018_unbuffered_9,2\68_e6_9,2_0118_ph9,98_wider3.txt
Data Source:  Experiment
Instrument Model:  CHI1040A
Header: 
Note: 

Init E (V) = 0.5
Final E (V) = -0.8
Incr E (V) = 0.001
Amplitude (V) = 0.1
Frequency (Hz) = 150
Quiet Time (sec) = 0
Sensitivity (A/V) = 1e-6

Difference:

Forward:

Reverse:
Ep = -0.365V
ip = 3.295e-9A
Ah = 5.185e-10VA

Ep = -0.160V
ip = 9.126e-10A
Ah = 1.164e-9VA

Potential/V, Diff(i/A), For(i/A), Rev(i/A)

0.499, -1.070e-6, -9.160e-8, 9.786e-7
0.498, -1.057e-6, -2.619e-7, 7.955e-7
0.497, -9.902e-7, -2.796e-7, 7.107e-7
0.496, -9.429e-7, -2.854e-7, 6.576e-7
0.495, -9.078e-7, -2.936e-7, 6.142e-7
0.494, -8.843e-7, -2.967e-7, 5.877e-7
0.493, -8.605e-7, -2.988e-7, 5.617e-7
0.492, -8.441e-7, -3.028e-7, 5.413e-7
0.491, -8.309e-7, -3.043e-7, 5.267e-7
0.490, -8.163e-7, -3.040e-7, 5.123e-7
0.489, -8.074e-7, -3.086e-7, 4.989e-7
0.488, -7.998e-7, -3.086e-7, 4.913e-7
0.487, -7.864e-7, -3.073e-7, 4.790e-7
0.486, -7.809e-7, -3.107e-7, 4.702e-7
0.485, -7.763e-7, -3.122e-7, 4.641e-7
0.484, -7.656e-7, -3.098e-7, 4.559e-7
0.483, -7.626e-7, -3.150e-7, 4.476e-7
0.482, -7.595e-7, -3.138e-7, 4.458e-7
0.481, -7.504e-7, -3.119e-7, 4.385e-7
0.480, -7.455e-7, -3.147e-7, 4.308e-7
0.479, -7.440e-7, -3.147e-7, 4.293e-7
0.478, -7.376e-7, -3.138e-7, 4.238e-7
0.477, -7.363e-7, -3.165e-7, 4.198e-7
0.476, -7.318e-7, -3.153e-7, 4.165e-7
0.475, -7.266e-7, -3.144e-7, 4.122e-7
0.474, -7.229e-7, -3.162e-7, 4.067e-7
0.473, -7.235e-7, -3.147e-7, 4.089e-7
0.472, -7.180e-7, -3.147e-7, 4.034e-7
0.471, -7.165e-7, -3.180e-7, 3.985e-7
0.470, -7.125e-7, -3.165e-7, 3.960e-7
0.469, -7.116e-7, -3.156e-7, 3.960e-7
0.468, -7.083e-7, -3.168e-7, 3.915e-7
0.467, -7.071e-7, -3.171e-7, 3.899e-7
0.466, -7.043e-7, -3.174e-7, 3.869e-7
0.465, -7.028e-7, -3.189e-7, 3.838e-7
0.464, -7.031e-7, -3.189e-7, 3.841e-7
0.463, -6.979e-7, -3.180e-7, 3.799e-7
0.462, -6.979e-7, -3.199e-7, 3.780e-7
0.461, -6.976e-7, -3.199e-7, 3.777e-7
0.460, -6.942e-7, -3.186e-7, 3.756e-7
0.459, -6.921e-7, -3.208e-7, 3.713e-7
0.458, -6.939e-7, -3.202e-7, 3.738e-7
0.457, -6.890e-7, -3.196e-7, 3.695e-7
0.456, -6.872e-7, -3.199e-7, 3.674e-7
0.455, -6.887e-7, -3.202e-7, 3.686e-7
0.454, -6.866e-7, -3.205e-7, 3.661e-7
0.453, -6.866e-7, -3.223e-7, 3.643e-7
0.452, -6.863e-7, -3.208e-7, 3.655e-7
0.451, -6.796e-7, -3.189e-7, 3.606e-7
0.450, -6.802e-7, -3.214e-7, 3.588e-7
0.449, -6.817e-7, -3.202e-7, 3.616e-7
0.448, -6.805e-7, -3.217e-7, 3.588e-7
0.447, -6.771e-7, -3.220e-7, 3.552e-7
0.446, -6.787e-7, -3.211e-7, 3.576e-7
0.445, -6.762e-7, -3.211e-7, 3.552e-7
0.444, -6.741e-7, -3.217e-7, 3.524e-7
0.443, -6.765e-7, -3.226e-7, 3.539e-7
0.442, -6.723e-7, -3.205e-7, 3.518e-7
0.441, -6.726e-7, -3.232e-7, 3.494e-7
0.440, -6.735e-7, -3.232e-7, 3.503e-7
0.439, -6.729e-7, -3.223e-7, 3.506e-7
0.438, -6.732e-7, -3.253e-7, 3.478e-7
0.437, -6.717e-7, -3.235e-7, 3.481e-7
0.436, -6.698e-7, -3.220e-7, 3.478e-7
0.435, -6.701e-7, -3.241e-7, 3.460e-7
0.434, -6.695e-7, -3.229e-7, 3.466e-7
0.433, -6.680e-7, -3.232e-7, 3.448e-7
0.432, -6.677e-7, -3.253e-7, 3.423e-7
0.431, -6.692e-7, -3.260e-7, 3.433e-7
0.430, -6.689e-7, -3.250e-7, 3.439e-7
0.429, -6.671e-7, -3.266e-7, 3.405e-7
0.428, -6.686e-7, -3.253e-7, 3.433e-7
0.427, -6.674e-7, -3.257e-7, 3.417e-7
0.426, -6.637e-7, -3.263e-7, 3.375e-7
0.425, -6.665e-7, -3.263e-7, 3.402e-7
0.424, -6.631e-7, -3.241e-7, 3.390e-7
0.423, -6.665e-7, -3.290e-7, 3.375e-7
0.422, -6.643e-7, -3.257e-7, 3.387e-7
0.421, -6.640e-7, -3.269e-7, 3.371e-7
0.420, -6.637e-7, -3.284e-7, 3.353e-7
0.419, -6.640e-7, -3.266e-7, 3.375e-7
0.418, -6.625e-7, -3.266e-7, 3.359e-7
0.417, -6.616e-7, -3.281e-7, 3.335e-7
0.416, -6.643e-7, -3.263e-7, 3.381e-7
0.415, -6.601e-7, -3.260e-7, 3.341e-7
0.414, -6.622e-7, -3.290e-7, 3.332e-7
0.413, -6.652e-7, -3.290e-7, 3.362e-7
0.412, -6.613e-7, -3.278e-7, 3.335e-7
0.411, -6.613e-7, -3.302e-7, 3.310e-7
0.410, -6.619e-7, -3.278e-7, 3.341e-7
0.409, -6.616e-7, -3.284e-7, 3.332e-7
0.408, -6.628e-7, -3.299e-7, 3.329e-7
0.407, -6.634e-7, -3.299e-7, 3.335e-7
0.406, -6.616e-7, -3.293e-7, 3.323e-7
0.405, -6.613e-7, -3.315e-7, 3.298e-7
0.404, -6.616e-7, -3.305e-7, 3.310e-7
0.403, -6.604e-7, -3.302e-7, 3.301e-7
0.402, -6.628e-7, -3.318e-7, 3.310e-7
0.401, -6.634e-7, -3.315e-7, 3.320e-7
0.400, -6.610e-7, -3.308e-7, 3.301e-7
0.399, -6.604e-7, -3.324e-7, 3.280e-7
0.398, -6.622e-7, -3.318e-7, 3.304e-7
0.397, -6.601e-7, -3.305e-7, 3.295e-7
0.396, -6.598e-7, -3.327e-7, 3.271e-7
0.395, -6.631e-7, -3.333e-7, 3.298e-7
0.394, -6.613e-7, -3.330e-7, 3.283e-7
0.393, -6.616e-7, -3.351e-7, 3.265e-7
0.392, -6.622e-7, -3.336e-7, 3.286e-7
0.391, -6.607e-7, -3.327e-7, 3.280e-7
0.390, -6.613e-7, -3.345e-7, 3.268e-7
0.389, -6.643e-7, -3.345e-7, 3.298e-7
0.388, -6.607e-7, -3.342e-7, 3.265e-7
0.387, -6.594e-7, -3.354e-7, 3.240e-7
0.386, -6.616e-7, -3.348e-7, 3.268e-7
0.385, -6.625e-7, -3.342e-7, 3.283e-7
0.384, -6.625e-7, -3.363e-7, 3.262e-7
0.383, -6.640e-7, -3.354e-7, 3.286e-7
0.382, -6.622e-7, -3.342e-7, 3.280e-7
0.381, -6.643e-7, -3.382e-7, 3.262e-7
0.380, -6.659e-7, -3.379e-7, 3.280e-7
0.379, -6.628e-7, -3.357e-7, 3.271e-7
0.378, -6.646e-7, -3.379e-7, 3.268e-7
0.377, -6.646e-7, -3.376e-7, 3.271e-7
0.376, -6.610e-7, -3.357e-7, 3.252e-7
0.375, -6.637e-7, -3.391e-7, 3.246e-7
0.374, -6.662e-7, -3.391e-7, 3.271e-7
0.373, -6.634e-7, -3.363e-7, 3.271e-7
0.372, -6.656e-7, -3.409e-7, 3.246e-7
0.371, -6.662e-7, -3.385e-7, 3.277e-7
0.370, -6.634e-7, -3.382e-7, 3.252e-7
0.369, -6.668e-7, -3.415e-7, 3.252e-7
0.368, -6.659e-7, -3.400e-7, 3.259e-7
0.367, -6.643e-7, -3.394e-7, 3.249e-7
0.366, -6.662e-7, -3.412e-7, 3.249e-7
0.365, -6.671e-7, -3.406e-7, 3.265e-7
0.364, -6.640e-7, -3.391e-7, 3.249e-7
0.363, -6.652e-7, -3.412e-7, 3.240e-7
0.362, -6.686e-7, -3.427e-7, 3.259e-7
0.361, -6.656e-7, -3.400e-7, 3.256e-7
0.360, -6.668e-7, -3.430e-7, 3.237e-7
0.359, -6.698e-7, -3.427e-7, 3.271e-7
0.358, -6.665e-7, -3.418e-7, 3.246e-7
0.357, -6.701e-7, -3.452e-7, 3.249e-7
0.356, -6.689e-7, -3.430e-7, 3.259e-7
0.355, -6.683e-7, -3.424e-7, 3.259e-7
0.354, -6.692e-7, -3.449e-7, 3.243e-7
0.353, -6.720e-7, -3.449e-7, 3.271e-7
0.352, -6.686e-7, -3.440e-7, 3.246e-7
0.351, -6.707e-7, -3.461e-7, 3.246e-7
0.350, -6.707e-7, -3.446e-7, 3.262e-7
0.349, -6.698e-7, -3.443e-7, 3.256e-7
0.348, -6.695e-7, -3.467e-7, 3.228e-7
0.347, -6.759e-7, -3.476e-7, 3.283e-7
0.346, -6.707e-7, -3.455e-7, 3.252e-7
0.345, -6.723e-7, -3.467e-7, 3.256e-7
0.344, -6.756e-7, -3.482e-7, 3.274e-7
0.343, -6.729e-7, -3.455e-7, 3.274e-7
0.342, -6.735e-7, -3.492e-7, 3.243e-7
0.341, -6.759e-7, -3.488e-7, 3.271e-7
0.340, -6.741e-7, -3.479e-7, 3.262e-7
0.339, -6.759e-7, -3.495e-7, 3.265e-7
0.338, -6.759e-7, -3.501e-7, 3.259e-7
0.337, -6.744e-7, -3.479e-7, 3.265e-7
0.336, -6.753e-7, -3.504e-7, 3.249e-7
0.335, -6.787e-7, -3.501e-7, 3.286e-7
0.334, -6.756e-7, -3.488e-7, 3.268e-7
0.333, -6.787e-7, -3.522e-7, 3.265e-7
0.332, -6.820e-7, -3.534e-7, 3.286e-7
0.331, -6.784e-7, -3.510e-7, 3.274e-7
0.330, -6.805e-7, -3.540e-7, 3.265e-7
0.329, -6.802e-7, -3.528e-7, 3.274e-7
0.328, -6.784e-7, -3.519e-7, 3.265e-7
0.327, -6.799e-7, -3.540e-7, 3.259e-7
0.326, -6.836e-7, -3.546e-7, 3.289e-7
0.325, -6.820e-7, -3.534e-7, 3.286e-7
0.324, -6.832e-7, -3.562e-7, 3.271e-7
0.323, -6.832e-7, -3.546e-7, 3.286e-7
0.322, -6.811e-7, -3.528e-7, 3.283e-7
0.321, -6.832e-7, -3.574e-7, 3.259e-7
0.320, -6.851e-7, -3.562e-7, 3.289e-7
0.319, -6.820e-7, -3.543e-7, 3.277e-7
0.318, -6.823e-7, -3.565e-7, 3.259e-7
0.317, -6.851e-7, -3.574e-7, 3.277e-7
0.316, -6.842e-7, -3.546e-7, 3.295e-7
0.315, -6.875e-7, -3.598e-7, 3.277e-7
0.314, -6.884e-7, -3.577e-7, 3.307e-7
0.313, -6.848e-7, -3.565e-7, 3.283e-7
0.312, -6.866e-7, -3.607e-7, 3.259e-7
0.311, -6.897e-7, -3.595e-7, 3.301e-7
0.310, -6.878e-7, -3.577e-7, 3.301e-7
0.309, -6.900e-7, -3.614e-7, 3.286e-7
0.308, -6.912e-7, -3.611e-7, 3.301e-7
0.307, -6.912e-7, -3.595e-7, 3.317e-7
0.306, -6.903e-7, -3.620e-7, 3.283e-7
0.305, -6.927e-7, -3.626e-7, 3.301e-7
0.304, -6.930e-7, -3.620e-7, 3.310e-7
0.303, -6.918e-7, -3.629e-7, 3.289e-7
0.302, -6.948e-7, -3.632e-7, 3.317e-7
0.301, -6.955e-7, -3.632e-7, 3.323e-7
0.300, -6.912e-7, -3.629e-7, 3.283e-7
0.299, -6.952e-7, -3.638e-7, 3.314e-7
0.298, -6.942e-7, -3.632e-7, 3.310e-7
0.297, -6.948e-7, -3.650e-7, 3.298e-7
0.296, -6.991e-7, -3.653e-7, 3.338e-7
0.295, -6.955e-7, -3.644e-7, 3.310e-7
0.294, -6.979e-7, -3.665e-7, 3.314e-7
0.293, -6.988e-7, -3.665e-7, 3.323e-7
0.292, -6.991e-7, -3.669e-7, 3.323e-7
0.291, -6.988e-7, -3.681e-7, 3.307e-7
0.290, -7.006e-7, -3.681e-7, 3.326e-7
0.289, -7.006e-7, -3.665e-7, 3.341e-7
0.288, -7.009e-7, -3.690e-7, 3.320e-7
0.287, -7.031e-7, -3.684e-7, 3.347e-7
0.286, -7.013e-7, -3.681e-7, 3.332e-7
0.285, -7.009e-7, -3.690e-7, 3.320e-7
0.284, -7.052e-7, -3.702e-7, 3.350e-7
0.283, -7.019e-7, -3.687e-7, 3.332e-7
0.282, -7.034e-7, -3.714e-7, 3.320e-7
0.281, -7.086e-7, -3.723e-7, 3.362e-7
0.280, -7.061e-7, -3.714e-7, 3.347e-7
0.279, -7.061e-7, -3.736e-7, 3.326e-7
0.278, -7.074e-7, -3.717e-7, 3.356e-7
0.277, -7.074e-7, -3.723e-7, 3.350e-7
0.276, -7.098e-7, -3.754e-7, 3.344e-7
0.275, -7.098e-7, -3.733e-7, 3.365e-7
0.274, -7.092e-7, -3.742e-7, 3.350e-7
0.273, -7.107e-7, -3.766e-7, 3.341e-7
0.272, -7.128e-7, -3.760e-7, 3.368e-7
0.271, -7.104e-7, -3.739e-7, 3.365e-7
0.270, -7.147e-7, -3.788e-7, 3.359e-7
0.269, -7.141e-7, -3.775e-7, 3.365e-7
0.268, -7.162e-7, -3.781e-7, 3.381e-7
0.267, -7.150e-7, -3.791e-7, 3.359e-7
0.266, -7.183e-7, -3.803e-7, 3.381e-7
0.265, -7.162e-7, -3.788e-7, 3.375e-7
0.264, -7.183e-7, -3.812e-7, 3.371e-7
0.263, -7.196e-7, -3.812e-7, 3.384e-7
0.262, -7.165e-7, -3.775e-7, 3.390e-7
0.261, -7.199e-7, -3.815e-7, 3.384e-7
0.260, -7.214e-7, -3.821e-7, 3.393e-7
0.259, -7.202e-7, -3.818e-7, 3.384e-7
0.258, -7.211e-7, -3.839e-7, 3.371e-7
0.257, -7.217e-7, -3.824e-7, 3.393e-7
0.256, -7.211e-7, -3.818e-7, 3.393e-7
0.255, -7.241e-7, -3.852e-7, 3.390e-7
0.254, -7.278e-7, -3.858e-7, 3.420e-7
0.253, -7.254e-7, -3.839e-7, 3.414e-7
0.252, -7.284e-7, -3.873e-7, 3.411e-7
0.251, -7.302e-7, -3.864e-7, 3.439e-7
0.250, -7.281e-7, -3.858e-7, 3.423e-7
0.249, -7.315e-7, -3.894e-7, 3.420e-7
0.248, -7.321e-7, -3.891e-7, 3.429e-7
0.247, -7.299e-7, -3.873e-7, 3.426e-7
0.246, -7.321e-7, -3.897e-7, 3.423e-7
0.245, -7.336e-7, -3.900e-7, 3.436e-7
0.244, -7.321e-7, -3.894e-7, 3.426e-7
0.243, -7.327e-7, -3.913e-7, 3.414e-7
0.242, -7.345e-7, -3.907e-7, 3.439e-7
0.241, -7.345e-7, -3.907e-7, 3.439e-7
0.240, -7.370e-7, -3.934e-7, 3.436e-7
0.239, -7.391e-7, -3.937e-7, 3.454e-7
0.238, -7.385e-7, -3.934e-7, 3.451e-7
0.237, -7.394e-7, -3.955e-7, 3.439e-7
0.236, -7.406e-7, -3.943e-7, 3.463e-7
0.235, -7.406e-7, -3.946e-7, 3.460e-7
0.234, -7.421e-7, -3.968e-7, 3.454e-7
0.233, -7.418e-7, -3.968e-7, 3.451e-7
0.232, -7.431e-7, -3.949e-7, 3.481e-7
0.231, -7.446e-7, -3.983e-7, 3.463e-7
0.230, -7.455e-7, -3.980e-7, 3.475e-7
0.229, -7.467e-7, -3.983e-7, 3.484e-7
0.228, -7.482e-7, -4.019e-7, 3.463e-7
0.227, -7.504e-7, -4.004e-7, 3.500e-7
0.226, -7.495e-7, -3.986e-7, 3.509e-7
0.225, -7.486e-7, -4.023e-7, 3.463e-7
0.224, -7.516e-7, -4.023e-7, 3.494e-7
0.223, -7.547e-7, -4.032e-7, 3.515e-7
0.222, -7.528e-7, -4.047e-7, 3.481e-7
0.221, -7.513e-7, -4.026e-7, 3.487e-7
0.220, -7.534e-7, -4.029e-7, 3.506e-7
0.219, -7.547e-7, -4.044e-7, 3.503e-7
0.218, -7.595e-7, -4.059e-7, 3.536e-7
0.217, -7.580e-7, -4.059e-7, 3.521e-7
0.216, -7.574e-7, -4.077e-7, 3.497e-7
0.215, -7.601e-7, -4.065e-7, 3.536e-7
0.214, -7.598e-7, -4.071e-7, 3.527e-7
0.213, -7.617e-7, -4.102e-7, 3.515e-7
0.212, -7.635e-7, -4.093e-7, 3.542e-7
0.211, -7.632e-7, -4.084e-7, 3.548e-7
0.210, -7.656e-7, -4.114e-7, 3.542e-7
0.209, -7.681e-7, -4.120e-7, 3.561e-7
0.208, -7.684e-7, -4.114e-7, 3.570e-7
0.207, -7.678e-7, -4.126e-7, 3.552e-7
0.206, -7.702e-7, -4.126e-7, 3.576e-7
0.205, -7.696e-7, -4.123e-7, 3.573e-7
0.204, -7.708e-7, -4.148e-7, 3.561e-7
0.203, -7.730e-7, -4.151e-7, 3.579e-7
0.202, -7.714e-7, -4.145e-7, 3.570e-7
0.201, -7.730e-7, -4.163e-7, 3.567e-7
0.200, -7.794e-7, -4.187e-7, 3.606e-7
0.199, -7.751e-7, -4.160e-7, 3.591e-7
0.198, -7.782e-7, -4.193e-7, 3.588e-7
0.197, -7.791e-7, -4.184e-7, 3.606e-7
0.196, -7.788e-7, -4.178e-7, 3.609e-7
0.195, -7.818e-7, -4.215e-7, 3.603e-7
0.194, -7.818e-7, -4.209e-7, 3.609e-7
0.193, -7.830e-7, -4.203e-7, 3.628e-7
0.192, -7.833e-7, -4.221e-7, 3.613e-7
0.191, -7.876e-7, -4.239e-7, 3.637e-7
0.190, -7.855e-7, -4.227e-7, 3.628e-7
0.189, -7.882e-7, -4.257e-7, 3.625e-7
0.188, -7.897e-7, -4.264e-7, 3.634e-7
0.187, -7.885e-7, -4.236e-7, 3.649e-7
0.186, -7.916e-7, -4.270e-7, 3.646e-7
0.185, -7.925e-7, -4.273e-7, 3.652e-7
0.184, -7.931e-7, -4.261e-7, 3.671e-7
0.183, -7.940e-7, -4.291e-7, 3.649e-7
0.182, -7.974e-7, -4.300e-7, 3.674e-7
0.181, -7.965e-7, -4.294e-7, 3.671e-7
0.180, -7.989e-7, -4.325e-7, 3.664e-7
0.179, -8.001e-7, -4.312e-7, 3.689e-7
0.178, -7.995e-7, -4.319e-7, 3.677e-7
0.177, -8.026e-7, -4.340e-7, 3.686e-7
0.176, -8.041e-7, -4.343e-7, 3.698e-7
0.175, -8.038e-7, -4.343e-7, 3.695e-7
0.174, -8.059e-7, -4.361e-7, 3.698e-7
0.173, -8.074e-7, -4.364e-7, 3.710e-7
0.172, -8.068e-7, -4.358e-7, 3.710e-7
0.171, -8.093e-7, -4.395e-7, 3.698e-7
0.170, -8.120e-7, -4.383e-7, 3.738e-7
0.169, -8.117e-7, -4.383e-7, 3.735e-7
0.168, -8.139e-7, -4.410e-7, 3.729e-7
0.167, -8.151e-7, -4.407e-7, 3.744e-7
0.166, -8.145e-7, -4.410e-7, 3.735e-7
0.165, -8.166e-7, -4.425e-7, 3.741e-7
0.164, -8.172e-7, -4.425e-7, 3.747e-7
0.163, -8.184e-7, -4.428e-7, 3.756e-7
0.162, -8.215e-7, -4.456e-7, 3.759e-7
0.161, -8.224e-7, -4.453e-7, 3.771e-7
0.160, -8.212e-7, -4.441e-7, 3.771e-7
0.159, -8.255e-7, -4.480e-7, 3.774e-7
0.158, -8.282e-7, -4.492e-7, 3.790e-7
0.157, -8.282e-7, -4.474e-7, 3.808e-7
0.156, -8.294e-7, -4.492e-7, 3.802e-7
0.155, -8.309e-7, -4.508e-7, 3.802e-7
0.154, -8.309e-7, -4.505e-7, 3.805e-7
0.153, -8.319e-7, -4.511e-7, 3.808e-7
0.152, -8.355e-7, -4.529e-7, 3.826e-7
0.151, -8.337e-7, -4.523e-7, 3.814e-7
0.150, -8.361e-7, -4.550e-7, 3.811e-7
0.149, -8.398e-7, -4.550e-7, 3.848e-7
0.148, -8.404e-7, -4.550e-7, 3.854e-7
0.147, -8.404e-7, -4.578e-7, 3.826e-7
0.146, -8.428e-7, -4.572e-7, 3.857e-7
0.145, -8.453e-7, -4.584e-7, 3.869e-7
0.144, -8.456e-7, -4.599e-7, 3.857e-7
0.143, -8.496e-7, -4.615e-7, 3.881e-7
0.142, -8.490e-7, -4.615e-7, 3.875e-7
0.141, -8.496e-7, -4.630e-7, 3.866e-7
0.140, -8.541e-7, -4.633e-7, 3.909e-7
0.139, -8.529e-7, -4.636e-7, 3.893e-7
0.138, -8.538e-7, -4.651e-7, 3.887e-7
0.137, -8.572e-7, -4.651e-7, 3.921e-7
0.136, -8.572e-7, -4.657e-7, 3.915e-7
0.135, -8.599e-7, -4.685e-7, 3.915e-7
0.134, -8.627e-7, -4.685e-7, 3.942e-7
0.133, -8.627e-7, -4.688e-7, 3.939e-7
0.132, -8.630e-7, -4.709e-7, 3.921e-7
0.131, -8.679e-7, -4.718e-7, 3.960e-7
0.130, -8.682e-7, -4.721e-7, 3.960e-7
0.129, -8.676e-7, -4.730e-7, 3.945e-7
0.128, -8.700e-7, -4.734e-7, 3.967e-7
0.127, -8.709e-7, -4.737e-7, 3.973e-7
0.126, -8.740e-7, -4.758e-7, 3.982e-7
0.125, -8.749e-7, -4.776e-7, 3.973e-7
0.124, -8.755e-7, -4.773e-7, 3.982e-7
0.123, -8.773e-7, -4.798e-7, 3.976e-7
0.122, -8.782e-7, -4.798e-7, 3.985e-7
0.121, -8.819e-7, -4.807e-7, 4.012e-7
0.120, -8.825e-7, -4.825e-7, 4.000e-7
0.119, -8.856e-7, -4.825e-7, 4.031e-7
0.118, -8.856e-7, -4.819e-7, 4.037e-7
0.117, -8.859e-7, -4.856e-7, 4.003e-7
0.116, -8.908e-7, -4.862e-7, 4.046e-7
0.115, -8.908e-7, -4.859e-7, 4.049e-7
0.114, -8.914e-7, -4.883e-7, 4.031e-7
0.113, -8.969e-7, -4.883e-7, 4.086e-7
0.112, -8.956e-7, -4.883e-7, 4.073e-7
0.111, -8.987e-7, -4.926e-7, 4.061e-7
0.110, -8.993e-7, -4.911e-7, 4.082e-7
0.109, -9.008e-7, -4.911e-7, 4.098e-7
0.108, -9.030e-7, -4.938e-7, 4.092e-7
0.107, -9.075e-7, -4.959e-7, 4.116e-7
0.106, -9.078e-7, -4.953e-7, 4.125e-7
0.105, -9.075e-7, -4.978e-7, 4.098e-7
0.104, -9.118e-7, -4.990e-7, 4.128e-7
0.103, -9.118e-7, -4.975e-7, 4.144e-7
0.102, -9.158e-7, -5.014e-7, 4.144e-7
0.101, -9.188e-7, -5.020e-7, 4.168e-7
0.100, -9.167e-7, -5.011e-7, 4.156e-7
0.099, -9.213e-7, -5.054e-7, 4.159e-7
0.098, -9.240e-7, -5.051e-7, 4.189e-7
0.097, -9.219e-7, -5.042e-7, 4.177e-7
0.096, -9.255e-7, -5.088e-7, 4.168e-7
0.095, -9.310e-7, -5.100e-7, 4.211e-7
0.094, -9.283e-7, -5.075e-7, 4.208e-7
0.093, -9.338e-7, -5.130e-7, 4.208e-7
0.092, -9.347e-7, -5.115e-7, 4.232e-7
0.091, -9.365e-7, -5.118e-7, 4.247e-7
0.090, -9.378e-7, -5.146e-7, 4.232e-7
0.089, -9.417e-7, -5.155e-7, 4.263e-7
0.088, -9.417e-7, -5.152e-7, 4.266e-7
0.087, -9.442e-7, -5.185e-7, 4.256e-7
0.086, -9.451e-7, -5.188e-7, 4.263e-7
0.085, -9.466e-7, -5.191e-7, 4.275e-7
0.084, -9.484e-7, -5.216e-7, 4.269e-7
0.083, -9.539e-7, -5.240e-7, 4.299e-7
0.082, -9.551e-7, -5.246e-7, 4.305e-7
0.081, -9.561e-7, -5.261e-7, 4.299e-7
0.080, -9.579e-7, -5.258e-7, 4.320e-7
0.079, -9.588e-7, -5.265e-7, 4.324e-7
0.078, -9.609e-7, -5.283e-7, 4.327e-7
0.077, -9.640e-7, -5.295e-7, 4.345e-7
0.076, -9.658e-7, -5.301e-7, 4.357e-7
0.075, -9.683e-7, -5.332e-7, 4.351e-7
0.074, -9.707e-7, -5.347e-7, 4.360e-7
0.073, -9.698e-7, -5.326e-7, 4.372e-7
0.072, -9.753e-7, -5.365e-7, 4.388e-7
0.071, -9.786e-7, -5.384e-7, 4.403e-7
0.070, -9.793e-7, -5.380e-7, 4.412e-7
0.069, -9.796e-7, -5.399e-7, 4.397e-7
0.068, -9.854e-7, -5.417e-7, 4.436e-7
0.067, -9.844e-7, -5.411e-7, 4.433e-7
0.066, -9.875e-7, -5.438e-7, 4.436e-7
0.065, -9.930e-7, -5.460e-7, 4.470e-7
0.064, -9.918e-7, -5.460e-7, 4.458e-7
0.063, -9.942e-7, -5.487e-7, 4.455e-7
0.062, -9.982e-7, -5.506e-7, 4.476e-7
0.061, -1.000e-6, -5.506e-7, 4.494e-7
0.060, -1.002e-6, -5.524e-7, 4.494e-7
0.059, -1.008e-6, -5.542e-7, 4.537e-7
0.058, -1.008e-6, -5.551e-7, 4.528e-7
0.057, -1.010e-6, -5.582e-7, 4.519e-7
0.056, -1.014e-6, -5.588e-7, 4.555e-7
0.055, -1.014e-6, -5.576e-7, 4.562e-7
0.054, -1.014e-6, -5.600e-7, 4.543e-7
0.053, -1.020e-6, -5.637e-7, 4.568e-7
0.052, -1.020e-6, -5.619e-7, 4.580e-7
0.051, -1.022e-6, -5.643e-7, 4.574e-7
0.050, -1.026e-6, -5.652e-7, 4.610e-7
0.049, -1.025e-6, -5.661e-7, 4.592e-7
0.048, -1.031e-6, -5.695e-7, 4.620e-7
0.047, -1.036e-6, -5.710e-7, 4.647e-7
0.046, -1.036e-6, -5.707e-7, 4.653e-7
0.045, -1.036e-6, -5.728e-7, 4.632e-7
0.044, -1.040e-6, -5.741e-7, 4.659e-7
0.043, -1.043e-6, -5.759e-7, 4.668e-7
0.042, -1.048e-6, -5.792e-7, 4.687e-7
0.041, -1.050e-6, -5.802e-7, 4.699e-7
0.040, -1.049e-6, -5.789e-7, 4.699e-7
0.039, -1.054e-6, -5.832e-7, 4.705e-7
0.038, -1.056e-6, -5.832e-7, 4.723e-7
0.037, -1.058e-6, -5.847e-7, 4.732e-7
0.036, -1.059e-6, -5.869e-7, 4.717e-7
0.035, -1.063e-6, -5.872e-7, 4.760e-7
0.034, -1.065e-6, -5.884e-7, 4.769e-7
0.033, -1.069e-6, -5.915e-7, 4.772e-7
0.032, -1.071e-6, -5.899e-7, 4.812e-7
0.031, -1.073e-6, -5.924e-7, 4.803e-7
0.030, -1.074e-6, -5.951e-7, 4.790e-7
0.029, -1.079e-6, -5.951e-7, 4.839e-7
0.028, -1.079e-6, -5.960e-7, 4.833e-7
0.027, -1.082e-6, -5.994e-7, 4.830e-7
0.026, -1.085e-6, -5.997e-7, 4.848e-7
0.025, -1.089e-6, -6.021e-7, 4.867e-7
0.024, -1.092e-6, -6.046e-7, 4.870e-7
0.023, -1.097e-6, -6.061e-7, 4.906e-7
0.022, -1.096e-6, -6.058e-7, 4.903e-7
0.021, -1.099e-6, -6.088e-7, 4.897e-7
0.020, -1.104e-6, -6.101e-7, 4.940e-7
0.019, -1.104e-6, -6.101e-7, 4.937e-7
0.018, -1.108e-6, -6.143e-7, 4.934e-7
0.017, -1.111e-6, -6.140e-7, 4.970e-7
0.016, -1.111e-6, -6.143e-7, 4.970e-7
0.015, -1.113e-6, -6.162e-7, 4.967e-7
0.014, -1.120e-6, -6.192e-7, 5.004e-7
0.013, -1.120e-6, -6.192e-7, 5.010e-7
0.012, -1.123e-6, -6.217e-7, 5.016e-7
0.011, -1.127e-6, -6.232e-7, 5.041e-7
0.010, -1.126e-6, -6.223e-7, 5.041e-7
0.009, -1.132e-6, -6.256e-7, 5.065e-7
0.008, -1.135e-6, -6.281e-7, 5.071e-7
0.007, -1.135e-6, -6.272e-7, 5.080e-7
0.006, -1.140e-6, -6.302e-7, 5.099e-7
0.005, -1.143e-6, -6.320e-7, 5.111e-7
0.004, -1.145e-6, -6.323e-7, 5.129e-7
0.003, -1.148e-6, -6.342e-7, 5.135e-7
0.002, -1.151e-6, -6.348e-7, 5.160e-7
0.001, -1.153e-6, -6.366e-7, 5.169e-7
-0.000, -1.155e-6, -6.391e-7, 5.163e-7
-0.001, -1.160e-6, -6.400e-7, 5.196e-7
-0.002, -1.159e-6, -6.394e-7, 5.199e-7
-0.003, -1.163e-6, -6.424e-7, 5.208e-7
-0.004, -1.167e-6, -6.442e-7, 5.227e-7
-0.005, -1.169e-6, -6.445e-7, 5.242e-7
-0.006, -1.170e-6, -6.476e-7, 5.227e-7
-0.007, -1.175e-6, -6.482e-7, 5.273e-7
-0.008, -1.177e-6, -6.482e-7, 5.285e-7
-0.009, -1.180e-6, -6.519e-7, 5.285e-7
-0.010, -1.184e-6, -6.525e-7, 5.312e-7
-0.011, -1.186e-6, -6.543e-7, 5.312e-7
-0.012, -1.190e-6, -6.568e-7, 5.328e-7
-0.013, -1.192e-6, -6.571e-7, 5.349e-7
-0.014, -1.192e-6, -6.568e-7, 5.349e-7
-0.015, -1.199e-6, -6.616e-7, 5.370e-7
-0.016, -1.201e-6, -6.616e-7, 5.392e-7
-0.017, -1.199e-6, -6.601e-7, 5.389e-7
-0.018, -1.204e-6, -6.635e-7, 5.410e-7
-0.019, -1.207e-6, -6.641e-7, 5.428e-7
-0.020, -1.208e-6, -6.644e-7, 5.437e-7
-0.021, -1.211e-6, -6.680e-7, 5.434e-7
-0.022, -1.215e-6, -6.687e-7, 5.462e-7
-0.023, -1.218e-6, -6.690e-7, 5.492e-7
-0.024, -1.219e-6, -6.723e-7, 5.468e-7
-0.025, -1.223e-6, -6.720e-7, 5.514e-7
-0.026, -1.222e-6, -6.720e-7, 5.504e-7
-0.027, -1.227e-6, -6.757e-7, 5.514e-7
-0.028, -1.231e-6, -6.766e-7, 5.547e-7
-0.029, -1.232e-6, -6.760e-7, 5.556e-7
-0.030, -1.237e-6, -6.812e-7, 5.553e-7
-0.031, -1.241e-6, -6.803e-7, 5.605e-7
-0.032, -1.240e-6, -6.803e-7, 5.593e-7
-0.033, -1.242e-6, -6.830e-7, 5.587e-7
-0.034, -1.246e-6, -6.839e-7, 5.617e-7
-0.035, -1.247e-6, -6.836e-7, 5.639e-7
-0.036, -1.250e-6, -6.864e-7, 5.639e-7
-0.037, -1.255e-6, -6.879e-7, 5.666e-7
-0.038, -1.255e-6, -6.876e-7, 5.672e-7
-0.039, -1.258e-6, -6.897e-7, 5.678e-7
-0.040, -1.261e-6, -6.891e-7, 5.715e-7
-0.041, -1.261e-6, -6.894e-7, 5.718e-7
-0.042, -1.265e-6, -6.940e-7, 5.706e-7
-0.043, -1.269e-6, -6.940e-7, 5.752e-7
-0.044, -1.268e-6, -6.925e-7, 5.752e-7
-0.045, -1.271e-6, -6.955e-7, 5.758e-7
-0.046, -1.276e-6, -6.964e-7, 5.791e-7
-0.047, -1.276e-6, -6.955e-7, 5.810e-7
-0.048, -1.278e-6, -6.989e-7, 5.794e-7
-0.049, -1.282e-6, -6.995e-7, 5.822e-7
-0.050, -1.283e-6, -6.986e-7, 5.843e-7
-0.051, -1.287e-6, -7.019e-7, 5.846e-7
-0.052, -1.287e-6, -7.007e-7, 5.865e-7
-0.053, -1.291e-6, -7.022e-7, 5.883e-7
-0.054, -1.294e-6, -7.056e-7, 5.883e-7
-0.055, -1.297e-6, -7.065e-7, 5.907e-7
-0.056, -1.297e-6, -7.047e-7, 5.923e-7
-0.057, -1.298e-6, -7.059e-7, 5.920e-7
-0.058, -1.303e-6, -7.074e-7, 5.953e-7
-0.059, -1.305e-6, -7.080e-7, 5.968e-7
-0.060, -1.305e-6, -7.095e-7, 5.953e-7
-0.061, -1.309e-6, -7.102e-7, 5.984e-7
-0.062, -1.308e-6, -7.080e-7, 6.002e-7
-0.063, -1.312e-6, -7.123e-7, 6.002e-7
-0.064, -1.314e-6, -7.120e-7, 6.017e-7
-0.065, -1.313e-6, -7.108e-7, 6.023e-7
-0.066, -1.319e-6, -7.132e-7, 6.057e-7
-0.067, -1.322e-6, -7.141e-7, 6.078e-7
-0.068, -1.321e-6, -7.150e-7, 6.057e-7
-0.069, -1.323e-6, -7.169e-7, 6.066e-7
-0.070, -1.327e-6, -7.157e-7, 6.112e-7
-0.071, -1.328e-6, -7.166e-7, 6.115e-7
-0.072, -1.329e-6, -7.190e-7, 6.103e-7
-0.073, -1.331e-6, -7.178e-7, 6.136e-7
-0.074, -1.334e-6, -7.187e-7, 6.148e-7
-0.075, -1.333e-6, -7.202e-7, 6.130e-7
-0.076, -1.337e-6, -7.199e-7, 6.167e-7
-0.077, -1.337e-6, -7.196e-7, 6.173e-7
-0.078, -1.339e-6, -7.208e-7, 6.179e-7
-0.079, -1.343e-6, -7.224e-7, 6.209e-7
-0.080, -1.342e-6, -7.211e-7, 6.209e-7
-0.081, -1.344e-6, -7.239e-7, 6.200e-7
-0.082, -1.347e-6, -7.233e-7, 6.240e-7
-0.083, -1.347e-6, -7.218e-7, 6.255e-7
-0.084, -1.348e-6, -7.236e-7, 6.246e-7
-0.085, -1.350e-6, -7.233e-7, 6.270e-7
-0.086, -1.350e-6, -7.230e-7, 6.273e-7
-0.087, -1.352e-6, -7.248e-7, 6.277e-7
-0.088, -1.356e-6, -7.254e-7, 6.304e-7
-0.089, -1.357e-6, -7.251e-7, 6.319e-7
-0.090, -1.358e-6, -7.257e-7, 6.325e-7
-0.091, -1.360e-6, -7.269e-7, 6.328e-7
-0.092, -1.360e-6, -7.257e-7, 6.341e-7
-0.093, -1.362e-6, -7.276e-7, 6.347e-7
-0.094, -1.362e-6, -7.263e-7, 6.353e-7
-0.095, -1.366e-6, -7.269e-7, 6.386e-7
-0.096, -1.366e-6, -7.285e-7, 6.371e-7
-0.097, -1.367e-6, -7.279e-7, 6.393e-7
-0.098, -1.368e-6, -7.276e-7, 6.405e-7
-0.099, -1.366e-6, -7.269e-7, 6.386e-7
-0.100, -1.371e-6, -7.266e-7, 6.444e-7
-0.101, -1.370e-6, -7.276e-7, 6.429e-7
-0.102, -1.371e-6, -7.282e-7, 6.426e-7
-0.103, -1.372e-6, -7.266e-7, 6.450e-7
-0.104, -1.372e-6, -7.257e-7, 6.463e-7
-0.105, -1.371e-6, -7.266e-7, 6.441e-7
-0.106, -1.377e-6, -7.282e-7, 6.490e-7
-0.107, -1.376e-6, -7.272e-7, 6.487e-7
-0.108, -1.377e-6, -7.291e-7, 6.484e-7
-0.109, -1.378e-6, -7.272e-7, 6.508e-7
-0.110, -1.378e-6, -7.263e-7, 6.521e-7
-0.111, -1.380e-6, -7.279e-7, 6.518e-7
-0.112, -1.381e-6, -7.279e-7, 6.533e-7
-0.113, -1.381e-6, -7.266e-7, 6.539e-7
-0.114, -1.382e-6, -7.285e-7, 6.536e-7
-0.115, -1.384e-6, -7.282e-7, 6.560e-7
-0.116, -1.380e-6, -7.257e-7, 6.542e-7
-0.117, -1.382e-6, -7.279e-7, 6.539e-7
-0.118, -1.383e-6, -7.269e-7, 6.563e-7
-0.119, -1.385e-6, -7.263e-7, 6.585e-7
-0.120, -1.382e-6, -7.257e-7, 6.566e-7
-0.121, -1.386e-6, -7.260e-7, 6.597e-7
-0.122, -1.384e-6, -7.236e-7, 6.600e-7
-0.123, -1.386e-6, -7.260e-7, 6.600e-7
-0.124, -1.389e-6, -7.260e-7, 6.627e-7
-0.125, -1.386e-6, -7.239e-7, 6.618e-7
-0.126, -1.387e-6, -7.248e-7, 6.618e-7
-0.127, -1.387e-6, -7.239e-7, 6.627e-7
-0.128, -1.388e-6, -7.230e-7, 6.649e-7
-0.129, -1.385e-6, -7.233e-7, 6.621e-7
-0.130, -1.388e-6, -7.233e-7, 6.643e-7
-0.131, -1.385e-6, -7.202e-7, 6.646e-7
-0.132, -1.388e-6, -7.236e-7, 6.643e-7
-0.133, -1.388e-6, -7.224e-7, 6.658e-7
-0.134, -1.387e-6, -7.208e-7, 6.664e-7
-0.135, -1.388e-6, -7.227e-7, 6.652e-7
-0.136, -1.389e-6, -7.208e-7, 6.682e-7
-0.137, -1.388e-6, -7.199e-7, 6.676e-7
-0.138, -1.387e-6, -7.199e-7, 6.673e-7
-0.139, -1.389e-6, -7.202e-7, 6.692e-7
-0.140, -1.389e-6, -7.184e-7, 6.710e-7
-0.141, -1.384e-6, -7.160e-7, 6.676e-7
-0.142, -1.388e-6, -7.178e-7, 6.707e-7
-0.143, -1.388e-6, -7.178e-7, 6.707e-7
-0.144, -1.386e-6, -7.172e-7, 6.692e-7
-0.145, -1.389e-6, -7.169e-7, 6.725e-7
-0.146, -1.384e-6, -7.129e-7, 6.713e-7
-0.147, -1.386e-6, -7.153e-7, 6.710e-7
-0.148, -1.388e-6, -7.153e-7, 6.725e-7
-0.149, -1.385e-6, -7.144e-7, 6.710e-7
-0.150, -1.386e-6, -7.141e-7, 6.719e-7
-0.151, -1.387e-6, -7.144e-7, 6.728e-7
-0.152, -1.384e-6, -7.108e-7, 6.734e-7
-0.153, -1.383e-6, -7.111e-7, 6.716e-7
-0.154, -1.386e-6, -7.132e-7, 6.728e-7
-0.155, -1.382e-6, -7.077e-7, 6.746e-7
-0.156, -1.382e-6, -7.105e-7, 6.719e-7
-0.157, -1.384e-6, -7.089e-7, 6.750e-7
-0.158, -1.381e-6, -7.062e-7, 6.746e-7
-0.159, -1.381e-6, -7.083e-7, 6.731e-7
-0.160, -1.385e-6, -7.083e-7, 6.762e-7
-0.161, -1.380e-6, -7.050e-7, 6.753e-7
-0.162, -1.381e-6, -7.077e-7, 6.728e-7
-0.163, -1.380e-6, -7.044e-7, 6.756e-7
-0.164, -1.377e-6, -7.028e-7, 6.740e-7
-0.165, -1.377e-6, -7.038e-7, 6.734e-7
-0.166, -1.377e-6, -7.022e-7, 6.750e-7
-0.167, -1.374e-6, -7.010e-7, 6.734e-7
-0.168, -1.374e-6, -7.016e-7, 6.728e-7
-0.169, -1.376e-6, -7.007e-7, 6.750e-7
-0.170, -1.372e-6, -6.976e-7, 6.746e-7
-0.171, -1.374e-6, -7.004e-7, 6.734e-7
-0.172, -1.374e-6, -6.980e-7, 6.756e-7
-0.173, -1.369e-6, -6.958e-7, 6.731e-7
-0.174, -1.371e-6, -6.973e-7, 6.734e-7
-0.175, -1.372e-6, -6.976e-7, 6.746e-7
-0.176, -1.368e-6, -6.937e-7, 6.743e-7
-0.177, -1.368e-6, -6.958e-7, 6.725e-7
-0.178, -1.368e-6, -6.937e-7, 6.743e-7
-0.179, -1.365e-6, -6.912e-7, 6.737e-7
-0.180, -1.365e-6, -6.928e-7, 6.719e-7
-0.181, -1.366e-6, -6.931e-7, 6.734e-7
-0.182, -1.363e-6, -6.894e-7, 6.737e-7
-0.183, -1.362e-6, -6.903e-7, 6.713e-7
-0.184, -1.362e-6, -6.888e-7, 6.731e-7
-0.185, -1.359e-6, -6.870e-7, 6.722e-7
-0.186, -1.359e-6, -6.879e-7, 6.707e-7
-0.187, -1.356e-6, -6.854e-7, 6.707e-7
-0.188, -1.355e-6, -6.845e-7, 6.707e-7
-0.189, -1.356e-6, -6.857e-7, 6.701e-7
-0.190, -1.355e-6, -6.839e-7, 6.707e-7
-0.191, -1.353e-6, -6.824e-7, 6.704e-7
-0.192, -1.351e-6, -6.818e-7, 6.688e-7
-0.193, -1.353e-6, -6.824e-7, 6.704e-7
-0.194, -1.350e-6, -6.806e-7, 6.698e-7
-0.195, -1.350e-6, -6.812e-7, 6.688e-7
-0.196, -1.351e-6, -6.809e-7, 6.701e-7
-0.197, -1.347e-6, -6.775e-7, 6.695e-7
-0.198, -1.347e-6, -6.784e-7, 6.682e-7
-0.199, -1.346e-6, -6.772e-7, 6.688e-7
-0.200, -1.343e-6, -6.751e-7, 6.676e-7
-0.201, -1.340e-6, -6.760e-7, 6.637e-7
-0.202, -1.341e-6, -6.748e-7, 6.664e-7
-0.203, -1.339e-6, -6.732e-7, 6.658e-7
-0.204, -1.340e-6, -6.745e-7, 6.658e-7
-0.205, -1.340e-6, -6.735e-7, 6.667e-7
-0.206, -1.334e-6, -6.699e-7, 6.646e-7
-0.207, -1.335e-6, -6.726e-7, 6.627e-7
-0.208, -1.335e-6, -6.714e-7, 6.640e-7
-0.209, -1.330e-6, -6.671e-7, 6.631e-7
-0.210, -1.328e-6, -6.677e-7, 6.603e-7
-0.211, -1.331e-6, -6.684e-7, 6.631e-7
-0.212, -1.328e-6, -6.653e-7, 6.627e-7
-0.213, -1.328e-6, -6.671e-7, 6.606e-7
-0.214, -1.328e-6, -6.659e-7, 6.621e-7
-0.215, -1.325e-6, -6.635e-7, 6.618e-7
-0.216, -1.323e-6, -6.653e-7, 6.579e-7
-0.217, -1.323e-6, -6.635e-7, 6.597e-7
-0.218, -1.322e-6, -6.629e-7, 6.591e-7
-0.219, -1.318e-6, -6.619e-7, 6.560e-7
-0.220, -1.321e-6, -6.626e-7, 6.585e-7
-0.221, -1.319e-6, -6.610e-7, 6.582e-7
-0.222, -1.316e-6, -6.610e-7, 6.548e-7
-0.223, -1.315e-6, -6.586e-7, 6.560e-7
-0.224, -1.312e-6, -6.568e-7, 6.548e-7
-0.225, -1.314e-6, -6.589e-7, 6.551e-7
-0.226, -1.314e-6, -6.592e-7, 6.548e-7
-0.227, -1.309e-6, -6.561e-7, 6.530e-7
-0.228, -1.309e-6, -6.571e-7, 6.515e-7
-0.229, -1.309e-6, -6.552e-7, 6.539e-7
-0.230, -1.307e-6, -6.546e-7, 6.521e-7
-0.231, -1.304e-6, -6.531e-7, 6.505e-7
-0.232, -1.305e-6, -6.546e-7, 6.499e-7
-0.233, -1.301e-6, -6.513e-7, 6.499e-7
-0.234, -1.299e-6, -6.528e-7, 6.466e-7
-0.235, -1.301e-6, -6.516e-7, 6.490e-7
-0.236, -1.297e-6, -6.491e-7, 6.475e-7
-0.237, -1.296e-6, -6.503e-7, 6.457e-7
-0.238, -1.296e-6, -6.488e-7, 6.472e-7
-0.239, -1.294e-6, -6.488e-7, 6.457e-7
-0.240, -1.293e-6, -6.491e-7, 6.435e-7
-0.241, -1.295e-6, -6.479e-7, 6.469e-7
-0.242, -1.292e-6, -6.467e-7, 6.450e-7
-0.243, -1.290e-6, -6.479e-7, 6.423e-7
-0.244, -1.291e-6, -6.467e-7, 6.441e-7
-0.245, -1.285e-6, -6.439e-7, 6.414e-7
-0.246, -1.285e-6, -6.442e-7, 6.408e-7
-0.247, -1.285e-6, -6.442e-7, 6.405e-7
-0.248, -1.282e-6, -6.433e-7, 6.383e-7
-0.249, -1.283e-6, -6.446e-7, 6.383e-7
-0.250, -1.282e-6, -6.433e-7, 6.386e-7
-0.251, -1.278e-6, -6.406e-7, 6.377e-7
-0.252, -1.277e-6, -6.421e-7, 6.347e-7
-0.253, -1.279e-6, -6.436e-7, 6.356e-7
-0.254, -1.275e-6, -6.406e-7, 6.347e-7
-0.255, -1.273e-6, -6.406e-7, 6.319e-7
-0.256, -1.273e-6, -6.388e-7, 6.341e-7
-0.257, -1.269e-6, -6.366e-7, 6.328e-7
-0.258, -1.272e-6, -6.397e-7, 6.319e-7
-0.259, -1.270e-6, -6.388e-7, 6.316e-7
-0.260, -1.267e-6, -6.360e-7, 6.310e-7
-0.261, -1.266e-6, -6.378e-7, 6.286e-7
-0.262, -1.268e-6, -6.384e-7, 6.295e-7
-0.263, -1.266e-6, -6.363e-7, 6.295e-7
-0.264, -1.264e-6, -6.369e-7, 6.270e-7
-0.265, -1.264e-6, -6.363e-7, 6.277e-7
-0.266, -1.260e-6, -6.339e-7, 6.264e-7
-0.267, -1.261e-6, -6.348e-7, 6.258e-7
-0.268, -1.260e-6, -6.348e-7, 6.255e-7
-0.269, -1.258e-6, -6.336e-7, 6.243e-7
-0.270, -1.258e-6, -6.348e-7, 6.234e-7
-0.271, -1.256e-6, -6.330e-7, 6.228e-7
-0.272, -1.256e-6, -6.327e-7, 6.231e-7
-0.273, -1.254e-6, -6.330e-7, 6.209e-7
-0.274, -1.254e-6, -6.317e-7, 6.222e-7
-0.275, -1.252e-6, -6.308e-7, 6.215e-7
-0.276, -1.252e-6, -6.336e-7, 6.185e-7
-0.277, -1.252e-6, -6.311e-7, 6.209e-7
-0.278, -1.251e-6, -6.302e-7, 6.203e-7
-0.279, -1.247e-6, -6.305e-7, 6.170e-7
-0.280, -1.248e-6, -6.305e-7, 6.179e-7
-0.281, -1.246e-6, -6.290e-7, 6.173e-7
-0.282, -1.246e-6, -6.308e-7, 6.151e-7
-0.283, -1.246e-6, -6.302e-7, 6.161e-7
-0.284, -1.242e-6, -6.281e-7, 6.136e-7
-0.285, -1.242e-6, -6.296e-7, 6.121e-7
-0.286, -1.242e-6, -6.290e-7, 6.133e-7
-0.287, -1.242e-6, -6.287e-7, 6.133e-7
-0.288, -1.239e-6, -6.293e-7, 6.100e-7
-0.289, -1.240e-6, -6.290e-7, 6.112e-7
-0.290, -1.237e-6, -6.262e-7, 6.106e-7
-0.291, -1.235e-6, -6.284e-7, 6.069e-7
-0.292, -1.236e-6, -6.269e-7, 6.087e-7
-0.293, -1.235e-6, -6.256e-7, 6.093e-7
-0.294, -1.235e-6, -6.287e-7, 6.066e-7
-0.295, -1.235e-6, -6.269e-7, 6.078e-7
-0.296, -1.233e-6, -6.269e-7, 6.063e-7
-0.297, -1.231e-6, -6.265e-7, 6.042e-7
-0.298, -1.233e-6, -6.265e-7, 6.069e-7
-0.299, -1.229e-6, -6.256e-7, 6.032e-7
-0.300, -1.228e-6, -6.256e-7, 6.023e-7
-0.301, -1.227e-6, -6.244e-7, 6.026e-7
-0.302, -1.225e-6, -6.235e-7, 6.017e-7
-0.303, -1.225e-6, -6.247e-7, 6.002e-7
-0.304, -1.228e-6, -6.256e-7, 6.023e-7
-0.305, -1.226e-6, -6.241e-7, 6.014e-7
-0.306, -1.225e-6, -6.259e-7, 5.993e-7
-0.307, -1.223e-6, -6.241e-7, 5.990e-7
-0.308, -1.225e-6, -6.250e-7, 5.996e-7
-0.309, -1.221e-6, -6.250e-7, 5.956e-7
-0.310, -1.222e-6, -6.250e-7, 5.974e-7
-0.311, -1.219e-6, -6.220e-7, 5.971e-7
-0.312, -1.222e-6, -6.253e-7, 5.962e-7
-0.313, -1.221e-6, -6.244e-7, 5.965e-7
-0.314, -1.217e-6, -6.220e-7, 5.950e-7
-0.315, -1.216e-6, -6.226e-7, 5.932e-7
-0.316, -1.218e-6, -6.235e-7, 5.950e-7
-0.317, -1.214e-6, -6.214e-7, 5.929e-7
-0.318, -1.216e-6, -6.241e-7, 5.916e-7
-0.319, -1.217e-6, -6.241e-7, 5.926e-7
-0.320, -1.214e-6, -6.229e-7, 5.913e-7
-0.321, -1.212e-6, -6.223e-7, 5.901e-7
-0.322, -1.216e-6, -6.241e-7, 5.919e-7
-0.323, -1.211e-6, -6.223e-7, 5.889e-7
-0.324, -1.212e-6, -6.232e-7, 5.892e-7
-0.325, -1.212e-6, -6.232e-7, 5.889e-7
-0.326, -1.209e-6, -6.207e-7, 5.883e-7
-0.327, -1.209e-6, -6.226e-7, 5.865e-7
-0.328, -1.212e-6, -6.241e-7, 5.877e-7
-0.329, -1.206e-6, -6.201e-7, 5.855e-7
-0.330, -1.209e-6, -6.232e-7, 5.858e-7
-0.331, -1.209e-6, -6.223e-7, 5.865e-7
-0.332, -1.204e-6, -6.201e-7, 5.840e-7
-0.333, -1.205e-6, -6.217e-7, 5.831e-7
-0.334, -1.208e-6, -6.223e-7, 5.858e-7
-0.335, -1.205e-6, -6.211e-7, 5.843e-7
-0.336, -1.204e-6, -6.226e-7, 5.813e-7
-0.337, -1.205e-6, -6.223e-7, 5.828e-7
-0.338, -1.203e-6, -6.201e-7, 5.831e-7
-0.339, -1.200e-6, -6.214e-7, 5.791e-7
-0.340, -1.203e-6, -6.214e-7, 5.819e-7
-0.341, -1.198e-6, -6.195e-7, 5.788e-7
-0.342, -1.200e-6, -6.211e-7, 5.785e-7
-0.343, -1.200e-6, -6.220e-7, 5.785e-7
-0.344, -1.199e-6, -6.198e-7, 5.791e-7
-0.345, -1.198e-6, -6.204e-7, 5.773e-7
-0.346, -1.199e-6, -6.204e-7, 5.782e-7
-0.347, -1.197e-6, -6.189e-7, 5.782e-7
-0.348, -1.199e-6, -6.217e-7, 5.773e-7
-0.349, -1.197e-6, -6.214e-7, 5.761e-7
-0.350, -1.196e-6, -6.189e-7, 5.773e-7
-0.351, -1.193e-6, -6.204e-7, 5.721e-7
-0.352, -1.197e-6, -6.214e-7, 5.755e-7
-0.353, -1.193e-6, -6.189e-7, 5.742e-7
-0.354, -1.193e-6, -6.198e-7, 5.727e-7
-0.355, -1.193e-6, -6.198e-7, 5.733e-7
-0.356, -1.191e-6, -6.192e-7, 5.721e-7
-0.357, -1.191e-6, -6.201e-7, 5.709e-7
-0.358, -1.192e-6, -6.192e-7, 5.724e-7
-0.359, -1.191e-6, -6.198e-7, 5.715e-7
-0.360, -1.190e-6, -6.204e-7, 5.694e-7
-0.361, -1.190e-6, -6.201e-7, 5.697e-7
-0.362, -1.188e-6, -6.180e-7, 5.697e-7
-0.363, -1.190e-6, -6.201e-7, 5.694e-7
-0.364, -1.188e-6, -6.189e-7, 5.688e-7
-0.365, -1.186e-6, -6.168e-7, 5.688e-7
-0.366, -1.187e-6, -6.204e-7, 5.666e-7
-0.367, -1.189e-6, -6.204e-7, 5.685e-7
-0.368, -1.184e-6, -6.165e-7, 5.672e-7
-0.369, -1.185e-6, -6.186e-7, 5.666e-7
-0.370, -1.187e-6, -6.201e-7, 5.666e-7
-0.371, -1.185e-6, -6.180e-7, 5.666e-7
-0.372, -1.184e-6, -6.192e-7, 5.648e-7
-0.373, -1.184e-6, -6.186e-7, 5.654e-7
-0.374, -1.182e-6, -6.168e-7, 5.654e-7
-0.375, -1.182e-6, -6.183e-7, 5.639e-7
-0.376, -1.182e-6, -6.177e-7, 5.645e-7
-0.377, -1.182e-6, -6.174e-7, 5.651e-7
-0.378, -1.182e-6, -6.198e-7, 5.627e-7
-0.379, -1.181e-6, -6.171e-7, 5.639e-7
-0.380, -1.180e-6, -6.171e-7, 5.630e-7
-0.381, -1.181e-6, -6.183e-7, 5.623e-7
-0.382, -1.181e-6, -6.183e-7, 5.623e-7
-0.383, -1.178e-6, -6.162e-7, 5.614e-7
-0.384, -1.181e-6, -6.195e-7, 5.611e-7
-0.385, -1.181e-6, -6.186e-7, 5.623e-7
-0.386, -1.177e-6, -6.168e-7, 5.605e-7
-0.387, -1.177e-6, -6.174e-7, 5.593e-7
-0.388, -1.179e-6, -6.177e-7, 5.614e-7
-0.389, -1.175e-6, -6.153e-7, 5.599e-7
-0.390, -1.175e-6, -6.174e-7, 5.575e-7
-0.391, -1.177e-6, -6.174e-7, 5.593e-7
-0.392, -1.173e-6, -6.150e-7, 5.578e-7
-0.393, -1.174e-6, -6.168e-7, 5.575e-7
-0.394, -1.175e-6, -6.168e-7, 5.578e-7
-0.395, -1.172e-6, -6.143e-7, 5.578e-7
-0.396, -1.172e-6, -6.168e-7, 5.550e-7
-0.397, -1.173e-6, -6.162e-7, 5.572e-7
-0.398, -1.173e-6, -6.156e-7, 5.572e-7
-0.399, -1.170e-6, -6.153e-7, 5.547e-7
-0.400, -1.171e-6, -6.162e-7, 5.547e-7
-0.401, -1.171e-6, -6.143e-7, 5.562e-7
-0.402, -1.169e-6, -6.150e-7, 5.538e-7
-0.403, -1.170e-6, -6.159e-7, 5.544e-7
-0.404, -1.169e-6, -6.134e-7, 5.553e-7
-0.405, -1.168e-6, -6.156e-7, 5.520e-7
-0.406, -1.168e-6, -6.156e-7, 5.529e-7
-0.407, -1.168e-6, -6.140e-7, 5.541e-7
-0.408, -1.169e-6, -6.156e-7, 5.535e-7
-0.409, -1.168e-6, -6.153e-7, 5.532e-7
-0.410, -1.167e-6, -6.131e-7, 5.538e-7
-0.411, -1.164e-6, -6.137e-7, 5.508e-7
-0.412, -1.168e-6, -6.150e-7, 5.529e-7
-0.413, -1.163e-6, -6.131e-7, 5.498e-7
-0.414, -1.165e-6, -6.146e-7, 5.501e-7
-0.415, -1.165e-6, -6.137e-7, 5.514e-7
-0.416, -1.163e-6, -6.131e-7, 5.498e-7
-0.417, -1.162e-6, -6.131e-7, 5.489e-7
-0.418, -1.161e-6, -6.122e-7, 5.486e-7
-0.419, -1.163e-6, -6.122e-7, 5.504e-7
-0.420, -1.161e-6, -6.134e-7, 5.480e-7
-0.421, -1.163e-6, -6.140e-7, 5.492e-7
-0.422, -1.161e-6, -6.128e-7, 5.480e-7
-0.423, -1.159e-6, -6.131e-7, 5.462e-7
-0.424, -1.160e-6, -6.134e-7, 5.462e-7
-0.425, -1.160e-6, -6.119e-7, 5.477e-7
-0.426, -1.159e-6, -6.128e-7, 5.459e-7
-0.427, -1.159e-6, -6.122e-7, 5.468e-7
-0.428, -1.157e-6, -6.104e-7, 5.471e-7
-0.429, -1.159e-6, -6.116e-7, 5.471e-7
-0.430, -1.157e-6, -6.113e-7, 5.453e-7
-0.431, -1.157e-6, -6.116e-7, 5.459e-7
-0.432, -1.154e-6, -6.095e-7, 5.446e-7
-0.433, -1.156e-6, -6.104e-7, 5.453e-7
-0.434, -1.155e-6, -6.104e-7, 5.446e-7
-0.435, -1.154e-6, -6.116e-7, 5.422e-7
-0.436, -1.156e-6, -6.113e-7, 5.443e-7
-0.437, -1.153e-6, -6.095e-7, 5.437e-7
-0.438, -1.154e-6, -6.116e-7, 5.428e-7
-0.439, -1.156e-6, -6.110e-7, 5.446e-7
-0.440, -1.154e-6, -6.098e-7, 5.440e-7
-0.441, -1.152e-6, -6.107e-7, 5.416e-7
-0.442, -1.150e-6, -6.082e-7, 5.419e-7
-0.443, -1.151e-6, -6.088e-7, 5.419e-7
-0.444, -1.151e-6, -6.104e-7, 5.410e-7
-0.445, -1.151e-6, -6.095e-7, 5.413e-7
-0.446, -1.150e-6, -6.088e-7, 5.407e-7
-0.447, -1.149e-6, -6.085e-7, 5.407e-7
-0.448, -1.150e-6, -6.085e-7, 5.410e-7
-0.449, -1.147e-6, -6.070e-7, 5.401e-7
-0.450, -1.148e-6, -6.095e-7, 5.388e-7
-0.451, -1.146e-6, -6.082e-7, 5.376e-7
-0.452, -1.146e-6, -6.073e-7, 5.385e-7
-0.453, -1.145e-6, -6.079e-7, 5.367e-7
-0.454, -1.146e-6, -6.073e-7, 5.388e-7
-0.455, -1.142e-6, -6.055e-7, 5.367e-7
-0.456, -1.142e-6, -6.067e-7, 5.349e-7
-0.457, -1.143e-6, -6.070e-7, 5.364e-7
-0.458, -1.142e-6, -6.061e-7, 5.361e-7
-0.459, -1.142e-6, -6.061e-7, 5.355e-7
-0.460, -1.139e-6, -6.037e-7, 5.358e-7
-0.461, -1.141e-6, -6.046e-7, 5.361e-7
-0.462, -1.140e-6, -6.067e-7, 5.334e-7
-0.463, -1.142e-6, -6.067e-7, 5.355e-7
-0.464, -1.139e-6, -6.049e-7, 5.340e-7
-0.465, -1.140e-6, -6.061e-7, 5.337e-7
-0.466, -1.140e-6, -6.058e-7, 5.340e-7
-0.467, -1.138e-6, -6.049e-7, 5.327e-7
-0.468, -1.137e-6, -6.055e-7, 5.315e-7
-0.469, -1.136e-6, -6.043e-7, 5.321e-7
-0.470, -1.138e-6, -6.046e-7, 5.331e-7
-0.471, -1.136e-6, -6.052e-7, 5.312e-7
-0.472, -1.136e-6, -6.058e-7, 5.306e-7
-0.473, -1.132e-6, -6.024e-7, 5.300e-7
-0.474, -1.133e-6, -6.040e-7, 5.288e-7
-0.475, -1.135e-6, -6.052e-7, 5.297e-7
-0.476, -1.129e-6, -6.012e-7, 5.276e-7
-0.477, -1.132e-6, -6.037e-7, 5.285e-7
-0.478, -1.132e-6, -6.034e-7, 5.288e-7
-0.479, -1.131e-6, -6.021e-7, 5.285e-7
-0.480, -1.129e-6, -6.015e-7, 5.273e-7
-0.481, -1.131e-6, -6.021e-7, 5.285e-7
-0.482, -1.130e-6, -6.012e-7, 5.285e-7
-0.483, -1.127e-6, -6.015e-7, 5.257e-7
-0.484, -1.131e-6, -6.024e-7, 5.282e-7
-0.485, -1.125e-6, -6.015e-7, 5.236e-7
-0.486, -1.128e-6, -6.024e-7, 5.254e-7
-0.487, -1.126e-6, -6.009e-7, 5.248e-7
-0.488, -1.126e-6, -6.006e-7, 5.251e-7
-0.489, -1.124e-6, -6.006e-7, 5.230e-7
-0.490, -1.125e-6, -6.015e-7, 5.230e-7
-0.491, -1.123e-6, -6.003e-7, 5.224e-7
-0.492, -1.123e-6, -6.000e-7, 5.230e-7
-0.493, -1.124e-6, -6.009e-7, 5.230e-7
-0.494, -1.121e-6, -5.982e-7, 5.227e-7
-0.495, -1.123e-6, -6.012e-7, 5.221e-7
-0.496, -1.123e-6, -6.012e-7, 5.215e-7
-0.497, -1.117e-6, -5.966e-7, 5.202e-7
-0.498, -1.119e-6, -6.003e-7, 5.187e-7
-0.499, -1.120e-6, -6.006e-7, 5.196e-7
-0.500, -1.114e-6, -5.979e-7, 5.157e-7
-0.501, -1.116e-6, -5.985e-7, 5.178e-7
-0.502, -1.117e-6, -5.994e-7, 5.181e-7
-0.503, -1.114e-6, -5.963e-7, 5.178e-7
-0.504, -1.113e-6, -5.988e-7, 5.144e-7
-0.505, -1.113e-6, -5.976e-7, 5.154e-7
-0.506, -1.115e-6, -5.991e-7, 5.157e-7
-0.507, -1.110e-6, -5.969e-7, 5.129e-7
-0.508, -1.114e-6, -5.985e-7, 5.154e-7
-0.509, -1.110e-6, -5.973e-7, 5.132e-7
-0.510, -1.109e-6, -5.979e-7, 5.111e-7
-0.511, -1.110e-6, -5.979e-7, 5.120e-7
-0.512, -1.108e-6, -5.963e-7, 5.117e-7
-0.513, -1.108e-6, -5.966e-7, 5.111e-7
-0.514, -1.110e-6, -5.979e-7, 5.120e-7
-0.515, -1.105e-6, -5.945e-7, 5.102e-7
-0.516, -1.106e-6, -5.969e-7, 5.086e-7
-0.517, -1.107e-6, -5.966e-7, 5.105e-7
-0.518, -1.104e-6, -5.945e-7, 5.096e-7
-0.519, -1.104e-6, -5.963e-7, 5.077e-7
-0.520, -1.105e-6, -5.969e-7, 5.080e-7
-0.521, -1.103e-6, -5.957e-7, 5.074e-7
-0.522, -1.102e-6, -5.963e-7, 5.059e-7
-0.523, -1.103e-6, -5.957e-7, 5.068e-7
-0.524, -1.099e-6, -5.927e-7, 5.062e-7
-0.525, -1.099e-6, -5.945e-7, 5.044e-7
-0.526, -1.100e-6, -5.957e-7, 5.044e-7
-0.527, -1.099e-6, -5.963e-7, 5.028e-7
-0.528, -1.096e-6, -5.942e-7, 5.013e-7
-0.529, -1.096e-6, -5.942e-7, 5.019e-7
-0.530, -1.096e-6, -5.930e-7, 5.025e-7
-0.531, -1.096e-6, -5.948e-7, 5.010e-7
-0.532, -1.094e-6, -5.936e-7, 5.001e-7
-0.533, -1.092e-6, -5.939e-7, 4.977e-7
-0.534, -1.095e-6, -5.948e-7, 4.998e-7
-0.535, -1.094e-6, -5.948e-7, 4.995e-7
-0.536, -1.092e-6, -5.939e-7, 4.986e-7
-0.537, -1.090e-6, -5.939e-7, 4.964e-7
-0.538, -1.091e-6, -5.936e-7, 4.970e-7
-0.539, -1.090e-6, -5.936e-7, 4.961e-7
-0.540, -1.089e-6, -5.942e-7, 4.952e-7
-0.541, -1.088e-6, -5.936e-7, 4.949e-7
-0.542, -1.085e-6, -5.908e-7, 4.937e-7
-0.543, -1.086e-6, -5.936e-7, 4.928e-7
-0.544, -1.087e-6, -5.936e-7, 4.931e-7
-0.545, -1.086e-6, -5.933e-7, 4.931e-7
-0.546, -1.084e-6, -5.927e-7, 4.912e-7
-0.547, -1.086e-6, -5.939e-7, 4.922e-7
-0.548, -1.085e-6, -5.933e-7, 4.919e-7
-0.549, -1.080e-6, -5.924e-7, 4.879e-7
-0.550, -1.082e-6, -5.924e-7, 4.897e-7
-0.551, -1.080e-6, -5.912e-7, 4.891e-7
-0.552, -1.079e-6, -5.927e-7, 4.864e-7
-0.553, -1.079e-6, -5.930e-7, 4.858e-7
-0.554, -1.077e-6, -5.896e-7, 4.870e-7
-0.555, -1.076e-6, -5.915e-7, 4.848e-7
-0.556, -1.079e-6, -5.936e-7, 4.851e-7
-0.557, -1.077e-6, -5.921e-7, 4.845e-7
-0.558, -1.073e-6, -5.918e-7, 4.812e-7
-0.559, -1.074e-6, -5.918e-7, 4.824e-7
-0.560, -1.074e-6, -5.915e-7, 4.827e-7
-0.561, -1.073e-6, -5.924e-7, 4.803e-7
-0.562, -1.072e-6, -5.918e-7, 4.806e-7
-0.563, -1.070e-6, -5.905e-7, 4.793e-7
-0.564, -1.069e-6, -5.899e-7, 4.787e-7
-0.565, -1.071e-6, -5.915e-7, 4.793e-7
-0.566, -1.069e-6, -5.902e-7, 4.787e-7
-0.567, -1.067e-6, -5.918e-7, 4.757e-7
-0.568, -1.070e-6, -5.924e-7, 4.772e-7
-0.569, -1.067e-6, -5.915e-7, 4.760e-7
-0.570, -1.066e-6, -5.918e-7, 4.742e-7
-0.571, -1.067e-6, -5.930e-7, 4.739e-7
-0.572, -1.064e-6, -5.912e-7, 4.732e-7
-0.573, -1.063e-6, -5.912e-7, 4.714e-7
-0.574, -1.065e-6, -5.924e-7, 4.729e-7
-0.575, -1.064e-6, -5.912e-7, 4.726e-7
-0.576, -1.060e-6, -5.905e-7, 4.696e-7
-0.577, -1.063e-6, -5.918e-7, 4.714e-7
-0.578, -1.060e-6, -5.908e-7, 4.687e-7
-0.579, -1.058e-6, -5.905e-7, 4.671e-7
-0.580, -1.060e-6, -5.918e-7, 4.677e-7
-0.581, -1.057e-6, -5.908e-7, 4.665e-7
-0.582, -1.057e-6, -5.927e-7, 4.644e-7
-0.583, -1.055e-6, -5.912e-7, 4.635e-7
-0.584, -1.054e-6, -5.905e-7, 4.632e-7
-0.585, -1.057e-6, -5.924e-7, 4.644e-7
-0.586, -1.055e-6, -5.924e-7, 4.626e-7
-0.587, -1.055e-6, -5.924e-7, 4.623e-7
-0.588, -1.051e-6, -5.912e-7, 4.601e-7
-0.589, -1.053e-6, -5.924e-7, 4.604e-7
-0.590, -1.053e-6, -5.924e-7, 4.610e-7
-0.591, -1.050e-6, -5.918e-7, 4.580e-7
-0.592, -1.052e-6, -5.927e-7, 4.598e-7
-0.593, -1.050e-6, -5.921e-7, 4.577e-7
-0.594, -1.048e-6, -5.924e-7, 4.552e-7
-0.595, -1.050e-6, -5.933e-7, 4.571e-7
-0.596, -1.049e-6, -5.921e-7, 4.565e-7
-0.597, -1.049e-6, -5.933e-7, 4.552e-7
-0.598, -1.047e-6, -5.930e-7, 4.543e-7
-0.599, -1.047e-6, -5.924e-7, 4.543e-7
-0.600, -1.048e-6, -5.957e-7, 4.519e-7
-0.601, -1.044e-6, -5.924e-7, 4.513e-7
-0.602, -1.042e-6, -5.924e-7, 4.494e-7
-0.603, -1.043e-6, -5.933e-7, 4.500e-7
-0.604, -1.044e-6, -5.939e-7, 4.504e-7
-0.605, -1.042e-6, -5.936e-7, 4.488e-7
-0.606, -1.039e-6, -5.927e-7, 4.467e-7
-0.607, -1.043e-6, -5.936e-7, 4.494e-7
-0.608, -1.040e-6, -5.933e-7, 4.464e-7
-0.609, -1.038e-6, -5.942e-7, 4.439e-7
-0.610, -1.040e-6, -5.945e-7, 4.458e-7
-0.611, -1.038e-6, -5.951e-7, 4.430e-7
-0.612, -1.038e-6, -5.945e-7, 4.433e-7
-0.613, -1.038e-6, -5.948e-7, 4.430e-7
-0.614, -1.038e-6, -5.954e-7, 4.430e-7
-0.615, -1.036e-6, -5.951e-7, 4.409e-7
-0.616, -1.033e-6, -5.942e-7, 4.391e-7
-0.617, -1.034e-6, -5.948e-7, 4.394e-7
-0.618, -1.035e-6, -5.966e-7, 4.381e-7
-0.619, -1.034e-6, -5.960e-7, 4.385e-7
-0.620, -1.034e-6, -5.960e-7, 4.375e-7
-0.621, -1.034e-6, -5.970e-7, 4.366e-7
-0.622, -1.034e-6, -5.973e-7, 4.366e-7
-0.623, -1.032e-6, -5.973e-7, 4.351e-7
-0.624, -1.031e-6, -5.973e-7, 4.339e-7
-0.625, -1.031e-6, -5.976e-7, 4.330e-7
-0.626, -1.032e-6, -5.982e-7, 4.336e-7
-0.627, -1.030e-6, -5.982e-7, 4.317e-7
-0.628, -1.029e-6, -5.991e-7, 4.302e-7
-0.629, -1.030e-6, -5.991e-7, 4.308e-7
-0.630, -1.030e-6, -6.006e-7, 4.296e-7
-0.631, -1.030e-6, -6.012e-7, 4.284e-7
-0.632, -1.028e-6, -6.006e-7, 4.275e-7
-0.633, -1.027e-6, -6.006e-7, 4.259e-7
-0.634, -1.027e-6, -6.006e-7, 4.262e-7
-0.635, -1.025e-6, -6.009e-7, 4.241e-7
-0.636, -1.026e-6, -6.009e-7, 4.247e-7
-0.637, -1.026e-6, -6.018e-7, 4.241e-7
-0.638, -1.026e-6, -6.024e-7, 4.235e-7
-0.639, -1.025e-6, -6.018e-7, 4.229e-7
-0.640, -1.026e-6, -6.037e-7, 4.226e-7
-0.641, -1.026e-6, -6.034e-7, 4.223e-7
-0.642, -1.024e-6, -6.043e-7, 4.192e-7
-0.643, -1.024e-6, -6.037e-7, 4.198e-7
-0.644, -1.023e-6, -6.040e-7, 4.189e-7
-0.645, -1.024e-6, -6.064e-7, 4.177e-7
-0.646, -1.024e-6, -6.061e-7, 4.183e-7
-0.647, -1.023e-6, -6.052e-7, 4.174e-7
-0.648, -1.022e-6, -6.064e-7, 4.159e-7
-0.649, -1.022e-6, -6.070e-7, 4.150e-7
-0.650, -1.022e-6, -6.067e-7, 4.153e-7
-0.651, -1.021e-6, -6.085e-7, 4.125e-7
-0.652, -1.020e-6, -6.085e-7, 4.116e-7
-0.653, -1.022e-6, -6.092e-7, 4.131e-7
-0.654, -1.021e-6, -6.104e-7, 4.104e-7
-0.655, -1.020e-6, -6.107e-7, 4.095e-7
-0.656, -1.021e-6, -6.110e-7, 4.098e-7
-0.657, -1.020e-6, -6.107e-7, 4.092e-7
-0.658, -1.021e-6, -6.125e-7, 4.089e-7
-0.659, -1.020e-6, -6.128e-7, 4.076e-7
-0.660, -1.021e-6, -6.131e-7, 4.079e-7
-0.661, -1.020e-6, -6.134e-7, 4.064e-7
-0.662, -1.020e-6, -6.143e-7, 4.052e-7
-0.663, -1.020e-6, -6.153e-7, 4.049e-7
-0.664, -1.017e-6, -6.131e-7, 4.043e-7
-0.665, -1.019e-6, -6.150e-7, 4.037e-7
-0.666, -1.016e-6, -6.165e-7, 3.994e-7
-0.667, -1.019e-6, -6.186e-7, 4.000e-7
-0.668, -1.017e-6, -6.168e-7, 4.003e-7
-0.669, -1.018e-6, -6.189e-7, 3.988e-7
-0.670, -1.020e-6, -6.201e-7, 3.997e-7
-0.671, -1.019e-6, -6.195e-7, 3.991e-7
-0.672, -1.017e-6, -6.208e-7, 3.963e-7
-0.673, -1.018e-6, -6.214e-7, 3.963e-7
-0.674, -1.016e-6, -6.217e-7, 3.942e-7
-0.675, -1.016e-6, -6.217e-7, 3.939e-7
-0.676, -1.017e-6, -6.226e-7, 3.942e-7
-0.677, -1.016e-6, -6.241e-7, 3.918e-7
-0.678, -1.016e-6, -6.247e-7, 3.918e-7
-0.679, -1.018e-6, -6.259e-7, 3.918e-7
-0.680, -1.016e-6, -6.256e-7, 3.905e-7
-0.681, -1.016e-6, -6.275e-7, 3.884e-7
-0.682, -1.018e-6, -6.281e-7, 3.896e-7
-0.683, -1.017e-6, -6.290e-7, 3.881e-7
-0.684, -1.018e-6, -6.299e-7, 3.881e-7
-0.685, -1.017e-6, -6.299e-7, 3.872e-7
-0.686, -1.016e-6, -6.296e-7, 3.860e-7
-0.687, -1.017e-6, -6.327e-7, 3.847e-7
-0.688, -1.018e-6, -6.336e-7, 3.847e-7
-0.689, -1.016e-6, -6.336e-7, 3.829e-7
-0.690, -1.017e-6, -6.342e-7, 3.829e-7
-0.691, -1.017e-6, -6.357e-7, 3.811e-7
-0.692, -1.017e-6, -6.357e-7, 3.811e-7
-0.693, -1.018e-6, -6.381e-7, 3.799e-7
-0.694, -1.019e-6, -6.400e-7, 3.792e-7
-0.695, -1.016e-6, -6.388e-7, 3.777e-7
-0.696, -1.019e-6, -6.406e-7, 3.780e-7
-0.697, -1.016e-6, -6.400e-7, 3.762e-7
-0.698, -1.018e-6, -6.406e-7, 3.774e-7
-0.699, -1.021e-6, -6.439e-7, 3.771e-7
-0.700, -1.020e-6, -6.452e-7, 3.753e-7
-0.701, -1.021e-6, -6.455e-7, 3.756e-7
-0.702, -1.020e-6, -6.473e-7, 3.725e-7
-0.703, -1.020e-6, -6.473e-7, 3.728e-7
-0.704, -1.020e-6, -6.485e-7, 3.719e-7
-0.705, -1.020e-6, -6.500e-7, 3.704e-7
-0.706, -1.023e-6, -6.528e-7, 3.698e-7
-0.707, -1.023e-6, -6.531e-7, 3.701e-7
-0.708, -1.022e-6, -6.537e-7, 3.680e-7
-0.709, -1.022e-6, -6.543e-7, 3.680e-7
-0.710, -1.023e-6, -6.562e-7, 3.670e-7
-0.711, -1.024e-6, -6.577e-7, 3.658e-7
-0.712, -1.024e-6, -6.592e-7, 3.643e-7
-0.713, -1.023e-6, -6.580e-7, 3.652e-7
-0.714, -1.026e-6, -6.613e-7, 3.643e-7
-0.715, -1.023e-6, -6.610e-7, 3.616e-7
-0.716, -1.027e-6, -6.638e-7, 3.628e-7
-0.717, -1.023e-6, -6.629e-7, 3.603e-7
-0.718, -1.027e-6, -6.662e-7, 3.606e-7
-0.719, -1.026e-6, -6.668e-7, 3.591e-7
-0.720, -1.027e-6, -6.690e-7, 3.585e-7
-0.721, -1.026e-6, -6.677e-7, 3.585e-7
-0.722, -1.029e-6, -6.714e-7, 3.579e-7
-0.723, -1.029e-6, -6.726e-7, 3.564e-7
-0.724, -1.029e-6, -6.739e-7, 3.554e-7
-0.725, -1.027e-6, -6.732e-7, 3.542e-7
-0.726, -1.031e-6, -6.766e-7, 3.545e-7
-0.727, -1.030e-6, -6.781e-7, 3.521e-7
-0.728, -1.031e-6, -6.775e-7, 3.536e-7
-0.729, -1.031e-6, -6.803e-7, 3.503e-7
-0.730, -1.035e-6, -6.833e-7, 3.515e-7
-0.731, -1.033e-6, -6.833e-7, 3.500e-7
-0.732, -1.034e-6, -6.864e-7, 3.475e-7
-0.733, -1.034e-6, -6.851e-7, 3.484e-7
-0.734, -1.035e-6, -6.876e-7, 3.472e-7
-0.735, -1.035e-6, -6.894e-7, 3.460e-7
-0.736, -1.037e-6, -6.916e-7, 3.454e-7
-0.737, -1.038e-6, -6.928e-7, 3.451e-7
-0.738, -1.037e-6, -6.940e-7, 3.426e-7
-0.739, -1.038e-6, -6.961e-7, 3.423e-7
-0.740, -1.041e-6, -6.989e-7, 3.417e-7
-0.741, -1.041e-6, -7.001e-7, 3.408e-7
-0.742, -1.041e-6, -7.007e-7, 3.402e-7
-0.743, -1.043e-6, -7.031e-7, 3.399e-7
-0.744, -1.043e-6, -7.041e-7, 3.387e-7
-0.745, -1.045e-6, -7.062e-7, 3.390e-7
-0.746, -1.044e-6, -7.068e-7, 3.374e-7
-0.747, -1.046e-6, -7.111e-7, 3.350e-7
-0.748, -1.046e-6, -7.108e-7, 3.350e-7
-0.749, -1.049e-6, -7.138e-7, 3.347e-7
-0.750, -1.049e-6, -7.160e-7, 3.332e-7
-0.751, -1.050e-6, -7.178e-7, 3.326e-7
-0.752, -1.050e-6, -7.184e-7, 3.319e-7
-0.753, -1.052e-6, -7.212e-7, 3.304e-7
-0.754, -1.052e-6, -7.218e-7, 3.301e-7
-0.755, -1.054e-6, -7.242e-7, 3.301e-7
-0.756, -1.054e-6, -7.263e-7, 3.274e-7
-0.757, -1.056e-6, -7.282e-7, 3.277e-7
-0.758, -1.056e-6, -7.297e-7, 3.258e-7
-0.759, -1.057e-6, -7.321e-7, 3.252e-7
-0.760, -1.058e-6, -7.346e-7, 3.231e-7
-0.761, -1.060e-6, -7.355e-7, 3.240e-7
-0.762, -1.061e-6, -7.382e-7, 3.225e-7
-0.763, -1.062e-6, -7.401e-7, 3.216e-7
-0.764, -1.062e-6, -7.407e-7, 3.216e-7
-0.765, -1.065e-6, -7.450e-7, 3.204e-7
-0.766, -1.068e-6, -7.468e-7, 3.213e-7
-0.767, -1.065e-6, -7.477e-7, 3.176e-7
-0.768, -1.067e-6, -7.508e-7, 3.167e-7
-0.769, -1.069e-6, -7.532e-7, 3.158e-7
-0.770, -1.070e-6, -7.547e-7, 3.155e-7
-0.771, -1.071e-6, -7.578e-7, 3.130e-7
-0.772, -1.075e-6, -7.605e-7, 3.149e-7
-0.773, -1.073e-6, -7.602e-7, 3.124e-7
-0.774, -1.075e-6, -7.630e-7, 3.118e-7
-0.775, -1.078e-6, -7.660e-7, 3.115e-7
-0.776, -1.076e-6, -7.669e-7, 3.091e-7
-0.777, -1.080e-6, -7.712e-7, 3.085e-7
-0.778, -1.080e-6, -7.730e-7, 3.072e-7
-0.779, -1.084e-6, -7.749e-7, 3.091e-7
-0.780, -1.083e-6, -7.776e-7, 3.057e-7
-0.781, -1.086e-6, -7.810e-7, 3.054e-7
-0.782, -1.085e-6, -7.807e-7, 3.048e-7
-0.783, -1.088e-6, -7.852e-7, 3.033e-7
-0.784, -1.091e-6, -7.877e-7, 3.030e-7
-0.785, -1.091e-6, -7.886e-7, 3.027e-7
-0.786, -1.091e-6, -7.923e-7, 2.990e-7
-0.787, -1.094e-6, -7.944e-7, 2.999e-7
-0.788, -1.094e-6, -7.944e-7, 2.999e-7
-0.789, -1.096e-6, -7.987e-7, 2.972e-7
-0.790, -1.098e-6, -8.023e-7, 2.956e-7
-0.791, -1.100e-6, -8.035e-7, 2.966e-7
-0.792, -1.101e-6, -8.072e-7, 2.941e-7
-0.793, -1.104e-6, -8.103e-7, 2.941e-7
-0.794, -1.103e-6, -8.103e-7, 2.932e-7
-0.795, -1.107e-6, -8.154e-7, 2.911e-7
-0.796, -1.109e-6, -8.182e-7, 2.904e-7
-0.797, -1.108e-6, -8.191e-7, 2.892e-7
-0.798, -1.111e-6, -8.225e-7, 2.889e-7
-0.799, -1.113e-6, -8.249e-7, 2.877e-7
-0.800, -1.113e-6, -8.261e-7, 2.865e-7
