Feb. 28, 2018   11:19:42
Square Wave Voltammetry
File: c:\users\electrochemist\desktop\2018\28022018_unbuffered_9,2\6_e2_9,2_0118_ph4,47_5.txt
Data Source:  Experiment
Instrument Model:  CHI1040A
Header: 
Note: 

Init E (V) = 0.5
Final E (V) = -0.05
Incr E (V) = 0.001
Amplitude (V) = 0.1
Frequency (Hz) = 150
Quiet Time (sec) = 0
Sensitivity (A/V) = 1e-6

Difference:

Forward:

Reverse:

Potential/V, Diff(i/A), For(i/A), Rev(i/A)

0.499, -5.273e-7, -1.358e-7, 3.915e-7
0.498, -6.594e-7, -3.162e-7, 3.433e-7
0.497, -6.543e-7, -3.293e-7, 3.249e-7
0.496, -6.503e-7, -3.339e-7, 3.164e-7
0.495, -6.448e-7, -3.360e-7, 3.088e-7
0.494, -6.445e-7, -3.403e-7, 3.042e-7
0.493, -6.427e-7, -3.415e-7, 3.011e-7
0.492, -6.408e-7, -3.424e-7, 2.984e-7
0.491, -6.408e-7, -3.458e-7, 2.950e-7
0.490, -6.411e-7, -3.473e-7, 2.938e-7
0.489, -6.411e-7, -3.476e-7, 2.935e-7
0.488, -6.387e-7, -3.495e-7, 2.892e-7
0.487, -6.405e-7, -3.513e-7, 2.892e-7
0.486, -6.378e-7, -3.495e-7, 2.883e-7
0.485, -6.408e-7, -3.549e-7, 2.859e-7
0.484, -6.411e-7, -3.543e-7, 2.868e-7
0.483, -6.396e-7, -3.546e-7, 2.850e-7
0.482, -6.427e-7, -3.568e-7, 2.859e-7
0.481, -6.411e-7, -3.568e-7, 2.844e-7
0.480, -6.436e-7, -3.580e-7, 2.856e-7
0.479, -6.430e-7, -3.589e-7, 2.841e-7
0.478, -6.430e-7, -3.607e-7, 2.822e-7
0.477, -6.463e-7, -3.607e-7, 2.856e-7
0.476, -6.448e-7, -3.629e-7, 2.819e-7
0.475, -6.460e-7, -3.641e-7, 2.819e-7
0.474, -6.472e-7, -3.644e-7, 2.828e-7
0.473, -6.469e-7, -3.647e-7, 2.822e-7
0.472, -6.479e-7, -3.662e-7, 2.816e-7
0.471, -6.485e-7, -3.656e-7, 2.828e-7
0.470, -6.521e-7, -3.693e-7, 2.828e-7
0.469, -6.527e-7, -3.711e-7, 2.816e-7
0.468, -6.543e-7, -3.708e-7, 2.834e-7
0.467, -6.527e-7, -3.720e-7, 2.807e-7
0.466, -6.561e-7, -3.736e-7, 2.825e-7
0.465, -6.570e-7, -3.733e-7, 2.837e-7
0.464, -6.576e-7, -3.763e-7, 2.813e-7
0.463, -6.601e-7, -3.772e-7, 2.828e-7
0.462, -6.591e-7, -3.775e-7, 2.816e-7
0.461, -6.619e-7, -3.791e-7, 2.828e-7
0.460, -6.604e-7, -3.788e-7, 2.816e-7
0.459, -6.622e-7, -3.791e-7, 2.831e-7
0.458, -6.637e-7, -3.833e-7, 2.804e-7
0.457, -6.665e-7, -3.821e-7, 2.844e-7
0.456, -6.668e-7, -3.830e-7, 2.837e-7
0.455, -6.692e-7, -3.864e-7, 2.828e-7
0.454, -6.689e-7, -3.845e-7, 2.844e-7
0.453, -6.686e-7, -3.855e-7, 2.831e-7
0.452, -6.723e-7, -3.882e-7, 2.841e-7
0.451, -6.759e-7, -3.910e-7, 2.850e-7
0.450, -6.759e-7, -3.897e-7, 2.862e-7
0.449, -6.756e-7, -3.919e-7, 2.837e-7
0.448, -6.775e-7, -3.922e-7, 2.853e-7
0.447, -6.784e-7, -3.925e-7, 2.859e-7
0.446, -6.808e-7, -3.955e-7, 2.853e-7
0.445, -6.814e-7, -3.955e-7, 2.859e-7
0.444, -6.832e-7, -3.980e-7, 2.853e-7
0.443, -6.829e-7, -3.986e-7, 2.844e-7
0.442, -6.869e-7, -3.992e-7, 2.877e-7
0.441, -6.890e-7, -4.019e-7, 2.871e-7
0.440, -6.878e-7, -4.013e-7, 2.865e-7
0.439, -6.906e-7, -4.026e-7, 2.880e-7
0.438, -6.924e-7, -4.044e-7, 2.880e-7
0.437, -6.948e-7, -4.056e-7, 2.892e-7
0.436, -6.955e-7, -4.071e-7, 2.883e-7
0.435, -6.967e-7, -4.068e-7, 2.899e-7
0.434, -6.970e-7, -4.093e-7, 2.877e-7
0.433, -7.006e-7, -4.108e-7, 2.899e-7
0.432, -7.006e-7, -4.111e-7, 2.895e-7
0.431, -7.028e-7, -4.129e-7, 2.899e-7
0.430, -7.046e-7, -4.145e-7, 2.902e-7
0.429, -7.064e-7, -4.151e-7, 2.914e-7
0.428, -7.083e-7, -4.169e-7, 2.914e-7
0.427, -7.125e-7, -4.184e-7, 2.941e-7
0.426, -7.113e-7, -4.199e-7, 2.914e-7
0.425, -7.147e-7, -4.230e-7, 2.917e-7
0.424, -7.165e-7, -4.230e-7, 2.935e-7
0.423, -7.168e-7, -4.227e-7, 2.941e-7
0.422, -7.171e-7, -4.236e-7, 2.935e-7
0.421, -7.208e-7, -4.254e-7, 2.953e-7
0.420, -7.205e-7, -4.270e-7, 2.935e-7
0.419, -7.229e-7, -4.288e-7, 2.941e-7
0.418, -7.244e-7, -4.294e-7, 2.950e-7
0.417, -7.235e-7, -4.297e-7, 2.938e-7
0.416, -7.302e-7, -4.331e-7, 2.972e-7
0.415, -7.305e-7, -4.331e-7, 2.975e-7
0.414, -7.321e-7, -4.340e-7, 2.981e-7
0.413, -7.333e-7, -4.358e-7, 2.975e-7
0.412, -7.342e-7, -4.361e-7, 2.981e-7
0.411, -7.370e-7, -4.386e-7, 2.984e-7
0.410, -7.394e-7, -4.413e-7, 2.981e-7
0.409, -7.406e-7, -4.419e-7, 2.987e-7
0.408, -7.437e-7, -4.431e-7, 3.005e-7
0.407, -7.434e-7, -4.428e-7, 3.005e-7
0.406, -7.449e-7, -4.450e-7, 2.999e-7
0.405, -7.464e-7, -4.465e-7, 2.999e-7
0.404, -7.498e-7, -4.480e-7, 3.018e-7
0.403, -7.513e-7, -4.499e-7, 3.014e-7
0.402, -7.525e-7, -4.508e-7, 3.018e-7
0.401, -7.556e-7, -4.523e-7, 3.033e-7
0.400, -7.577e-7, -4.538e-7, 3.039e-7
0.399, -7.589e-7, -4.550e-7, 3.039e-7
0.398, -7.611e-7, -4.563e-7, 3.048e-7
0.397, -7.623e-7, -4.569e-7, 3.054e-7
0.396, -7.644e-7, -4.593e-7, 3.051e-7
0.395, -7.690e-7, -4.627e-7, 3.063e-7
0.394, -7.659e-7, -4.602e-7, 3.057e-7
0.393, -7.711e-7, -4.630e-7, 3.082e-7
0.392, -7.717e-7, -4.645e-7, 3.072e-7
0.391, -7.748e-7, -4.657e-7, 3.091e-7
0.390, -7.766e-7, -4.663e-7, 3.103e-7
0.389, -7.782e-7, -4.685e-7, 3.097e-7
0.388, -7.818e-7, -4.700e-7, 3.118e-7
0.387, -7.812e-7, -4.715e-7, 3.097e-7
0.386, -7.849e-7, -4.727e-7, 3.121e-7
0.385, -7.882e-7, -4.746e-7, 3.137e-7
0.384, -7.867e-7, -4.758e-7, 3.109e-7
0.383, -7.897e-7, -4.764e-7, 3.133e-7
0.382, -7.946e-7, -4.795e-7, 3.152e-7
0.381, -7.943e-7, -4.804e-7, 3.140e-7
0.380, -7.974e-7, -4.819e-7, 3.155e-7
0.379, -7.986e-7, -4.819e-7, 3.167e-7
0.378, -8.007e-7, -4.856e-7, 3.152e-7
0.377, -8.026e-7, -4.871e-7, 3.155e-7
0.376, -8.038e-7, -4.865e-7, 3.173e-7
0.375, -8.065e-7, -4.901e-7, 3.164e-7
0.374, -8.093e-7, -4.904e-7, 3.188e-7
0.373, -8.105e-7, -4.907e-7, 3.198e-7
0.372, -8.132e-7, -4.941e-7, 3.191e-7
0.371, -8.154e-7, -4.941e-7, 3.213e-7
0.370, -8.157e-7, -4.944e-7, 3.213e-7
0.369, -8.197e-7, -4.975e-7, 3.222e-7
0.368, -8.221e-7, -5.008e-7, 3.213e-7
0.367, -8.218e-7, -4.975e-7, 3.243e-7
0.366, -8.236e-7, -5.002e-7, 3.234e-7
0.365, -8.267e-7, -5.030e-7, 3.237e-7
0.364, -8.294e-7, -5.045e-7, 3.249e-7
0.363, -8.303e-7, -5.057e-7, 3.246e-7
0.362, -8.349e-7, -5.084e-7, 3.265e-7
0.361, -8.377e-7, -5.087e-7, 3.289e-7
0.360, -8.352e-7, -5.087e-7, 3.265e-7
0.359, -8.380e-7, -5.100e-7, 3.280e-7
0.358, -8.404e-7, -5.106e-7, 3.298e-7
0.357, -8.416e-7, -5.130e-7, 3.286e-7
0.356, -8.471e-7, -5.161e-7, 3.310e-7
0.355, -8.465e-7, -5.149e-7, 3.317e-7
0.354, -8.468e-7, -5.164e-7, 3.304e-7
0.353, -8.535e-7, -5.203e-7, 3.332e-7
0.352, -8.529e-7, -5.194e-7, 3.335e-7
0.351, -8.547e-7, -5.219e-7, 3.329e-7
0.350, -8.602e-7, -5.249e-7, 3.353e-7
0.349, -8.587e-7, -5.225e-7, 3.362e-7
0.348, -8.599e-7, -5.255e-7, 3.344e-7
0.347, -8.630e-7, -5.261e-7, 3.368e-7
0.346, -8.663e-7, -5.268e-7, 3.396e-7
0.345, -8.663e-7, -5.292e-7, 3.371e-7
0.344, -8.694e-7, -5.304e-7, 3.390e-7
0.343, -8.724e-7, -5.316e-7, 3.408e-7
0.342, -8.721e-7, -5.319e-7, 3.402e-7
0.341, -8.746e-7, -5.338e-7, 3.408e-7
0.340, -8.764e-7, -5.344e-7, 3.420e-7
0.339, -8.776e-7, -5.365e-7, 3.411e-7
0.338, -8.813e-7, -5.387e-7, 3.426e-7
0.337, -8.825e-7, -5.371e-7, 3.454e-7
0.336, -8.816e-7, -5.380e-7, 3.436e-7
0.335, -8.859e-7, -5.408e-7, 3.451e-7
0.334, -8.889e-7, -5.411e-7, 3.478e-7
0.333, -8.883e-7, -5.429e-7, 3.454e-7
0.332, -8.914e-7, -5.429e-7, 3.484e-7
0.331, -8.935e-7, -5.432e-7, 3.503e-7
0.330, -8.935e-7, -5.448e-7, 3.487e-7
0.329, -8.987e-7, -5.481e-7, 3.506e-7
0.328, -8.987e-7, -5.469e-7, 3.518e-7
0.327, -8.969e-7, -5.466e-7, 3.503e-7
0.326, -9.017e-7, -5.503e-7, 3.515e-7
0.325, -9.033e-7, -5.487e-7, 3.545e-7
0.324, -9.036e-7, -5.512e-7, 3.524e-7
0.323, -9.097e-7, -5.536e-7, 3.561e-7
0.322, -9.103e-7, -5.527e-7, 3.576e-7
0.321, -9.088e-7, -5.539e-7, 3.548e-7
0.320, -9.121e-7, -5.557e-7, 3.564e-7
0.319, -9.127e-7, -5.548e-7, 3.579e-7
0.318, -9.127e-7, -5.557e-7, 3.570e-7
0.317, -9.149e-7, -5.573e-7, 3.576e-7
0.316, -9.191e-7, -5.585e-7, 3.606e-7
0.315, -9.197e-7, -5.597e-7, 3.600e-7
0.314, -9.204e-7, -5.591e-7, 3.613e-7
0.313, -9.219e-7, -5.585e-7, 3.634e-7
0.312, -9.228e-7, -5.609e-7, 3.619e-7
0.311, -9.274e-7, -5.637e-7, 3.637e-7
0.310, -9.265e-7, -5.622e-7, 3.643e-7
0.309, -9.280e-7, -5.637e-7, 3.643e-7
0.308, -9.307e-7, -5.646e-7, 3.661e-7
0.307, -9.313e-7, -5.625e-7, 3.689e-7
0.306, -9.323e-7, -5.664e-7, 3.658e-7
0.305, -9.350e-7, -5.655e-7, 3.695e-7
0.304, -9.347e-7, -5.649e-7, 3.698e-7
0.303, -9.356e-7, -5.673e-7, 3.683e-7
0.302, -9.390e-7, -5.689e-7, 3.701e-7
0.301, -9.384e-7, -5.661e-7, 3.722e-7
0.300, -9.393e-7, -5.695e-7, 3.698e-7
0.299, -9.435e-7, -5.701e-7, 3.735e-7
0.298, -9.408e-7, -5.664e-7, 3.744e-7
0.297, -9.423e-7, -5.689e-7, 3.735e-7
0.296, -9.460e-7, -5.719e-7, 3.741e-7
0.295, -9.457e-7, -5.698e-7, 3.759e-7
0.294, -9.472e-7, -5.710e-7, 3.762e-7
0.293, -9.518e-7, -5.744e-7, 3.774e-7
0.292, -9.497e-7, -5.707e-7, 3.790e-7
0.291, -9.490e-7, -5.713e-7, 3.777e-7
0.290, -9.548e-7, -5.741e-7, 3.808e-7
0.289, -9.536e-7, -5.722e-7, 3.814e-7
0.288, -9.530e-7, -5.731e-7, 3.799e-7
0.287, -9.561e-7, -5.744e-7, 3.817e-7
0.286, -9.567e-7, -5.741e-7, 3.826e-7
0.285, -9.555e-7, -5.731e-7, 3.823e-7
0.284, -9.582e-7, -5.741e-7, 3.841e-7
0.283, -9.570e-7, -5.722e-7, 3.848e-7
0.282, -9.573e-7, -5.737e-7, 3.835e-7
0.281, -9.603e-7, -5.753e-7, 3.851e-7
0.280, -9.603e-7, -5.741e-7, 3.863e-7
0.279, -9.588e-7, -5.728e-7, 3.860e-7
0.278, -9.628e-7, -5.747e-7, 3.881e-7
0.277, -9.616e-7, -5.725e-7, 3.890e-7
0.276, -9.612e-7, -5.747e-7, 3.866e-7
0.275, -9.655e-7, -5.747e-7, 3.909e-7
0.274, -9.661e-7, -5.731e-7, 3.930e-7
0.273, -9.652e-7, -5.750e-7, 3.902e-7
0.272, -9.664e-7, -5.744e-7, 3.921e-7
0.271, -9.661e-7, -5.722e-7, 3.939e-7
0.270, -9.661e-7, -5.747e-7, 3.915e-7
0.269, -9.670e-7, -5.744e-7, 3.927e-7
0.268, -9.683e-7, -5.713e-7, 3.970e-7
0.267, -9.701e-7, -5.756e-7, 3.945e-7
0.266, -9.704e-7, -5.744e-7, 3.960e-7
0.265, -9.683e-7, -5.695e-7, 3.988e-7
0.264, -9.707e-7, -5.731e-7, 3.976e-7
0.263, -9.719e-7, -5.731e-7, 3.988e-7
0.262, -9.710e-7, -5.710e-7, 4.000e-7
0.261, -9.695e-7, -5.722e-7, 3.973e-7
0.260, -9.707e-7, -5.716e-7, 3.991e-7
0.259, -9.698e-7, -5.701e-7, 3.997e-7
0.258, -9.713e-7, -5.713e-7, 4.000e-7
0.257, -9.731e-7, -5.713e-7, 4.018e-7
0.256, -9.701e-7, -5.676e-7, 4.025e-7
0.255, -9.710e-7, -5.692e-7, 4.018e-7
0.254, -9.725e-7, -5.689e-7, 4.037e-7
0.253, -9.738e-7, -5.686e-7, 4.052e-7
0.252, -9.710e-7, -5.686e-7, 4.025e-7
0.251, -9.735e-7, -5.686e-7, 4.049e-7
0.250, -9.725e-7, -5.661e-7, 4.064e-7
0.249, -9.731e-7, -5.670e-7, 4.061e-7
0.248, -9.731e-7, -5.670e-7, 4.061e-7
0.247, -9.716e-7, -5.637e-7, 4.079e-7
0.246, -9.722e-7, -5.646e-7, 4.076e-7
0.245, -9.725e-7, -5.646e-7, 4.079e-7
0.244, -9.750e-7, -5.646e-7, 4.104e-7
0.243, -9.725e-7, -5.634e-7, 4.092e-7
0.242, -9.744e-7, -5.637e-7, 4.107e-7
0.241, -9.698e-7, -5.594e-7, 4.104e-7
0.240, -9.695e-7, -5.606e-7, 4.089e-7
0.239, -9.713e-7, -5.603e-7, 4.110e-7
0.238, -9.701e-7, -5.585e-7, 4.116e-7
0.237, -9.704e-7, -5.597e-7, 4.107e-7
0.236, -9.713e-7, -5.591e-7, 4.122e-7
0.235, -9.689e-7, -5.551e-7, 4.137e-7
0.234, -9.683e-7, -5.557e-7, 4.125e-7
0.233, -9.683e-7, -5.551e-7, 4.131e-7
0.232, -9.674e-7, -5.539e-7, 4.134e-7
0.231, -9.658e-7, -5.545e-7, 4.113e-7
0.230, -9.701e-7, -5.554e-7, 4.147e-7
0.229, -9.646e-7, -5.503e-7, 4.144e-7
0.228, -9.664e-7, -5.524e-7, 4.140e-7
0.227, -9.664e-7, -5.512e-7, 4.153e-7
0.226, -9.640e-7, -5.481e-7, 4.159e-7
0.225, -9.652e-7, -5.496e-7, 4.156e-7
0.224, -9.628e-7, -5.487e-7, 4.140e-7
0.223, -9.628e-7, -5.469e-7, 4.159e-7
0.222, -9.594e-7, -5.454e-7, 4.140e-7
0.221, -9.646e-7, -5.457e-7, 4.189e-7
0.220, -9.616e-7, -5.445e-7, 4.171e-7
0.219, -9.582e-7, -5.435e-7, 4.147e-7
0.218, -9.579e-7, -5.426e-7, 4.153e-7
0.217, -9.597e-7, -5.414e-7, 4.183e-7
0.216, -9.594e-7, -5.405e-7, 4.189e-7
0.215, -9.579e-7, -5.399e-7, 4.180e-7
0.214, -9.555e-7, -5.371e-7, 4.183e-7
0.213, -9.548e-7, -5.384e-7, 4.165e-7
0.212, -9.548e-7, -5.368e-7, 4.180e-7
0.211, -9.524e-7, -5.344e-7, 4.180e-7
0.210, -9.518e-7, -5.347e-7, 4.171e-7
0.209, -9.512e-7, -5.322e-7, 4.189e-7
0.208, -9.487e-7, -5.310e-7, 4.177e-7
0.207, -9.500e-7, -5.319e-7, 4.180e-7
0.206, -9.490e-7, -5.310e-7, 4.180e-7
0.205, -9.451e-7, -5.274e-7, 4.177e-7
0.204, -9.451e-7, -5.274e-7, 4.177e-7
0.203, -9.457e-7, -5.277e-7, 4.180e-7
0.202, -9.454e-7, -5.255e-7, 4.198e-7
0.201, -9.417e-7, -5.249e-7, 4.168e-7
0.200, -9.426e-7, -5.240e-7, 4.186e-7
0.199, -9.405e-7, -5.222e-7, 4.183e-7
0.198, -9.368e-7, -5.210e-7, 4.159e-7
0.197, -9.393e-7, -5.210e-7, 4.183e-7
0.196, -9.350e-7, -5.179e-7, 4.171e-7
0.195, -9.350e-7, -5.179e-7, 4.171e-7
0.194, -9.365e-7, -5.170e-7, 4.195e-7
0.193, -9.332e-7, -5.145e-7, 4.186e-7
0.192, -9.304e-7, -5.152e-7, 4.153e-7
0.191, -9.313e-7, -5.127e-7, 4.186e-7
0.190, -9.301e-7, -5.121e-7, 4.180e-7
0.189, -9.298e-7, -5.127e-7, 4.171e-7
0.188, -9.280e-7, -5.103e-7, 4.177e-7
0.187, -9.249e-7, -5.084e-7, 4.165e-7
0.186, -9.240e-7, -5.078e-7, 4.162e-7
0.185, -9.234e-7, -5.075e-7, 4.159e-7
0.184, -9.222e-7, -5.057e-7, 4.165e-7
0.183, -9.194e-7, -5.045e-7, 4.150e-7
0.182, -9.182e-7, -5.039e-7, 4.144e-7
0.181, -9.167e-7, -5.008e-7, 4.159e-7
0.180, -9.149e-7, -5.014e-7, 4.134e-7
0.179, -9.173e-7, -5.014e-7, 4.159e-7
0.178, -9.130e-7, -4.984e-7, 4.147e-7
0.177, -9.072e-7, -4.962e-7, 4.110e-7
0.176, -9.121e-7, -4.981e-7, 4.140e-7
0.175, -9.075e-7, -4.953e-7, 4.122e-7
0.174, -9.069e-7, -4.953e-7, 4.116e-7
0.173, -9.069e-7, -4.935e-7, 4.134e-7
0.172, -9.045e-7, -4.923e-7, 4.122e-7
0.171, -9.005e-7, -4.917e-7, 4.089e-7
0.170, -9.030e-7, -4.923e-7, 4.107e-7
0.169, -9.002e-7, -4.892e-7, 4.110e-7
0.168, -8.990e-7, -4.895e-7, 4.095e-7
0.167, -8.984e-7, -4.886e-7, 4.098e-7
0.166, -8.962e-7, -4.868e-7, 4.095e-7
0.165, -8.926e-7, -4.853e-7, 4.073e-7
0.164, -8.920e-7, -4.846e-7, 4.073e-7
0.163, -8.914e-7, -4.828e-7, 4.086e-7
0.162, -8.874e-7, -4.825e-7, 4.049e-7
0.161, -8.889e-7, -4.810e-7, 4.079e-7
0.160, -8.853e-7, -4.788e-7, 4.064e-7
0.159, -8.810e-7, -4.792e-7, 4.018e-7
0.158, -8.825e-7, -4.779e-7, 4.046e-7
0.157, -8.813e-7, -4.770e-7, 4.043e-7
0.156, -8.764e-7, -4.761e-7, 4.003e-7
0.155, -8.767e-7, -4.737e-7, 4.031e-7
0.154, -8.767e-7, -4.727e-7, 4.040e-7
0.153, -8.718e-7, -4.715e-7, 4.003e-7
0.152, -8.721e-7, -4.715e-7, 4.006e-7
0.151, -8.706e-7, -4.700e-7, 4.006e-7
0.150, -8.697e-7, -4.697e-7, 4.000e-7
0.149, -8.688e-7, -4.694e-7, 3.994e-7
0.148, -8.642e-7, -4.660e-7, 3.982e-7
0.147, -8.639e-7, -4.673e-7, 3.967e-7
0.146, -8.636e-7, -4.657e-7, 3.979e-7
0.145, -8.609e-7, -4.636e-7, 3.973e-7
0.144, -8.575e-7, -4.624e-7, 3.951e-7
0.143, -8.572e-7, -4.624e-7, 3.948e-7
0.142, -8.557e-7, -4.615e-7, 3.942e-7
0.141, -8.551e-7, -4.618e-7, 3.933e-7
0.140, -8.535e-7, -4.587e-7, 3.948e-7
0.139, -8.493e-7, -4.575e-7, 3.918e-7
0.138, -8.508e-7, -4.593e-7, 3.915e-7
0.137, -8.483e-7, -4.572e-7, 3.912e-7
0.136, -8.459e-7, -4.553e-7, 3.905e-7
0.135, -8.444e-7, -4.557e-7, 3.887e-7
0.134, -8.432e-7, -4.557e-7, 3.875e-7
0.133, -8.410e-7, -4.526e-7, 3.884e-7
0.132, -8.380e-7, -4.520e-7, 3.860e-7
0.131, -8.383e-7, -4.508e-7, 3.875e-7
0.130, -8.337e-7, -4.496e-7, 3.841e-7
0.129, -8.316e-7, -4.489e-7, 3.826e-7
0.128, -8.346e-7, -4.492e-7, 3.854e-7
0.127, -8.313e-7, -4.474e-7, 3.838e-7
0.126, -8.294e-7, -4.477e-7, 3.817e-7
0.125, -8.297e-7, -4.471e-7, 3.826e-7
0.124, -8.251e-7, -4.447e-7, 3.805e-7
0.123, -8.245e-7, -4.453e-7, 3.793e-7
0.122, -8.239e-7, -4.453e-7, 3.786e-7
0.121, -8.212e-7, -4.416e-7, 3.796e-7
0.120, -8.190e-7, -4.425e-7, 3.765e-7
0.119, -8.166e-7, -4.410e-7, 3.756e-7
0.118, -8.154e-7, -4.389e-7, 3.765e-7
0.117, -8.132e-7, -4.386e-7, 3.747e-7
0.116, -8.136e-7, -4.386e-7, 3.750e-7
0.115, -8.099e-7, -4.367e-7, 3.732e-7
0.114, -8.111e-7, -4.383e-7, 3.728e-7
0.113, -8.093e-7, -4.373e-7, 3.719e-7
0.112, -8.053e-7, -4.352e-7, 3.701e-7
0.111, -8.053e-7, -4.355e-7, 3.698e-7
0.110, -8.041e-7, -4.343e-7, 3.698e-7
0.109, -8.026e-7, -4.325e-7, 3.701e-7
0.108, -7.986e-7, -4.325e-7, 3.661e-7
0.107, -8.004e-7, -4.322e-7, 3.683e-7
0.106, -7.955e-7, -4.288e-7, 3.667e-7
0.105, -7.949e-7, -4.303e-7, 3.646e-7
0.104, -7.934e-7, -4.291e-7, 3.643e-7
0.103, -7.919e-7, -4.276e-7, 3.643e-7
0.102, -7.907e-7, -4.276e-7, 3.631e-7
0.101, -7.876e-7, -4.267e-7, 3.609e-7
0.100, -7.870e-7, -4.261e-7, 3.609e-7
0.099, -7.855e-7, -4.251e-7, 3.603e-7
0.098, -7.833e-7, -4.245e-7, 3.588e-7
0.097, -7.827e-7, -4.236e-7, 3.591e-7
0.096, -7.803e-7, -4.230e-7, 3.573e-7
0.095, -7.782e-7, -4.224e-7, 3.558e-7
0.094, -7.772e-7, -4.221e-7, 3.552e-7
0.093, -7.754e-7, -4.203e-7, 3.552e-7
0.092, -7.742e-7, -4.196e-7, 3.545e-7
0.091, -7.748e-7, -4.193e-7, 3.555e-7
0.090, -7.708e-7, -4.187e-7, 3.521e-7
0.089, -7.708e-7, -4.175e-7, 3.533e-7
0.088, -7.693e-7, -4.166e-7, 3.527e-7
0.087, -7.687e-7, -4.181e-7, 3.506e-7
0.086, -7.663e-7, -4.166e-7, 3.497e-7
0.085, -7.647e-7, -4.154e-7, 3.494e-7
0.084, -7.617e-7, -4.142e-7, 3.475e-7
0.083, -7.617e-7, -4.145e-7, 3.472e-7
0.082, -7.592e-7, -4.123e-7, 3.469e-7
0.081, -7.592e-7, -4.123e-7, 3.469e-7
0.080, -7.586e-7, -4.123e-7, 3.463e-7
0.079, -7.550e-7, -4.099e-7, 3.451e-7
0.078, -7.556e-7, -4.111e-7, 3.445e-7
0.077, -7.534e-7, -4.096e-7, 3.439e-7
0.076, -7.510e-7, -4.084e-7, 3.426e-7
0.075, -7.495e-7, -4.081e-7, 3.414e-7
0.074, -7.489e-7, -4.077e-7, 3.411e-7
0.073, -7.464e-7, -4.059e-7, 3.405e-7
0.072, -7.458e-7, -4.068e-7, 3.390e-7
0.071, -7.428e-7, -4.059e-7, 3.368e-7
0.070, -7.428e-7, -4.044e-7, 3.384e-7
0.069, -7.391e-7, -4.032e-7, 3.359e-7
0.068, -7.391e-7, -4.032e-7, 3.359e-7
0.067, -7.400e-7, -4.038e-7, 3.362e-7
0.066, -7.363e-7, -4.016e-7, 3.347e-7
0.065, -7.367e-7, -4.013e-7, 3.353e-7
0.064, -7.345e-7, -4.010e-7, 3.335e-7
0.063, -7.339e-7, -4.007e-7, 3.332e-7
0.062, -7.309e-7, -3.995e-7, 3.313e-7
0.061, -7.299e-7, -3.986e-7, 3.313e-7
0.060, -7.302e-7, -3.992e-7, 3.310e-7
0.059, -7.309e-7, -3.980e-7, 3.329e-7
0.058, -7.260e-7, -3.965e-7, 3.295e-7
0.057, -7.257e-7, -3.965e-7, 3.292e-7
0.056, -7.241e-7, -3.952e-7, 3.289e-7
0.055, -7.238e-7, -3.958e-7, 3.280e-7
0.054, -7.205e-7, -3.937e-7, 3.268e-7
0.053, -7.220e-7, -3.949e-7, 3.271e-7
0.052, -7.186e-7, -3.925e-7, 3.262e-7
0.051, -7.162e-7, -3.922e-7, 3.240e-7
0.050, -7.153e-7, -3.913e-7, 3.240e-7
0.049, -7.165e-7, -3.916e-7, 3.249e-7
0.048, -7.125e-7, -3.904e-7, 3.222e-7
0.047, -7.125e-7, -3.894e-7, 3.231e-7
0.046, -7.107e-7, -3.888e-7, 3.219e-7
0.045, -7.110e-7, -3.885e-7, 3.225e-7
0.044, -7.095e-7, -3.879e-7, 3.216e-7
0.043, -7.101e-7, -3.885e-7, 3.216e-7
0.042, -7.074e-7, -3.870e-7, 3.204e-7
0.041, -7.049e-7, -3.858e-7, 3.191e-7
0.040, -7.043e-7, -3.852e-7, 3.191e-7
0.039, -7.022e-7, -3.855e-7, 3.167e-7
0.038, -7.025e-7, -3.849e-7, 3.176e-7
0.037, -7.013e-7, -3.836e-7, 3.176e-7
0.036, -7.013e-7, -3.846e-7, 3.167e-7
0.035, -6.991e-7, -3.821e-7, 3.170e-7
0.034, -6.961e-7, -3.806e-7, 3.155e-7
0.033, -6.961e-7, -3.818e-7, 3.143e-7
0.032, -6.973e-7, -3.809e-7, 3.164e-7
0.031, -6.945e-7, -3.800e-7, 3.146e-7
0.030, -6.933e-7, -3.797e-7, 3.136e-7
0.029, -6.912e-7, -3.781e-7, 3.130e-7
0.028, -6.897e-7, -3.781e-7, 3.115e-7
0.027, -6.900e-7, -3.769e-7, 3.130e-7
0.026, -6.894e-7, -3.778e-7, 3.115e-7
0.025, -6.887e-7, -3.769e-7, 3.118e-7
0.024, -6.881e-7, -3.769e-7, 3.112e-7
0.023, -6.872e-7, -3.763e-7, 3.109e-7
0.022, -6.869e-7, -3.754e-7, 3.115e-7
0.021, -6.857e-7, -3.748e-7, 3.109e-7
0.020, -6.839e-7, -3.745e-7, 3.094e-7
0.019, -6.823e-7, -3.730e-7, 3.094e-7
0.018, -6.823e-7, -3.736e-7, 3.088e-7
0.017, -6.802e-7, -3.720e-7, 3.082e-7
0.016, -6.784e-7, -3.714e-7, 3.069e-7
0.015, -6.784e-7, -3.708e-7, 3.075e-7
0.014, -6.781e-7, -3.708e-7, 3.072e-7
0.013, -6.750e-7, -3.690e-7, 3.060e-7
0.012, -6.765e-7, -3.699e-7, 3.066e-7
0.011, -6.753e-7, -3.687e-7, 3.066e-7
0.010, -6.747e-7, -3.687e-7, 3.060e-7
0.009, -6.723e-7, -3.678e-7, 3.045e-7
0.008, -6.726e-7, -3.690e-7, 3.036e-7
0.007, -6.707e-7, -3.659e-7, 3.048e-7
0.006, -6.698e-7, -3.659e-7, 3.039e-7
0.005, -6.689e-7, -3.650e-7, 3.039e-7
0.004, -6.671e-7, -3.647e-7, 3.024e-7
0.003, -6.680e-7, -3.662e-7, 3.017e-7
0.002, -6.665e-7, -3.644e-7, 3.021e-7
0.001, -6.631e-7, -3.620e-7, 3.011e-7
-0.000, -6.637e-7, -3.629e-7, 3.008e-7
-0.001, -6.634e-7, -3.620e-7, 3.014e-7
-0.002, -6.628e-7, -3.617e-7, 3.011e-7
-0.003, -6.643e-7, -3.623e-7, 3.021e-7
-0.004, -6.610e-7, -3.604e-7, 3.005e-7
-0.005, -6.591e-7, -3.595e-7, 2.996e-7
-0.006, -6.582e-7, -3.583e-7, 2.999e-7
-0.007, -6.585e-7, -3.586e-7, 2.999e-7
-0.008, -6.564e-7, -3.580e-7, 2.984e-7
-0.009, -6.558e-7, -3.577e-7, 2.981e-7
-0.010, -6.552e-7, -3.571e-7, 2.981e-7
-0.011, -6.549e-7, -3.565e-7, 2.984e-7
-0.012, -6.552e-7, -3.562e-7, 2.990e-7
-0.013, -6.533e-7, -3.553e-7, 2.981e-7
-0.014, -6.518e-7, -3.550e-7, 2.969e-7
-0.015, -6.515e-7, -3.540e-7, 2.975e-7
-0.016, -6.506e-7, -3.531e-7, 2.975e-7
-0.017, -6.482e-7, -3.531e-7, 2.950e-7
-0.018, -6.506e-7, -3.540e-7, 2.966e-7
-0.019, -6.485e-7, -3.522e-7, 2.963e-7
-0.020, -6.485e-7, -3.528e-7, 2.956e-7
-0.021, -6.472e-7, -3.519e-7, 2.953e-7
-0.022, -6.442e-7, -3.498e-7, 2.944e-7
-0.023, -6.414e-7, -3.498e-7, 2.917e-7
-0.024, -6.457e-7, -3.507e-7, 2.950e-7
-0.025, -6.439e-7, -3.492e-7, 2.947e-7
-0.026, -6.411e-7, -3.492e-7, 2.920e-7
-0.027, -6.421e-7, -3.495e-7, 2.926e-7
-0.028, -6.402e-7, -3.473e-7, 2.929e-7
-0.029, -6.408e-7, -3.479e-7, 2.929e-7
-0.030, -6.402e-7, -3.476e-7, 2.926e-7
-0.031, -6.378e-7, -3.458e-7, 2.920e-7
-0.032, -6.369e-7, -3.461e-7, 2.908e-7
-0.033, -6.369e-7, -3.458e-7, 2.911e-7
-0.034, -6.375e-7, -3.449e-7, 2.926e-7
-0.035, -6.369e-7, -3.458e-7, 2.911e-7
-0.036, -6.360e-7, -3.452e-7, 2.908e-7
-0.037, -6.347e-7, -3.437e-7, 2.911e-7
-0.038, -6.326e-7, -3.431e-7, 2.895e-7
-0.039, -6.347e-7, -3.437e-7, 2.911e-7
-0.040, -6.314e-7, -3.421e-7, 2.892e-7
-0.041, -6.308e-7, -3.412e-7, 2.895e-7
-0.042, -6.298e-7, -3.409e-7, 2.889e-7
-0.043, -6.298e-7, -3.409e-7, 2.889e-7
-0.044, -6.277e-7, -3.403e-7, 2.874e-7
-0.045, -6.292e-7, -3.400e-7, 2.892e-7
-0.046, -6.268e-7, -3.391e-7, 2.877e-7
-0.047, -6.256e-7, -3.385e-7, 2.871e-7
-0.048, -6.250e-7, -3.379e-7, 2.871e-7
-0.049, -6.240e-7, -3.373e-7, 2.868e-7
-0.050, -6.244e-7, -3.376e-7, 2.868e-7
