Feb. 28, 2018   11:19:37
Square Wave Voltammetry
File: c:\users\electrochemist\desktop\2018\28022018_unbuffered_9,2\6_e2_9,2_0118_ph4,47_4.txt
Data Source:  Experiment
Instrument Model:  CHI1040A
Header: 
Note: 

Init E (V) = 0.5
Final E (V) = -0.05
Incr E (V) = 0.001
Amplitude (V) = 0.1
Frequency (Hz) = 150
Quiet Time (sec) = 0
Sensitivity (A/V) = 1e-6

Difference:

Forward:

Reverse:

Potential/V, Diff(i/A), For(i/A), Rev(i/A)

0.499, -5.288e-7, -1.358e-7, 3.930e-7
0.498, -6.607e-7, -3.171e-7, 3.436e-7
0.497, -6.524e-7, -3.287e-7, 3.237e-7
0.496, -6.500e-7, -3.342e-7, 3.158e-7
0.495, -6.466e-7, -3.372e-7, 3.094e-7
0.494, -6.427e-7, -3.391e-7, 3.036e-7
0.493, -6.442e-7, -3.430e-7, 3.011e-7
0.492, -6.408e-7, -3.421e-7, 2.987e-7
0.491, -6.417e-7, -3.464e-7, 2.953e-7
0.490, -6.411e-7, -3.476e-7, 2.935e-7
0.489, -6.399e-7, -3.464e-7, 2.935e-7
0.488, -6.390e-7, -3.501e-7, 2.889e-7
0.487, -6.427e-7, -3.516e-7, 2.911e-7
0.486, -6.393e-7, -3.510e-7, 2.883e-7
0.485, -6.381e-7, -3.513e-7, 2.868e-7
0.484, -6.402e-7, -3.537e-7, 2.865e-7
0.483, -6.396e-7, -3.543e-7, 2.853e-7
0.482, -6.433e-7, -3.571e-7, 2.862e-7
0.481, -6.430e-7, -3.580e-7, 2.850e-7
0.480, -6.421e-7, -3.580e-7, 2.841e-7
0.479, -6.439e-7, -3.598e-7, 2.841e-7
0.478, -6.427e-7, -3.598e-7, 2.828e-7
0.477, -6.436e-7, -3.604e-7, 2.831e-7
0.476, -6.448e-7, -3.629e-7, 2.819e-7
0.475, -6.479e-7, -3.653e-7, 2.825e-7
0.474, -6.469e-7, -3.641e-7, 2.828e-7
0.473, -6.479e-7, -3.656e-7, 2.822e-7
0.472, -6.521e-7, -3.687e-7, 2.834e-7
0.471, -6.500e-7, -3.665e-7, 2.834e-7
0.470, -6.515e-7, -3.693e-7, 2.822e-7
0.469, -6.527e-7, -3.708e-7, 2.819e-7
0.468, -6.518e-7, -3.699e-7, 2.819e-7
0.467, -6.540e-7, -3.726e-7, 2.813e-7
0.466, -6.533e-7, -3.730e-7, 2.804e-7
0.465, -6.540e-7, -3.720e-7, 2.819e-7
0.464, -6.561e-7, -3.745e-7, 2.816e-7
0.463, -6.594e-7, -3.772e-7, 2.822e-7
0.462, -6.601e-7, -3.775e-7, 2.825e-7
0.461, -6.604e-7, -3.781e-7, 2.822e-7
0.460, -6.625e-7, -3.809e-7, 2.816e-7
0.459, -6.622e-7, -3.794e-7, 2.828e-7
0.458, -6.637e-7, -3.815e-7, 2.822e-7
0.457, -6.656e-7, -3.824e-7, 2.831e-7
0.456, -6.698e-7, -3.845e-7, 2.853e-7
0.455, -6.677e-7, -3.858e-7, 2.819e-7
0.454, -6.707e-7, -3.870e-7, 2.837e-7
0.453, -6.692e-7, -3.861e-7, 2.831e-7
0.452, -6.720e-7, -3.876e-7, 2.844e-7
0.451, -6.753e-7, -3.903e-7, 2.850e-7
0.450, -6.741e-7, -3.882e-7, 2.859e-7
0.449, -6.765e-7, -3.922e-7, 2.844e-7
0.448, -6.796e-7, -3.934e-7, 2.862e-7
0.447, -6.799e-7, -3.940e-7, 2.859e-7
0.446, -6.817e-7, -3.958e-7, 2.859e-7
0.445, -6.817e-7, -3.952e-7, 2.865e-7
0.444, -6.826e-7, -3.965e-7, 2.862e-7
0.443, -6.857e-7, -4.001e-7, 2.856e-7
0.442, -6.866e-7, -3.995e-7, 2.871e-7
0.441, -6.872e-7, -4.004e-7, 2.868e-7
0.440, -6.890e-7, -4.016e-7, 2.874e-7
0.439, -6.924e-7, -4.047e-7, 2.877e-7
0.438, -6.924e-7, -4.041e-7, 2.883e-7
0.437, -6.921e-7, -4.050e-7, 2.871e-7
0.436, -6.967e-7, -4.071e-7, 2.895e-7
0.435, -6.988e-7, -4.068e-7, 2.920e-7
0.434, -6.985e-7, -4.099e-7, 2.886e-7
0.433, -7.013e-7, -4.108e-7, 2.905e-7
0.432, -7.040e-7, -4.117e-7, 2.923e-7
0.431, -7.022e-7, -4.117e-7, 2.905e-7
0.430, -7.067e-7, -4.169e-7, 2.898e-7
0.429, -7.052e-7, -4.132e-7, 2.920e-7
0.428, -7.086e-7, -4.178e-7, 2.908e-7
0.427, -7.107e-7, -4.184e-7, 2.923e-7
0.426, -7.113e-7, -4.187e-7, 2.926e-7
0.425, -7.125e-7, -4.203e-7, 2.923e-7
0.424, -7.165e-7, -4.224e-7, 2.941e-7
0.423, -7.162e-7, -4.230e-7, 2.932e-7
0.422, -7.168e-7, -4.236e-7, 2.932e-7
0.421, -7.211e-7, -4.251e-7, 2.960e-7
0.420, -7.217e-7, -4.270e-7, 2.947e-7
0.419, -7.199e-7, -4.273e-7, 2.926e-7
0.418, -7.257e-7, -4.297e-7, 2.960e-7
0.417, -7.269e-7, -4.297e-7, 2.972e-7
0.416, -7.281e-7, -4.331e-7, 2.950e-7
0.415, -7.302e-7, -4.340e-7, 2.963e-7
0.414, -7.330e-7, -4.334e-7, 2.996e-7
0.413, -7.333e-7, -4.367e-7, 2.966e-7
0.412, -7.360e-7, -4.367e-7, 2.993e-7
0.411, -7.354e-7, -4.373e-7, 2.981e-7
0.410, -7.388e-7, -4.404e-7, 2.984e-7
0.409, -7.409e-7, -4.413e-7, 2.996e-7
0.408, -7.409e-7, -4.413e-7, 2.996e-7
0.407, -7.431e-7, -4.431e-7, 2.999e-7
0.406, -7.452e-7, -4.447e-7, 3.005e-7
0.405, -7.498e-7, -4.474e-7, 3.024e-7
0.404, -7.495e-7, -4.483e-7, 3.011e-7
0.403, -7.534e-7, -4.502e-7, 3.033e-7
0.402, -7.510e-7, -4.495e-7, 3.014e-7
0.401, -7.534e-7, -4.517e-7, 3.018e-7
0.400, -7.571e-7, -4.541e-7, 3.030e-7
0.399, -7.583e-7, -4.535e-7, 3.048e-7
0.398, -7.611e-7, -4.563e-7, 3.048e-7
0.397, -7.635e-7, -4.572e-7, 3.063e-7
0.396, -7.681e-7, -4.608e-7, 3.072e-7
0.395, -7.659e-7, -4.605e-7, 3.054e-7
0.394, -7.714e-7, -4.633e-7, 3.082e-7
0.393, -7.708e-7, -4.630e-7, 3.079e-7
0.392, -7.721e-7, -4.642e-7, 3.079e-7
0.391, -7.757e-7, -4.660e-7, 3.097e-7
0.390, -7.782e-7, -4.685e-7, 3.097e-7
0.389, -7.794e-7, -4.685e-7, 3.109e-7
0.388, -7.815e-7, -4.706e-7, 3.109e-7
0.387, -7.843e-7, -4.715e-7, 3.127e-7
0.386, -7.873e-7, -4.764e-7, 3.109e-7
0.385, -7.891e-7, -4.755e-7, 3.137e-7
0.384, -7.891e-7, -4.752e-7, 3.140e-7
0.383, -7.928e-7, -4.798e-7, 3.130e-7
0.382, -7.925e-7, -4.782e-7, 3.143e-7
0.381, -7.952e-7, -4.798e-7, 3.155e-7
0.380, -7.965e-7, -4.831e-7, 3.133e-7
0.379, -8.007e-7, -4.837e-7, 3.170e-7
0.378, -7.995e-7, -4.840e-7, 3.155e-7
0.377, -8.035e-7, -4.868e-7, 3.167e-7
0.376, -8.071e-7, -4.889e-7, 3.182e-7
0.375, -8.056e-7, -4.877e-7, 3.179e-7
0.374, -8.087e-7, -4.898e-7, 3.188e-7
0.373, -8.126e-7, -4.929e-7, 3.198e-7
0.372, -8.126e-7, -4.926e-7, 3.201e-7
0.371, -8.139e-7, -4.941e-7, 3.198e-7
0.370, -8.166e-7, -4.953e-7, 3.213e-7
0.369, -8.175e-7, -4.975e-7, 3.201e-7
0.368, -8.212e-7, -4.990e-7, 3.222e-7
0.367, -8.227e-7, -5.005e-7, 3.222e-7
0.366, -8.248e-7, -4.999e-7, 3.249e-7
0.365, -8.288e-7, -5.042e-7, 3.246e-7
0.364, -8.303e-7, -5.042e-7, 3.262e-7
0.363, -8.306e-7, -5.039e-7, 3.268e-7
0.362, -8.313e-7, -5.060e-7, 3.252e-7
0.361, -8.370e-7, -5.103e-7, 3.268e-7
0.360, -8.377e-7, -5.087e-7, 3.289e-7
0.359, -8.395e-7, -5.109e-7, 3.286e-7
0.358, -8.432e-7, -5.130e-7, 3.301e-7
0.357, -8.410e-7, -5.124e-7, 3.286e-7
0.356, -8.438e-7, -5.139e-7, 3.298e-7
0.355, -8.468e-7, -5.161e-7, 3.307e-7
0.354, -8.483e-7, -5.170e-7, 3.314e-7
0.353, -8.511e-7, -5.191e-7, 3.320e-7
0.352, -8.529e-7, -5.188e-7, 3.341e-7
0.351, -8.566e-7, -5.231e-7, 3.335e-7
0.350, -8.581e-7, -5.231e-7, 3.350e-7
0.349, -8.581e-7, -5.237e-7, 3.344e-7
0.348, -8.618e-7, -5.249e-7, 3.368e-7
0.347, -8.615e-7, -5.252e-7, 3.362e-7
0.346, -8.642e-7, -5.268e-7, 3.375e-7
0.345, -8.660e-7, -5.264e-7, 3.396e-7
0.344, -8.694e-7, -5.304e-7, 3.390e-7
0.343, -8.703e-7, -5.310e-7, 3.393e-7
0.342, -8.706e-7, -5.307e-7, 3.399e-7
0.341, -8.749e-7, -5.341e-7, 3.408e-7
0.340, -8.743e-7, -5.332e-7, 3.411e-7
0.339, -8.776e-7, -5.359e-7, 3.417e-7
0.338, -8.807e-7, -5.374e-7, 3.433e-7
0.337, -8.810e-7, -5.377e-7, 3.433e-7
0.336, -8.843e-7, -5.396e-7, 3.448e-7
0.335, -8.856e-7, -5.405e-7, 3.451e-7
0.334, -8.901e-7, -5.423e-7, 3.478e-7
0.333, -8.871e-7, -5.405e-7, 3.466e-7
0.332, -8.917e-7, -5.429e-7, 3.487e-7
0.331, -8.917e-7, -5.432e-7, 3.484e-7
0.330, -8.959e-7, -5.457e-7, 3.503e-7
0.329, -8.959e-7, -5.463e-7, 3.497e-7
0.328, -8.990e-7, -5.481e-7, 3.509e-7
0.327, -8.981e-7, -5.469e-7, 3.512e-7
0.326, -9.020e-7, -5.509e-7, 3.512e-7
0.325, -9.024e-7, -5.499e-7, 3.524e-7
0.324, -9.063e-7, -5.521e-7, 3.542e-7
0.323, -9.060e-7, -5.518e-7, 3.542e-7
0.322, -9.066e-7, -5.524e-7, 3.542e-7
0.321, -9.082e-7, -5.524e-7, 3.558e-7
0.320, -9.106e-7, -5.551e-7, 3.555e-7
0.319, -9.136e-7, -5.557e-7, 3.579e-7
0.318, -9.143e-7, -5.567e-7, 3.576e-7
0.317, -9.164e-7, -5.573e-7, 3.591e-7
0.316, -9.170e-7, -5.582e-7, 3.588e-7
0.315, -9.179e-7, -5.573e-7, 3.606e-7
0.314, -9.204e-7, -5.588e-7, 3.616e-7
0.313, -9.197e-7, -5.594e-7, 3.603e-7
0.312, -9.216e-7, -5.603e-7, 3.613e-7
0.311, -9.246e-7, -5.612e-7, 3.634e-7
0.310, -9.268e-7, -5.612e-7, 3.655e-7
0.309, -9.292e-7, -5.634e-7, 3.658e-7
0.308, -9.286e-7, -5.631e-7, 3.655e-7
0.307, -9.298e-7, -5.622e-7, 3.677e-7
0.306, -9.332e-7, -5.646e-7, 3.686e-7
0.305, -9.338e-7, -5.655e-7, 3.683e-7
0.304, -9.341e-7, -5.652e-7, 3.689e-7
0.303, -9.350e-7, -5.664e-7, 3.686e-7
0.302, -9.378e-7, -5.670e-7, 3.707e-7
0.301, -9.393e-7, -5.670e-7, 3.722e-7
0.300, -9.402e-7, -5.686e-7, 3.716e-7
0.299, -9.423e-7, -5.695e-7, 3.729e-7
0.298, -9.420e-7, -5.686e-7, 3.735e-7
0.297, -9.435e-7, -5.695e-7, 3.741e-7
0.296, -9.454e-7, -5.698e-7, 3.756e-7
0.295, -9.429e-7, -5.686e-7, 3.744e-7
0.294, -9.448e-7, -5.695e-7, 3.753e-7
0.293, -9.478e-7, -5.701e-7, 3.777e-7
0.292, -9.487e-7, -5.707e-7, 3.780e-7
0.291, -9.481e-7, -5.716e-7, 3.765e-7
0.290, -9.497e-7, -5.710e-7, 3.786e-7
0.289, -9.509e-7, -5.719e-7, 3.790e-7
0.288, -9.518e-7, -5.713e-7, 3.805e-7
0.287, -9.518e-7, -5.713e-7, 3.805e-7
0.286, -9.555e-7, -5.725e-7, 3.829e-7
0.285, -9.527e-7, -5.731e-7, 3.796e-7
0.284, -9.545e-7, -5.710e-7, 3.835e-7
0.283, -9.539e-7, -5.719e-7, 3.820e-7
0.282, -9.555e-7, -5.725e-7, 3.829e-7
0.281, -9.582e-7, -5.737e-7, 3.844e-7
0.280, -9.591e-7, -5.728e-7, 3.863e-7
0.279, -9.594e-7, -5.737e-7, 3.857e-7
0.278, -9.628e-7, -5.747e-7, 3.881e-7
0.277, -9.609e-7, -5.725e-7, 3.884e-7
0.276, -9.609e-7, -5.734e-7, 3.875e-7
0.275, -9.625e-7, -5.716e-7, 3.909e-7
0.274, -9.634e-7, -5.731e-7, 3.902e-7
0.273, -9.643e-7, -5.741e-7, 3.902e-7
0.272, -9.658e-7, -5.744e-7, 3.915e-7
0.271, -9.640e-7, -5.716e-7, 3.924e-7
0.270, -9.646e-7, -5.725e-7, 3.921e-7
0.269, -9.646e-7, -5.722e-7, 3.924e-7
0.268, -9.661e-7, -5.728e-7, 3.933e-7
0.267, -9.674e-7, -5.731e-7, 3.942e-7
0.266, -9.683e-7, -5.737e-7, 3.945e-7
0.265, -9.677e-7, -5.710e-7, 3.967e-7
0.264, -9.674e-7, -5.719e-7, 3.954e-7
0.263, -9.680e-7, -5.713e-7, 3.967e-7
0.262, -9.674e-7, -5.710e-7, 3.963e-7
0.261, -9.695e-7, -5.713e-7, 3.982e-7
0.260, -9.704e-7, -5.716e-7, 3.988e-7
0.259, -9.686e-7, -5.701e-7, 3.985e-7
0.258, -9.692e-7, -5.689e-7, 4.003e-7
0.257, -9.701e-7, -5.689e-7, 4.012e-7
0.256, -9.698e-7, -5.680e-7, 4.018e-7
0.255, -9.701e-7, -5.683e-7, 4.018e-7
0.254, -9.716e-7, -5.698e-7, 4.018e-7
0.253, -9.716e-7, -5.680e-7, 4.037e-7
0.252, -9.680e-7, -5.670e-7, 4.009e-7
0.251, -9.728e-7, -5.676e-7, 4.052e-7
0.250, -9.695e-7, -5.646e-7, 4.049e-7
0.249, -9.713e-7, -5.667e-7, 4.046e-7
0.248, -9.719e-7, -5.655e-7, 4.064e-7
0.247, -9.704e-7, -5.631e-7, 4.073e-7
0.246, -9.695e-7, -5.643e-7, 4.052e-7
0.245, -9.707e-7, -5.631e-7, 4.076e-7
0.244, -9.701e-7, -5.615e-7, 4.086e-7
0.243, -9.689e-7, -5.615e-7, 4.073e-7
0.242, -9.710e-7, -5.622e-7, 4.089e-7
0.241, -9.695e-7, -5.603e-7, 4.092e-7
0.240, -9.680e-7, -5.600e-7, 4.079e-7
0.239, -9.674e-7, -5.582e-7, 4.092e-7
0.238, -9.686e-7, -5.582e-7, 4.104e-7
0.237, -9.689e-7, -5.579e-7, 4.110e-7
0.236, -9.667e-7, -5.557e-7, 4.110e-7
0.235, -9.661e-7, -5.551e-7, 4.110e-7
0.234, -9.649e-7, -5.551e-7, 4.098e-7
0.233, -9.664e-7, -5.539e-7, 4.125e-7
0.232, -9.640e-7, -5.524e-7, 4.116e-7
0.231, -9.619e-7, -5.512e-7, 4.107e-7
0.230, -9.646e-7, -5.515e-7, 4.131e-7
0.229, -9.634e-7, -5.506e-7, 4.128e-7
0.228, -9.628e-7, -5.503e-7, 4.125e-7
0.227, -9.652e-7, -5.490e-7, 4.162e-7
0.226, -9.628e-7, -5.481e-7, 4.147e-7
0.225, -9.612e-7, -5.472e-7, 4.140e-7
0.224, -9.612e-7, -5.466e-7, 4.147e-7
0.223, -9.600e-7, -5.454e-7, 4.147e-7
0.222, -9.582e-7, -5.445e-7, 4.137e-7
0.221, -9.600e-7, -5.445e-7, 4.156e-7
0.220, -9.588e-7, -5.429e-7, 4.159e-7
0.219, -9.567e-7, -5.423e-7, 4.144e-7
0.218, -9.591e-7, -5.414e-7, 4.177e-7
0.217, -9.539e-7, -5.387e-7, 4.153e-7
0.216, -9.539e-7, -5.390e-7, 4.150e-7
0.215, -9.570e-7, -5.384e-7, 4.186e-7
0.214, -9.545e-7, -5.371e-7, 4.174e-7
0.213, -9.515e-7, -5.356e-7, 4.159e-7
0.212, -9.524e-7, -5.344e-7, 4.180e-7
0.211, -9.509e-7, -5.332e-7, 4.177e-7
0.210, -9.497e-7, -5.329e-7, 4.168e-7
0.209, -9.481e-7, -5.313e-7, 4.168e-7
0.208, -9.484e-7, -5.301e-7, 4.183e-7
0.207, -9.484e-7, -5.313e-7, 4.171e-7
0.206, -9.448e-7, -5.277e-7, 4.171e-7
0.205, -9.460e-7, -5.274e-7, 4.186e-7
0.204, -9.432e-7, -5.265e-7, 4.168e-7
0.203, -9.423e-7, -5.246e-7, 4.177e-7
0.202, -9.396e-7, -5.228e-7, 4.168e-7
0.201, -9.384e-7, -5.228e-7, 4.156e-7
0.200, -9.402e-7, -5.216e-7, 4.186e-7
0.199, -9.371e-7, -5.197e-7, 4.174e-7
0.198, -9.378e-7, -5.210e-7, 4.168e-7
0.197, -9.368e-7, -5.194e-7, 4.174e-7
0.196, -9.347e-7, -5.182e-7, 4.165e-7
0.195, -9.310e-7, -5.161e-7, 4.150e-7
0.194, -9.320e-7, -5.164e-7, 4.156e-7
0.193, -9.301e-7, -5.142e-7, 4.159e-7
0.192, -9.298e-7, -5.139e-7, 4.159e-7
0.191, -9.298e-7, -5.124e-7, 4.174e-7
0.190, -9.265e-7, -5.112e-7, 4.153e-7
0.189, -9.237e-7, -5.094e-7, 4.144e-7
0.188, -9.228e-7, -5.078e-7, 4.150e-7
0.187, -9.225e-7, -5.075e-7, 4.150e-7
0.186, -9.210e-7, -5.072e-7, 4.137e-7
0.185, -9.210e-7, -5.054e-7, 4.156e-7
0.184, -9.188e-7, -5.036e-7, 4.153e-7
0.183, -9.188e-7, -5.045e-7, 4.144e-7
0.182, -9.161e-7, -5.017e-7, 4.144e-7
0.181, -9.143e-7, -5.002e-7, 4.140e-7
0.180, -9.146e-7, -5.014e-7, 4.131e-7
0.179, -9.121e-7, -4.990e-7, 4.131e-7
0.178, -9.109e-7, -4.984e-7, 4.125e-7
0.177, -9.094e-7, -4.978e-7, 4.116e-7
0.176, -9.078e-7, -4.944e-7, 4.134e-7
0.175, -9.048e-7, -4.950e-7, 4.098e-7
0.174, -9.063e-7, -4.938e-7, 4.125e-7
0.173, -9.020e-7, -4.911e-7, 4.110e-7
0.172, -9.036e-7, -4.926e-7, 4.110e-7
0.171, -9.002e-7, -4.917e-7, 4.086e-7
0.170, -8.990e-7, -4.886e-7, 4.104e-7
0.169, -8.987e-7, -4.883e-7, 4.104e-7
0.168, -8.950e-7, -4.880e-7, 4.070e-7
0.167, -8.959e-7, -4.859e-7, 4.101e-7
0.166, -8.905e-7, -4.834e-7, 4.070e-7
0.165, -8.898e-7, -4.828e-7, 4.070e-7
0.164, -8.908e-7, -4.837e-7, 4.070e-7
0.163, -8.886e-7, -4.828e-7, 4.058e-7
0.162, -8.859e-7, -4.810e-7, 4.049e-7
0.161, -8.850e-7, -4.788e-7, 4.061e-7
0.160, -8.819e-7, -4.776e-7, 4.043e-7
0.159, -8.828e-7, -4.782e-7, 4.046e-7
0.158, -8.795e-7, -4.764e-7, 4.031e-7
0.157, -8.789e-7, -4.755e-7, 4.034e-7
0.156, -8.789e-7, -4.755e-7, 4.034e-7
0.155, -8.746e-7, -4.724e-7, 4.021e-7
0.154, -8.731e-7, -4.718e-7, 4.012e-7
0.153, -8.700e-7, -4.709e-7, 3.991e-7
0.152, -8.706e-7, -4.688e-7, 4.018e-7
0.151, -8.673e-7, -4.691e-7, 3.982e-7
0.150, -8.670e-7, -4.682e-7, 3.988e-7
0.149, -8.666e-7, -4.679e-7, 3.988e-7
0.148, -8.630e-7, -4.663e-7, 3.967e-7
0.147, -8.633e-7, -4.654e-7, 3.979e-7
0.146, -8.602e-7, -4.642e-7, 3.960e-7
0.145, -8.581e-7, -4.630e-7, 3.951e-7
0.144, -8.575e-7, -4.636e-7, 3.939e-7
0.143, -8.547e-7, -4.602e-7, 3.945e-7
0.142, -8.547e-7, -4.608e-7, 3.939e-7
0.141, -8.535e-7, -4.608e-7, 3.927e-7
0.140, -8.499e-7, -4.572e-7, 3.927e-7
0.139, -8.490e-7, -4.572e-7, 3.918e-7
0.138, -8.483e-7, -4.578e-7, 3.905e-7
0.137, -8.453e-7, -4.557e-7, 3.896e-7
0.136, -8.428e-7, -4.550e-7, 3.878e-7
0.135, -8.416e-7, -4.532e-7, 3.884e-7
0.134, -8.419e-7, -4.538e-7, 3.881e-7
0.133, -8.383e-7, -4.517e-7, 3.866e-7
0.132, -8.352e-7, -4.508e-7, 3.844e-7
0.131, -8.334e-7, -4.496e-7, 3.838e-7
0.130, -8.334e-7, -4.492e-7, 3.841e-7
0.129, -8.316e-7, -4.489e-7, 3.826e-7
0.128, -8.303e-7, -4.471e-7, 3.832e-7
0.127, -8.294e-7, -4.471e-7, 3.823e-7
0.126, -8.273e-7, -4.462e-7, 3.811e-7
0.125, -8.242e-7, -4.447e-7, 3.796e-7
0.124, -8.224e-7, -4.438e-7, 3.786e-7
0.123, -8.227e-7, -4.441e-7, 3.786e-7
0.122, -8.206e-7, -4.419e-7, 3.786e-7
0.121, -8.187e-7, -4.422e-7, 3.765e-7
0.120, -8.166e-7, -4.404e-7, 3.762e-7
0.119, -8.139e-7, -4.389e-7, 3.750e-7
0.118, -8.120e-7, -4.386e-7, 3.735e-7
0.117, -8.114e-7, -4.373e-7, 3.741e-7
0.116, -8.096e-7, -4.364e-7, 3.732e-7
0.115, -8.102e-7, -4.373e-7, 3.728e-7
0.114, -8.059e-7, -4.349e-7, 3.710e-7
0.113, -8.062e-7, -4.343e-7, 3.719e-7
0.112, -8.059e-7, -4.352e-7, 3.707e-7
0.111, -8.050e-7, -4.337e-7, 3.713e-7
0.110, -8.001e-7, -4.315e-7, 3.686e-7
0.109, -7.992e-7, -4.319e-7, 3.674e-7
0.108, -7.983e-7, -4.306e-7, 3.677e-7
0.107, -7.952e-7, -4.297e-7, 3.655e-7
0.106, -7.937e-7, -4.288e-7, 3.649e-7
0.105, -7.934e-7, -4.285e-7, 3.649e-7
0.104, -7.904e-7, -4.276e-7, 3.628e-7
0.103, -7.885e-7, -4.279e-7, 3.606e-7
0.102, -7.885e-7, -4.264e-7, 3.622e-7
0.101, -7.836e-7, -4.242e-7, 3.594e-7
0.100, -7.849e-7, -4.257e-7, 3.591e-7
0.099, -7.833e-7, -4.233e-7, 3.600e-7
0.098, -7.809e-7, -4.236e-7, 3.573e-7
0.097, -7.803e-7, -4.233e-7, 3.570e-7
0.096, -7.791e-7, -4.215e-7, 3.576e-7
0.095, -7.772e-7, -4.212e-7, 3.561e-7
0.094, -7.760e-7, -4.209e-7, 3.552e-7
0.093, -7.748e-7, -4.200e-7, 3.548e-7
0.092, -7.724e-7, -4.184e-7, 3.539e-7
0.091, -7.721e-7, -4.193e-7, 3.527e-7
0.090, -7.721e-7, -4.193e-7, 3.527e-7
0.089, -7.678e-7, -4.169e-7, 3.509e-7
0.088, -7.669e-7, -4.169e-7, 3.500e-7
0.087, -7.653e-7, -4.157e-7, 3.497e-7
0.086, -7.635e-7, -4.151e-7, 3.484e-7
0.085, -7.617e-7, -4.145e-7, 3.472e-7
0.084, -7.617e-7, -4.142e-7, 3.475e-7
0.083, -7.605e-7, -4.126e-7, 3.478e-7
0.082, -7.571e-7, -4.123e-7, 3.448e-7
0.081, -7.565e-7, -4.117e-7, 3.448e-7
0.080, -7.531e-7, -4.099e-7, 3.432e-7
0.079, -7.531e-7, -4.102e-7, 3.429e-7
0.078, -7.534e-7, -4.102e-7, 3.432e-7
0.077, -7.498e-7, -4.077e-7, 3.420e-7
0.076, -7.495e-7, -4.090e-7, 3.405e-7
0.075, -7.476e-7, -4.068e-7, 3.408e-7
0.074, -7.476e-7, -4.074e-7, 3.402e-7
0.073, -7.443e-7, -4.056e-7, 3.387e-7
0.072, -7.440e-7, -4.047e-7, 3.393e-7
0.071, -7.412e-7, -4.044e-7, 3.368e-7
0.070, -7.406e-7, -4.044e-7, 3.362e-7
0.069, -7.391e-7, -4.038e-7, 3.353e-7
0.068, -7.376e-7, -4.010e-7, 3.365e-7
0.067, -7.367e-7, -4.026e-7, 3.341e-7
0.066, -7.363e-7, -4.010e-7, 3.353e-7
0.065, -7.354e-7, -4.007e-7, 3.347e-7
0.064, -7.345e-7, -4.007e-7, 3.338e-7
0.063, -7.318e-7, -3.989e-7, 3.329e-7
0.062, -7.312e-7, -4.001e-7, 3.310e-7
0.061, -7.284e-7, -3.980e-7, 3.304e-7
0.060, -7.284e-7, -3.980e-7, 3.304e-7
0.059, -7.272e-7, -3.968e-7, 3.304e-7
0.058, -7.254e-7, -3.965e-7, 3.289e-7
0.057, -7.244e-7, -3.958e-7, 3.286e-7
0.056, -7.205e-7, -3.934e-7, 3.271e-7
0.055, -7.226e-7, -3.949e-7, 3.277e-7
0.054, -7.217e-7, -3.937e-7, 3.280e-7
0.053, -7.162e-7, -3.919e-7, 3.243e-7
0.052, -7.190e-7, -3.934e-7, 3.255e-7
0.051, -7.165e-7, -3.913e-7, 3.252e-7
0.050, -7.150e-7, -3.900e-7, 3.249e-7
0.049, -7.132e-7, -3.904e-7, 3.228e-7
0.048, -7.128e-7, -3.894e-7, 3.234e-7
0.047, -7.116e-7, -3.891e-7, 3.225e-7
0.046, -7.098e-7, -3.888e-7, 3.210e-7
0.045, -7.104e-7, -3.885e-7, 3.219e-7
0.044, -7.089e-7, -3.885e-7, 3.204e-7
0.043, -7.064e-7, -3.870e-7, 3.194e-7
0.042, -7.055e-7, -3.855e-7, 3.201e-7
0.041, -7.028e-7, -3.842e-7, 3.185e-7
0.040, -7.025e-7, -3.846e-7, 3.179e-7
0.039, -7.040e-7, -3.836e-7, 3.204e-7
0.038, -7.006e-7, -3.830e-7, 3.176e-7
0.037, -7.013e-7, -3.839e-7, 3.173e-7
0.036, -7.003e-7, -3.830e-7, 3.173e-7
0.035, -6.979e-7, -3.815e-7, 3.164e-7
0.034, -6.976e-7, -3.821e-7, 3.155e-7
0.033, -6.958e-7, -3.806e-7, 3.152e-7
0.032, -6.952e-7, -3.803e-7, 3.149e-7
0.031, -6.942e-7, -3.800e-7, 3.143e-7
0.030, -6.927e-7, -3.788e-7, 3.140e-7
0.029, -6.918e-7, -3.791e-7, 3.127e-7
0.028, -6.918e-7, -3.791e-7, 3.127e-7
0.027, -6.903e-7, -3.766e-7, 3.136e-7
0.026, -6.884e-7, -3.766e-7, 3.118e-7
0.025, -6.884e-7, -3.772e-7, 3.112e-7
0.024, -6.863e-7, -3.754e-7, 3.109e-7
0.023, -6.845e-7, -3.748e-7, 3.097e-7
0.022, -6.836e-7, -3.745e-7, 3.091e-7
0.021, -6.854e-7, -3.733e-7, 3.121e-7
0.020, -6.817e-7, -3.730e-7, 3.088e-7
0.019, -6.817e-7, -3.733e-7, 3.085e-7
0.018, -6.829e-7, -3.733e-7, 3.097e-7
0.017, -6.775e-7, -3.699e-7, 3.075e-7
0.016, -6.784e-7, -3.717e-7, 3.066e-7
0.015, -6.781e-7, -3.711e-7, 3.069e-7
0.014, -6.741e-7, -3.678e-7, 3.063e-7
0.013, -6.756e-7, -3.702e-7, 3.054e-7
0.012, -6.747e-7, -3.675e-7, 3.072e-7
0.011, -6.723e-7, -3.678e-7, 3.045e-7
0.010, -6.741e-7, -3.684e-7, 3.057e-7
0.009, -6.729e-7, -3.669e-7, 3.060e-7
0.008, -6.710e-7, -3.659e-7, 3.051e-7
0.007, -6.704e-7, -3.675e-7, 3.030e-7
0.006, -6.695e-7, -3.650e-7, 3.045e-7
0.005, -6.680e-7, -3.650e-7, 3.030e-7
0.004, -6.677e-7, -3.659e-7, 3.017e-7
0.003, -6.662e-7, -3.635e-7, 3.027e-7
0.002, -6.640e-7, -3.623e-7, 3.017e-7
0.001, -6.659e-7, -3.641e-7, 3.017e-7
-0.000, -6.662e-7, -3.623e-7, 3.039e-7
-0.001, -6.616e-7, -3.608e-7, 3.008e-7
-0.002, -6.598e-7, -3.614e-7, 2.984e-7
-0.003, -6.604e-7, -3.595e-7, 3.008e-7
-0.004, -6.613e-7, -3.598e-7, 3.014e-7
-0.005, -6.591e-7, -3.598e-7, 2.993e-7
-0.006, -6.594e-7, -3.586e-7, 3.008e-7
-0.007, -6.564e-7, -3.577e-7, 2.987e-7
-0.008, -6.576e-7, -3.586e-7, 2.990e-7
-0.009, -6.546e-7, -3.565e-7, 2.981e-7
-0.010, -6.540e-7, -3.562e-7, 2.978e-7
-0.011, -6.524e-7, -3.556e-7, 2.969e-7
-0.012, -6.540e-7, -3.556e-7, 2.984e-7
-0.013, -6.497e-7, -3.537e-7, 2.959e-7
-0.014, -6.521e-7, -3.550e-7, 2.972e-7
-0.015, -6.515e-7, -3.540e-7, 2.975e-7
-0.016, -6.491e-7, -3.528e-7, 2.963e-7
-0.017, -6.482e-7, -3.534e-7, 2.947e-7
-0.018, -6.500e-7, -3.525e-7, 2.975e-7
-0.019, -6.472e-7, -3.513e-7, 2.959e-7
-0.020, -6.472e-7, -3.525e-7, 2.947e-7
-0.021, -6.457e-7, -3.507e-7, 2.950e-7
-0.022, -6.448e-7, -3.504e-7, 2.944e-7
-0.023, -6.436e-7, -3.507e-7, 2.929e-7
-0.024, -6.448e-7, -3.501e-7, 2.947e-7
-0.025, -6.411e-7, -3.489e-7, 2.923e-7
-0.026, -6.411e-7, -3.492e-7, 2.920e-7
-0.027, -6.424e-7, -3.489e-7, 2.935e-7
-0.028, -6.381e-7, -3.461e-7, 2.920e-7
-0.029, -6.375e-7, -3.467e-7, 2.908e-7
-0.030, -6.405e-7, -3.467e-7, 2.938e-7
-0.031, -6.372e-7, -3.455e-7, 2.917e-7
-0.032, -6.396e-7, -3.473e-7, 2.923e-7
-0.033, -6.378e-7, -3.449e-7, 2.929e-7
-0.034, -6.341e-7, -3.446e-7, 2.895e-7
-0.035, -6.347e-7, -3.446e-7, 2.902e-7
-0.036, -6.347e-7, -3.431e-7, 2.917e-7
-0.037, -6.308e-7, -3.424e-7, 2.883e-7
-0.038, -6.332e-7, -3.437e-7, 2.895e-7
-0.039, -6.338e-7, -3.427e-7, 2.911e-7
-0.040, -6.329e-7, -3.427e-7, 2.902e-7
-0.041, -6.308e-7, -3.424e-7, 2.883e-7
-0.042, -6.302e-7, -3.400e-7, 2.902e-7
-0.043, -6.277e-7, -3.400e-7, 2.877e-7
-0.044, -6.268e-7, -3.394e-7, 2.874e-7
-0.045, -6.277e-7, -3.394e-7, 2.883e-7
-0.046, -6.247e-7, -3.376e-7, 2.871e-7
-0.047, -6.268e-7, -3.388e-7, 2.880e-7
-0.048, -6.271e-7, -3.397e-7, 2.874e-7
-0.049, -6.253e-7, -3.373e-7, 2.880e-7
-0.050, -6.256e-7, -3.385e-7, 2.871e-7
