Feb. 28, 2018   11:20:11
Square Wave Voltammetry
File: c:\users\electrochemist\desktop\2018\28022018_unbuffered_9,2\7_e5_9,2_0118_ph4,47_1.txt
Data Source:  Experiment
Instrument Model:  CHI1040A
Header: 
Note: 

Init E (V) = 0.5
Final E (V) = -0.05
Incr E (V) = 0.001
Amplitude (V) = 0.1
Frequency (Hz) = 150
Quiet Time (sec) = 0
Sensitivity (A/V) = 1e-6

Difference:
Ep = 0.222V
ip = -3.422e-7A
Ap = -8.519e-8VA

Forward:

Reverse:

Potential/V, Diff(i/A), For(i/A), Rev(i/A)

0.499, -7.061e-7, -2.069e-7, 4.992e-7
0.498, -8.908e-7, -4.419e-7, 4.488e-7
0.497, -8.923e-7, -4.560e-7, 4.363e-7
0.496, -8.911e-7, -4.608e-7, 4.302e-7
0.495, -8.908e-7, -4.636e-7, 4.272e-7
0.494, -8.898e-7, -4.651e-7, 4.247e-7
0.493, -8.880e-7, -4.654e-7, 4.226e-7
0.492, -8.862e-7, -4.666e-7, 4.195e-7
0.491, -8.871e-7, -4.685e-7, 4.186e-7
0.490, -8.850e-7, -4.679e-7, 4.171e-7
0.489, -8.859e-7, -4.685e-7, 4.174e-7
0.488, -8.868e-7, -4.700e-7, 4.168e-7
0.487, -8.853e-7, -4.694e-7, 4.159e-7
0.486, -8.874e-7, -4.724e-7, 4.150e-7
0.485, -8.877e-7, -4.715e-7, 4.162e-7
0.484, -8.874e-7, -4.721e-7, 4.153e-7
0.483, -8.889e-7, -4.740e-7, 4.150e-7
0.482, -8.901e-7, -4.749e-7, 4.153e-7
0.481, -8.871e-7, -4.743e-7, 4.128e-7
0.480, -8.905e-7, -4.758e-7, 4.147e-7
0.479, -8.889e-7, -4.752e-7, 4.137e-7
0.478, -8.880e-7, -4.758e-7, 4.122e-7
0.477, -8.917e-7, -4.773e-7, 4.144e-7
0.476, -8.917e-7, -4.785e-7, 4.131e-7
0.475, -8.911e-7, -4.791e-7, 4.119e-7
0.474, -8.923e-7, -4.801e-7, 4.122e-7
0.473, -8.941e-7, -4.795e-7, 4.147e-7
0.472, -8.929e-7, -4.807e-7, 4.122e-7
0.471, -8.911e-7, -4.798e-7, 4.113e-7
0.470, -8.938e-7, -4.807e-7, 4.131e-7
0.469, -8.917e-7, -4.813e-7, 4.104e-7
0.468, -8.929e-7, -4.828e-7, 4.101e-7
0.467, -8.938e-7, -4.828e-7, 4.110e-7
0.466, -8.944e-7, -4.834e-7, 4.110e-7
0.465, -8.975e-7, -4.859e-7, 4.116e-7
0.464, -8.969e-7, -4.853e-7, 4.116e-7
0.463, -8.950e-7, -4.843e-7, 4.107e-7
0.462, -8.987e-7, -4.874e-7, 4.113e-7
0.461, -8.987e-7, -4.871e-7, 4.116e-7
0.460, -8.981e-7, -4.877e-7, 4.104e-7
0.459, -8.996e-7, -4.895e-7, 4.101e-7
0.458, -9.017e-7, -4.901e-7, 4.116e-7
0.457, -9.030e-7, -4.917e-7, 4.113e-7
0.456, -9.024e-7, -4.926e-7, 4.098e-7
0.455, -9.054e-7, -4.929e-7, 4.125e-7
0.454, -9.033e-7, -4.923e-7, 4.110e-7
0.453, -9.057e-7, -4.947e-7, 4.110e-7
0.452, -9.091e-7, -4.947e-7, 4.144e-7
0.451, -9.060e-7, -4.956e-7, 4.104e-7
0.450, -9.097e-7, -4.972e-7, 4.125e-7
0.449, -9.094e-7, -4.965e-7, 4.128e-7
0.448, -9.112e-7, -4.990e-7, 4.122e-7
0.447, -9.121e-7, -4.996e-7, 4.125e-7
0.446, -9.106e-7, -4.990e-7, 4.116e-7
0.445, -9.127e-7, -5.008e-7, 4.119e-7
0.444, -9.176e-7, -5.045e-7, 4.131e-7
0.443, -9.185e-7, -5.039e-7, 4.147e-7
0.442, -9.164e-7, -5.030e-7, 4.134e-7
0.441, -9.185e-7, -5.051e-7, 4.134e-7
0.440, -9.188e-7, -5.054e-7, 4.134e-7
0.439, -9.179e-7, -5.054e-7, 4.125e-7
0.438, -9.249e-7, -5.087e-7, 4.162e-7
0.437, -9.231e-7, -5.084e-7, 4.147e-7
0.436, -9.237e-7, -5.097e-7, 4.140e-7
0.435, -9.249e-7, -5.109e-7, 4.140e-7
0.434, -9.274e-7, -5.124e-7, 4.150e-7
0.433, -9.280e-7, -5.124e-7, 4.156e-7
0.432, -9.301e-7, -5.152e-7, 4.150e-7
0.431, -9.304e-7, -5.161e-7, 4.144e-7
0.430, -9.307e-7, -5.158e-7, 4.150e-7
0.429, -9.350e-7, -5.182e-7, 4.168e-7
0.428, -9.350e-7, -5.188e-7, 4.162e-7
0.427, -9.381e-7, -5.210e-7, 4.171e-7
0.426, -9.411e-7, -5.228e-7, 4.183e-7
0.425, -9.405e-7, -5.213e-7, 4.192e-7
0.424, -9.405e-7, -5.222e-7, 4.183e-7
0.423, -9.426e-7, -5.252e-7, 4.174e-7
0.422, -9.460e-7, -5.255e-7, 4.205e-7
0.421, -9.454e-7, -5.271e-7, 4.183e-7
0.420, -9.463e-7, -5.277e-7, 4.186e-7
0.419, -9.493e-7, -5.295e-7, 4.198e-7
0.418, -9.497e-7, -5.313e-7, 4.183e-7
0.417, -9.521e-7, -5.316e-7, 4.205e-7
0.416, -9.555e-7, -5.341e-7, 4.214e-7
0.415, -9.539e-7, -5.341e-7, 4.198e-7
0.414, -9.570e-7, -5.356e-7, 4.214e-7
0.413, -9.576e-7, -5.371e-7, 4.205e-7
0.412, -9.606e-7, -5.383e-7, 4.223e-7
0.411, -9.625e-7, -5.393e-7, 4.232e-7
0.410, -9.652e-7, -5.423e-7, 4.229e-7
0.409, -9.649e-7, -5.417e-7, 4.232e-7
0.408, -9.674e-7, -5.441e-7, 4.232e-7
0.407, -9.692e-7, -5.451e-7, 4.241e-7
0.406, -9.716e-7, -5.481e-7, 4.235e-7
0.405, -9.731e-7, -5.490e-7, 4.241e-7
0.404, -9.747e-7, -5.478e-7, 4.269e-7
0.403, -9.750e-7, -5.506e-7, 4.244e-7
0.402, -9.786e-7, -5.518e-7, 4.269e-7
0.401, -9.805e-7, -5.536e-7, 4.269e-7
0.400, -9.832e-7, -5.554e-7, 4.278e-7
0.399, -9.851e-7, -5.573e-7, 4.278e-7
0.398, -9.844e-7, -5.573e-7, 4.272e-7
0.397, -9.881e-7, -5.606e-7, 4.275e-7
0.396, -9.915e-7, -5.625e-7, 4.290e-7
0.395, -9.905e-7, -5.609e-7, 4.296e-7
0.394, -9.915e-7, -5.631e-7, 4.284e-7
0.393, -9.973e-7, -5.667e-7, 4.305e-7
0.392, -9.994e-7, -5.673e-7, 4.321e-7
0.391, -9.979e-7, -5.670e-7, 4.308e-7
0.390, -9.991e-7, -5.692e-7, 4.299e-7
0.389, -1.003e-6, -5.704e-7, 4.330e-7
0.388, -1.006e-6, -5.737e-7, 4.327e-7
0.387, -1.008e-6, -5.744e-7, 4.339e-7
0.386, -1.009e-6, -5.750e-7, 4.339e-7
0.385, -1.012e-6, -5.783e-7, 4.333e-7
0.384, -1.013e-6, -5.780e-7, 4.351e-7
0.383, -1.020e-6, -5.805e-7, 4.391e-7
0.382, -1.016e-6, -5.808e-7, 4.348e-7
0.381, -1.021e-6, -5.847e-7, 4.360e-7
0.380, -1.023e-6, -5.847e-7, 4.385e-7
0.379, -1.025e-6, -5.869e-7, 4.379e-7
0.378, -1.028e-6, -5.890e-7, 4.394e-7
0.377, -1.027e-6, -5.887e-7, 4.385e-7
0.376, -1.029e-6, -5.911e-7, 4.382e-7
0.375, -1.034e-6, -5.930e-7, 4.406e-7
0.374, -1.036e-6, -5.948e-7, 4.412e-7
0.373, -1.039e-6, -5.966e-7, 4.421e-7
0.372, -1.041e-6, -5.985e-7, 4.424e-7
0.371, -1.045e-6, -6.003e-7, 4.443e-7
0.370, -1.044e-6, -6.015e-7, 4.427e-7
0.369, -1.048e-6, -6.027e-7, 4.449e-7
0.368, -1.049e-6, -6.024e-7, 4.467e-7
0.367, -1.049e-6, -6.055e-7, 4.433e-7
0.366, -1.053e-6, -6.079e-7, 4.452e-7
0.365, -1.055e-6, -6.079e-7, 4.470e-7
0.364, -1.057e-6, -6.098e-7, 4.473e-7
0.363, -1.062e-6, -6.134e-7, 4.488e-7
0.362, -1.064e-6, -6.137e-7, 4.507e-7
0.361, -1.066e-6, -6.162e-7, 4.494e-7
0.360, -1.069e-6, -6.180e-7, 4.507e-7
0.359, -1.068e-6, -6.171e-7, 4.507e-7
0.358, -1.072e-6, -6.204e-7, 4.513e-7
0.357, -1.073e-6, -6.210e-7, 4.522e-7
0.356, -1.077e-6, -6.229e-7, 4.540e-7
0.355, -1.080e-6, -6.259e-7, 4.540e-7
0.354, -1.082e-6, -6.272e-7, 4.552e-7
0.353, -1.085e-6, -6.287e-7, 4.559e-7
0.352, -1.088e-6, -6.320e-7, 4.565e-7
0.351, -1.088e-6, -6.323e-7, 4.562e-7
0.350, -1.092e-6, -6.336e-7, 4.583e-7
0.349, -1.094e-6, -6.357e-7, 4.586e-7
0.348, -1.098e-6, -6.372e-7, 4.607e-7
0.347, -1.099e-6, -6.384e-7, 4.601e-7
0.346, -1.100e-6, -6.397e-7, 4.604e-7
0.345, -1.105e-6, -6.415e-7, 4.638e-7
0.344, -1.107e-6, -6.427e-7, 4.638e-7
0.343, -1.110e-6, -6.461e-7, 4.635e-7
0.342, -1.112e-6, -6.467e-7, 4.650e-7
0.341, -1.113e-6, -6.467e-7, 4.662e-7
0.340, -1.116e-6, -6.497e-7, 4.659e-7
0.339, -1.117e-6, -6.503e-7, 4.671e-7
0.338, -1.122e-6, -6.531e-7, 4.693e-7
0.337, -1.122e-6, -6.534e-7, 4.684e-7
0.336, -1.125e-6, -6.558e-7, 4.696e-7
0.335, -1.127e-6, -6.564e-7, 4.708e-7
0.334, -1.129e-6, -6.574e-7, 4.714e-7
0.333, -1.132e-6, -6.604e-7, 4.714e-7
0.332, -1.135e-6, -6.604e-7, 4.748e-7
0.331, -1.137e-6, -6.625e-7, 4.745e-7
0.330, -1.142e-6, -6.659e-7, 4.760e-7
0.329, -1.143e-6, -6.650e-7, 4.781e-7
0.328, -1.145e-6, -6.668e-7, 4.784e-7
0.327, -1.150e-6, -6.687e-7, 4.812e-7
0.326, -1.150e-6, -6.696e-7, 4.803e-7
0.325, -1.152e-6, -6.720e-7, 4.797e-7
0.324, -1.156e-6, -6.738e-7, 4.818e-7
0.323, -1.157e-6, -6.738e-7, 4.833e-7
0.322, -1.160e-6, -6.769e-7, 4.833e-7
0.321, -1.166e-6, -6.781e-7, 4.876e-7
0.320, -1.165e-6, -6.781e-7, 4.873e-7
0.319, -1.167e-6, -6.799e-7, 4.873e-7
0.318, -1.173e-6, -6.839e-7, 4.888e-7
0.317, -1.172e-6, -6.827e-7, 4.888e-7
0.316, -1.174e-6, -6.833e-7, 4.903e-7
0.315, -1.178e-6, -6.864e-7, 4.913e-7
0.314, -1.179e-6, -6.864e-7, 4.928e-7
0.313, -1.181e-6, -6.882e-7, 4.931e-7
0.312, -1.184e-6, -6.894e-7, 4.946e-7
0.311, -1.186e-6, -6.894e-7, 4.971e-7
0.310, -1.187e-6, -6.906e-7, 4.964e-7
0.309, -1.192e-6, -6.946e-7, 4.971e-7
0.308, -1.195e-6, -6.952e-7, 4.995e-7
0.307, -1.195e-6, -6.964e-7, 4.989e-7
0.306, -1.200e-6, -6.973e-7, 5.028e-7
0.305, -1.198e-6, -6.967e-7, 5.013e-7
0.304, -1.200e-6, -6.983e-7, 5.022e-7
0.303, -1.205e-6, -6.995e-7, 5.053e-7
0.302, -1.205e-6, -6.995e-7, 5.053e-7
0.301, -1.208e-6, -7.025e-7, 5.059e-7
0.300, -1.212e-6, -7.037e-7, 5.083e-7
0.299, -1.213e-6, -7.047e-7, 5.080e-7
0.298, -1.215e-6, -7.053e-7, 5.096e-7
0.297, -1.217e-6, -7.056e-7, 5.114e-7
0.296, -1.218e-6, -7.065e-7, 5.111e-7
0.295, -1.223e-6, -7.092e-7, 5.138e-7
0.294, -1.224e-6, -7.092e-7, 5.151e-7
0.293, -1.225e-6, -7.086e-7, 5.166e-7
0.292, -1.227e-6, -7.111e-7, 5.163e-7
0.291, -1.230e-6, -7.129e-7, 5.175e-7
0.290, -1.230e-6, -7.114e-7, 5.190e-7
0.289, -1.236e-6, -7.150e-7, 5.205e-7
0.288, -1.236e-6, -7.147e-7, 5.209e-7
0.287, -1.238e-6, -7.150e-7, 5.230e-7
0.286, -1.240e-6, -7.178e-7, 5.224e-7
0.285, -1.243e-6, -7.175e-7, 5.251e-7
0.284, -1.243e-6, -7.175e-7, 5.251e-7
0.283, -1.245e-6, -7.196e-7, 5.254e-7
0.282, -1.247e-6, -7.190e-7, 5.279e-7
0.281, -1.247e-6, -7.184e-7, 5.285e-7
0.280, -1.251e-6, -7.202e-7, 5.303e-7
0.279, -1.253e-6, -7.205e-7, 5.321e-7
0.278, -1.254e-6, -7.208e-7, 5.331e-7
0.277, -1.258e-6, -7.230e-7, 5.349e-7
0.276, -1.259e-6, -7.239e-7, 5.349e-7
0.275, -1.259e-6, -7.233e-7, 5.358e-7
0.274, -1.261e-6, -7.251e-7, 5.358e-7
0.273, -1.263e-6, -7.242e-7, 5.386e-7
0.272, -1.265e-6, -7.257e-7, 5.389e-7
0.271, -1.265e-6, -7.254e-7, 5.392e-7
0.270, -1.267e-6, -7.257e-7, 5.416e-7
0.269, -1.268e-6, -7.239e-7, 5.437e-7
0.268, -1.270e-6, -7.285e-7, 5.416e-7
0.267, -1.272e-6, -7.279e-7, 5.437e-7
0.266, -1.272e-6, -7.266e-7, 5.453e-7
0.265, -1.275e-6, -7.282e-7, 5.468e-7
0.264, -1.279e-6, -7.303e-7, 5.486e-7
0.263, -1.277e-6, -7.275e-7, 5.492e-7
0.262, -1.277e-6, -7.291e-7, 5.477e-7
0.261, -1.281e-6, -7.297e-7, 5.517e-7
0.260, -1.280e-6, -7.291e-7, 5.514e-7
0.259, -1.281e-6, -7.303e-7, 5.505e-7
0.258, -1.283e-6, -7.291e-7, 5.541e-7
0.257, -1.281e-6, -7.272e-7, 5.538e-7
0.256, -1.283e-6, -7.303e-7, 5.532e-7
0.255, -1.287e-6, -7.288e-7, 5.581e-7
0.254, -1.287e-6, -7.303e-7, 5.572e-7
0.253, -1.288e-6, -7.297e-7, 5.584e-7
0.252, -1.288e-6, -7.291e-7, 5.587e-7
0.251, -1.291e-6, -7.303e-7, 5.605e-7
0.250, -1.293e-6, -7.312e-7, 5.617e-7
0.249, -1.295e-6, -7.306e-7, 5.642e-7
0.248, -1.292e-6, -7.291e-7, 5.630e-7
0.247, -1.293e-6, -7.297e-7, 5.630e-7
0.246, -1.295e-6, -7.300e-7, 5.651e-7
0.245, -1.295e-6, -7.291e-7, 5.660e-7
0.244, -1.297e-6, -7.312e-7, 5.657e-7
0.243, -1.298e-6, -7.294e-7, 5.682e-7
0.242, -1.297e-6, -7.279e-7, 5.688e-7
0.241, -1.299e-6, -7.297e-7, 5.697e-7
0.240, -1.297e-6, -7.272e-7, 5.694e-7
0.239, -1.298e-6, -7.285e-7, 5.694e-7
0.238, -1.300e-6, -7.285e-7, 5.715e-7
0.237, -1.301e-6, -7.282e-7, 5.733e-7
0.236, -1.301e-6, -7.279e-7, 5.727e-7
0.235, -1.301e-6, -7.285e-7, 5.721e-7
0.234, -1.300e-6, -7.260e-7, 5.739e-7
0.233, -1.301e-6, -7.272e-7, 5.743e-7
0.232, -1.303e-6, -7.285e-7, 5.749e-7
0.231, -1.301e-6, -7.248e-7, 5.767e-7
0.230, -1.302e-6, -7.245e-7, 5.776e-7
0.229, -1.305e-6, -7.275e-7, 5.776e-7
0.228, -1.305e-6, -7.251e-7, 5.801e-7
0.227, -1.302e-6, -7.242e-7, 5.782e-7
0.226, -1.304e-6, -7.242e-7, 5.794e-7
0.225, -1.302e-6, -7.214e-7, 5.810e-7
0.224, -1.303e-6, -7.236e-7, 5.797e-7
0.223, -1.302e-6, -7.236e-7, 5.788e-7
0.222, -1.305e-6, -7.221e-7, 5.834e-7
0.221, -1.303e-6, -7.211e-7, 5.816e-7
0.220, -1.303e-6, -7.208e-7, 5.825e-7
0.219, -1.304e-6, -7.196e-7, 5.843e-7
0.218, -1.305e-6, -7.199e-7, 5.846e-7
0.217, -1.304e-6, -7.205e-7, 5.837e-7
0.216, -1.303e-6, -7.175e-7, 5.852e-7
0.215, -1.301e-6, -7.175e-7, 5.840e-7
0.214, -1.305e-6, -7.187e-7, 5.859e-7
0.213, -1.300e-6, -7.135e-7, 5.868e-7
0.212, -1.301e-6, -7.150e-7, 5.855e-7
0.211, -1.301e-6, -7.153e-7, 5.862e-7
0.210, -1.302e-6, -7.138e-7, 5.883e-7
0.209, -1.298e-6, -7.120e-7, 5.862e-7
0.208, -1.302e-6, -7.147e-7, 5.871e-7
0.207, -1.301e-6, -7.120e-7, 5.886e-7
0.206, -1.298e-6, -7.108e-7, 5.868e-7
0.205, -1.298e-6, -7.117e-7, 5.868e-7
0.204, -1.299e-6, -7.092e-7, 5.898e-7
0.203, -1.299e-6, -7.099e-7, 5.892e-7
0.202, -1.300e-6, -7.102e-7, 5.895e-7
0.201, -1.296e-6, -7.074e-7, 5.889e-7
0.200, -1.296e-6, -7.068e-7, 5.892e-7
0.199, -1.295e-6, -7.068e-7, 5.883e-7
0.198, -1.294e-6, -7.050e-7, 5.895e-7
0.197, -1.292e-6, -7.025e-7, 5.892e-7
0.196, -1.294e-6, -7.041e-7, 5.904e-7
0.195, -1.294e-6, -7.016e-7, 5.920e-7
0.194, -1.292e-6, -7.010e-7, 5.907e-7
0.193, -1.292e-6, -7.031e-7, 5.886e-7
0.192, -1.291e-6, -6.992e-7, 5.916e-7
0.191, -1.290e-6, -6.998e-7, 5.898e-7
0.190, -1.288e-6, -6.979e-7, 5.904e-7
0.189, -1.287e-6, -6.970e-7, 5.904e-7
0.188, -1.287e-6, -6.973e-7, 5.892e-7
0.187, -1.287e-6, -6.964e-7, 5.901e-7
0.186, -1.287e-6, -6.952e-7, 5.923e-7
0.185, -1.283e-6, -6.949e-7, 5.886e-7
0.184, -1.284e-6, -6.940e-7, 5.904e-7
0.183, -1.281e-6, -6.918e-7, 5.892e-7
0.182, -1.279e-6, -6.912e-7, 5.874e-7
0.181, -1.281e-6, -6.918e-7, 5.889e-7
0.180, -1.280e-6, -6.903e-7, 5.898e-7
0.179, -1.275e-6, -6.888e-7, 5.865e-7
0.178, -1.276e-6, -6.885e-7, 5.880e-7
0.177, -1.276e-6, -6.860e-7, 5.895e-7
0.176, -1.274e-6, -6.857e-7, 5.880e-7
0.175, -1.274e-6, -6.857e-7, 5.880e-7
0.174, -1.272e-6, -6.836e-7, 5.880e-7
0.173, -1.267e-6, -6.824e-7, 5.846e-7
0.172, -1.269e-6, -6.830e-7, 5.865e-7
0.171, -1.266e-6, -6.790e-7, 5.874e-7
0.170, -1.265e-6, -6.806e-7, 5.843e-7
0.169, -1.269e-6, -6.818e-7, 5.874e-7
0.168, -1.265e-6, -6.778e-7, 5.877e-7
0.167, -1.263e-6, -6.781e-7, 5.849e-7
0.166, -1.265e-6, -6.793e-7, 5.859e-7
0.165, -1.261e-6, -6.760e-7, 5.846e-7
0.164, -1.257e-6, -6.738e-7, 5.828e-7
0.163, -1.260e-6, -6.754e-7, 5.843e-7
0.162, -1.255e-6, -6.720e-7, 5.834e-7
0.161, -1.255e-6, -6.738e-7, 5.816e-7
0.160, -1.255e-6, -6.729e-7, 5.822e-7
0.159, -1.252e-6, -6.693e-7, 5.828e-7
0.158, -1.248e-6, -6.683e-7, 5.794e-7
0.157, -1.249e-6, -6.702e-7, 5.791e-7
0.156, -1.246e-6, -6.662e-7, 5.797e-7
0.155, -1.245e-6, -6.662e-7, 5.791e-7
0.154, -1.244e-6, -6.665e-7, 5.779e-7
0.153, -1.243e-6, -6.647e-7, 5.782e-7
0.152, -1.240e-6, -6.641e-7, 5.761e-7
0.151, -1.240e-6, -6.635e-7, 5.767e-7
0.150, -1.239e-6, -6.619e-7, 5.767e-7
0.149, -1.237e-6, -6.613e-7, 5.752e-7
0.148, -1.237e-6, -6.607e-7, 5.764e-7
0.147, -1.235e-6, -6.598e-7, 5.755e-7
0.146, -1.232e-6, -6.589e-7, 5.727e-7
0.145, -1.234e-6, -6.604e-7, 5.739e-7
0.144, -1.230e-6, -6.568e-7, 5.733e-7
0.143, -1.228e-6, -6.561e-7, 5.715e-7
0.142, -1.228e-6, -6.558e-7, 5.724e-7
0.141, -1.226e-6, -6.540e-7, 5.718e-7
0.140, -1.224e-6, -6.543e-7, 5.694e-7
0.139, -1.221e-6, -6.537e-7, 5.675e-7
0.138, -1.222e-6, -6.516e-7, 5.700e-7
0.137, -1.218e-6, -6.510e-7, 5.669e-7
0.136, -1.218e-6, -6.519e-7, 5.663e-7
0.135, -1.215e-6, -6.494e-7, 5.654e-7
0.134, -1.215e-6, -6.494e-7, 5.651e-7
0.133, -1.215e-6, -6.507e-7, 5.639e-7
0.132, -1.211e-6, -6.461e-7, 5.654e-7
0.131, -1.209e-6, -6.464e-7, 5.624e-7
0.130, -1.209e-6, -6.470e-7, 5.624e-7
0.129, -1.207e-6, -6.436e-7, 5.633e-7
0.128, -1.204e-6, -6.430e-7, 5.605e-7
0.127, -1.203e-6, -6.433e-7, 5.596e-7
0.126, -1.202e-6, -6.415e-7, 5.602e-7
0.125, -1.200e-6, -6.424e-7, 5.581e-7
0.124, -1.201e-6, -6.424e-7, 5.587e-7
0.123, -1.199e-6, -6.400e-7, 5.590e-7
0.122, -1.195e-6, -6.400e-7, 5.547e-7
0.121, -1.195e-6, -6.403e-7, 5.547e-7
0.120, -1.192e-6, -6.375e-7, 5.541e-7
0.119, -1.189e-6, -6.378e-7, 5.514e-7
0.118, -1.190e-6, -6.375e-7, 5.526e-7
0.117, -1.189e-6, -6.348e-7, 5.544e-7
0.116, -1.187e-6, -6.369e-7, 5.501e-7
0.115, -1.188e-6, -6.369e-7, 5.511e-7
0.114, -1.186e-6, -6.339e-7, 5.517e-7
0.113, -1.182e-6, -6.333e-7, 5.492e-7
0.112, -1.181e-6, -6.342e-7, 5.471e-7
0.111, -1.180e-6, -6.314e-7, 5.483e-7
0.110, -1.177e-6, -6.308e-7, 5.465e-7
0.109, -1.177e-6, -6.308e-7, 5.459e-7
0.108, -1.176e-6, -6.299e-7, 5.462e-7
0.107, -1.174e-6, -6.302e-7, 5.437e-7
0.106, -1.172e-6, -6.293e-7, 5.431e-7
0.105, -1.171e-6, -6.268e-7, 5.443e-7
0.104, -1.170e-6, -6.281e-7, 5.422e-7
0.103, -1.168e-6, -6.278e-7, 5.407e-7
0.102, -1.167e-6, -6.256e-7, 5.416e-7
0.101, -1.165e-6, -6.265e-7, 5.386e-7
0.100, -1.165e-6, -6.265e-7, 5.386e-7
0.099, -1.164e-6, -6.235e-7, 5.407e-7
0.098, -1.159e-6, -6.235e-7, 5.358e-7
0.097, -1.159e-6, -6.235e-7, 5.352e-7
0.096, -1.157e-6, -6.204e-7, 5.361e-7
0.095, -1.155e-6, -6.220e-7, 5.331e-7
0.094, -1.155e-6, -6.217e-7, 5.331e-7
0.093, -1.154e-6, -6.201e-7, 5.343e-7
0.092, -1.152e-6, -6.198e-7, 5.318e-7
0.091, -1.153e-6, -6.214e-7, 5.315e-7
0.090, -1.150e-6, -6.174e-7, 5.328e-7
0.089, -1.148e-6, -6.183e-7, 5.297e-7
0.088, -1.148e-6, -6.180e-7, 5.303e-7
0.087, -1.145e-6, -6.162e-7, 5.291e-7
0.086, -1.144e-6, -6.168e-7, 5.276e-7
0.085, -1.143e-6, -6.165e-7, 5.266e-7
0.084, -1.142e-6, -6.143e-7, 5.273e-7
0.083, -1.138e-6, -6.137e-7, 5.242e-7
0.082, -1.139e-6, -6.146e-7, 5.248e-7
0.081, -1.139e-6, -6.131e-7, 5.260e-7
0.080, -1.136e-6, -6.134e-7, 5.227e-7
0.079, -1.135e-6, -6.131e-7, 5.218e-7
0.078, -1.133e-6, -6.107e-7, 5.224e-7
0.077, -1.133e-6, -6.107e-7, 5.227e-7
0.076, -1.132e-6, -6.122e-7, 5.196e-7
0.075, -1.131e-6, -6.098e-7, 5.212e-7
0.074, -1.128e-6, -6.091e-7, 5.193e-7
0.073, -1.128e-6, -6.088e-7, 5.187e-7
0.072, -1.126e-6, -6.076e-7, 5.181e-7
0.071, -1.123e-6, -6.070e-7, 5.163e-7
0.070, -1.126e-6, -6.088e-7, 5.172e-7
0.069, -1.125e-6, -6.070e-7, 5.178e-7
0.068, -1.121e-6, -6.061e-7, 5.144e-7
0.067, -1.122e-6, -6.064e-7, 5.157e-7
0.066, -1.118e-6, -6.040e-7, 5.141e-7
0.065, -1.116e-6, -6.034e-7, 5.123e-7
0.064, -1.118e-6, -6.043e-7, 5.135e-7
0.063, -1.115e-6, -6.024e-7, 5.123e-7
0.062, -1.114e-6, -6.037e-7, 5.099e-7
0.061, -1.113e-6, -6.024e-7, 5.105e-7
0.060, -1.113e-6, -5.997e-7, 5.129e-7
0.059, -1.109e-6, -6.012e-7, 5.074e-7
0.058, -1.110e-6, -6.009e-7, 5.086e-7
0.057, -1.107e-6, -5.988e-7, 5.083e-7
0.056, -1.105e-6, -5.979e-7, 5.071e-7
0.055, -1.107e-6, -6.000e-7, 5.074e-7
0.054, -1.103e-6, -5.976e-7, 5.059e-7
0.053, -1.103e-6, -5.979e-7, 5.053e-7
0.052, -1.102e-6, -5.982e-7, 5.038e-7
0.051, -1.102e-6, -5.957e-7, 5.062e-7
0.050, -1.098e-6, -5.960e-7, 5.022e-7
0.049, -1.098e-6, -5.951e-7, 5.032e-7
0.048, -1.098e-6, -5.939e-7, 5.041e-7
0.047, -1.094e-6, -5.933e-7, 5.007e-7
0.046, -1.096e-6, -5.939e-7, 5.022e-7
0.045, -1.095e-6, -5.921e-7, 5.025e-7
0.044, -1.092e-6, -5.921e-7, 5.004e-7
0.043, -1.093e-6, -5.924e-7, 5.007e-7
0.042, -1.091e-6, -5.905e-7, 5.001e-7
0.041, -1.090e-6, -5.915e-7, 4.986e-7
0.040, -1.091e-6, -5.918e-7, 4.992e-7
0.039, -1.085e-6, -5.881e-7, 4.974e-7
0.038, -1.088e-6, -5.896e-7, 4.983e-7
0.037, -1.087e-6, -5.890e-7, 4.980e-7
0.036, -1.085e-6, -5.878e-7, 4.977e-7
0.035, -1.083e-6, -5.872e-7, 4.961e-7
0.034, -1.084e-6, -5.884e-7, 4.955e-7
0.033, -1.080e-6, -5.853e-7, 4.943e-7
0.032, -1.078e-6, -5.847e-7, 4.931e-7
0.031, -1.080e-6, -5.853e-7, 4.946e-7
0.030, -1.078e-6, -5.841e-7, 4.937e-7
0.029, -1.074e-6, -5.832e-7, 4.912e-7
0.028, -1.076e-6, -5.841e-7, 4.916e-7
0.027, -1.074e-6, -5.823e-7, 4.912e-7
0.026, -1.071e-6, -5.814e-7, 4.894e-7
0.025, -1.073e-6, -5.829e-7, 4.897e-7
0.024, -1.073e-6, -5.802e-7, 4.928e-7
0.023, -1.070e-6, -5.802e-7, 4.900e-7
0.022, -1.069e-6, -5.795e-7, 4.897e-7
0.021, -1.069e-6, -5.792e-7, 4.894e-7
0.020, -1.067e-6, -5.789e-7, 4.876e-7
0.019, -1.068e-6, -5.780e-7, 4.903e-7
0.018, -1.066e-6, -5.771e-7, 4.885e-7
0.017, -1.063e-6, -5.762e-7, 4.870e-7
0.016, -1.063e-6, -5.762e-7, 4.870e-7
0.015, -1.064e-6, -5.759e-7, 4.879e-7
0.014, -1.060e-6, -5.747e-7, 4.858e-7
0.013, -1.062e-6, -5.747e-7, 4.870e-7
0.012, -1.059e-6, -5.741e-7, 4.845e-7
0.011, -1.059e-6, -5.741e-7, 4.845e-7
0.010, -1.056e-6, -5.725e-7, 4.830e-7
0.009, -1.056e-6, -5.719e-7, 4.839e-7
0.008, -1.053e-6, -5.704e-7, 4.827e-7
0.007, -1.053e-6, -5.707e-7, 4.821e-7
0.006, -1.054e-6, -5.707e-7, 4.833e-7
0.005, -1.052e-6, -5.704e-7, 4.815e-7
0.004, -1.052e-6, -5.701e-7, 4.818e-7
0.003, -1.050e-6, -5.680e-7, 4.821e-7
0.002, -1.048e-6, -5.683e-7, 4.800e-7
0.001, -1.050e-6, -5.686e-7, 4.818e-7
-0.000, -1.047e-6, -5.670e-7, 4.800e-7
-0.001, -1.046e-6, -5.661e-7, 4.797e-7
-0.002, -1.046e-6, -5.655e-7, 4.803e-7
-0.003, -1.045e-6, -5.637e-7, 4.818e-7
-0.004, -1.043e-6, -5.646e-7, 4.781e-7
-0.005, -1.044e-6, -5.643e-7, 4.797e-7
-0.006, -1.041e-6, -5.619e-7, 4.787e-7
-0.007, -1.038e-6, -5.615e-7, 4.769e-7
-0.008, -1.038e-6, -5.609e-7, 4.775e-7
-0.009, -1.037e-6, -5.609e-7, 4.763e-7
-0.010, -1.036e-6, -5.603e-7, 4.757e-7
-0.011, -1.038e-6, -5.603e-7, 4.772e-7
-0.012, -1.036e-6, -5.585e-7, 4.778e-7
-0.013, -1.031e-6, -5.567e-7, 4.742e-7
-0.014, -1.031e-6, -5.579e-7, 4.736e-7
-0.015, -1.031e-6, -5.570e-7, 4.742e-7
-0.016, -1.030e-6, -5.564e-7, 4.736e-7
-0.017, -1.030e-6, -5.557e-7, 4.745e-7
-0.018, -1.031e-6, -5.554e-7, 4.757e-7
-0.019, -1.027e-6, -5.548e-7, 4.717e-7
-0.020, -1.029e-6, -5.561e-7, 4.729e-7
-0.021, -1.025e-6, -5.533e-7, 4.714e-7
-0.022, -1.025e-6, -5.536e-7, 4.717e-7
-0.023, -1.025e-6, -5.536e-7, 4.711e-7
-0.024, -1.023e-6, -5.512e-7, 4.717e-7
-0.025, -1.019e-6, -5.496e-7, 4.690e-7
-0.026, -1.020e-6, -5.506e-7, 4.699e-7
-0.027, -1.019e-6, -5.493e-7, 4.699e-7
-0.028, -1.018e-6, -5.493e-7, 4.690e-7
-0.029, -1.019e-6, -5.487e-7, 4.702e-7
-0.030, -1.016e-6, -5.469e-7, 4.690e-7
-0.031, -1.016e-6, -5.475e-7, 4.681e-7
-0.032, -1.014e-6, -5.472e-7, 4.668e-7
-0.033, -1.013e-6, -5.466e-7, 4.662e-7
-0.034, -1.010e-6, -5.460e-7, 4.641e-7
-0.035, -1.014e-6, -5.466e-7, 4.678e-7
-0.036, -1.008e-6, -5.429e-7, 4.653e-7
-0.037, -1.009e-6, -5.442e-7, 4.650e-7
-0.038, -1.009e-6, -5.435e-7, 4.656e-7
-0.039, -1.006e-6, -5.417e-7, 4.641e-7
-0.040, -1.008e-6, -5.426e-7, 4.650e-7
-0.041, -1.005e-6, -5.417e-7, 4.638e-7
-0.042, -1.005e-6, -5.411e-7, 4.644e-7
-0.043, -1.002e-6, -5.414e-7, 4.607e-7
-0.044, -1.002e-6, -5.402e-7, 4.620e-7
-0.045, -1.002e-6, -5.396e-7, 4.629e-7
-0.046, -9.991e-7, -5.387e-7, 4.604e-7
-0.047, -9.991e-7, -5.371e-7, 4.620e-7
-0.048, -9.985e-7, -5.377e-7, 4.607e-7
-0.049, -9.960e-7, -5.359e-7, 4.601e-7
-0.050, -9.963e-7, -5.368e-7, 4.595e-7
