Feb. 28, 2018   11:20:30
Square Wave Voltammetry
File: c:\users\electrochemist\desktop\2018\28022018_unbuffered_9,2\7_e5_9,2_0118_ph4,47_5.txt
Data Source:  Experiment
Instrument Model:  CHI1040A
Header: 
Note: 

Init E (V) = 0.5
Final E (V) = -0.05
Incr E (V) = 0.001
Amplitude (V) = 0.1
Frequency (Hz) = 150
Quiet Time (sec) = 0
Sensitivity (A/V) = 1e-6

Difference:
Ep = 0.241V
ip = -2.980e-7A
Ap = -6.591e-8VA

Forward:

Reverse:

Potential/V, Diff(i/A), For(i/A), Rev(i/A)

0.499, -8.041e-7, -1.990e-7, 6.051e-7
0.498, -9.942e-7, -4.630e-7, 5.312e-7
0.497, -9.933e-7, -4.856e-7, 5.077e-7
0.496, -9.863e-7, -4.892e-7, 4.971e-7
0.495, -9.777e-7, -4.923e-7, 4.855e-7
0.494, -9.771e-7, -4.984e-7, 4.787e-7
0.493, -9.713e-7, -4.981e-7, 4.733e-7
0.492, -9.670e-7, -4.993e-7, 4.678e-7
0.491, -9.661e-7, -5.014e-7, 4.647e-7
0.490, -9.628e-7, -5.008e-7, 4.620e-7
0.489, -9.603e-7, -5.014e-7, 4.589e-7
0.488, -9.582e-7, -5.036e-7, 4.546e-7
0.487, -9.597e-7, -5.042e-7, 4.556e-7
0.486, -9.561e-7, -5.045e-7, 4.516e-7
0.485, -9.551e-7, -5.060e-7, 4.491e-7
0.484, -9.570e-7, -5.066e-7, 4.504e-7
0.483, -9.545e-7, -5.060e-7, 4.485e-7
0.482, -9.548e-7, -5.097e-7, 4.452e-7
0.481, -9.530e-7, -5.081e-7, 4.449e-7
0.480, -9.539e-7, -5.100e-7, 4.440e-7
0.479, -9.548e-7, -5.127e-7, 4.421e-7
0.478, -9.564e-7, -5.121e-7, 4.443e-7
0.477, -9.524e-7, -5.115e-7, 4.409e-7
0.476, -9.542e-7, -5.139e-7, 4.403e-7
0.475, -9.548e-7, -5.142e-7, 4.406e-7
0.474, -9.524e-7, -5.139e-7, 4.385e-7
0.473, -9.545e-7, -5.158e-7, 4.388e-7
0.472, -9.555e-7, -5.161e-7, 4.394e-7
0.471, -9.539e-7, -5.161e-7, 4.379e-7
0.470, -9.558e-7, -5.194e-7, 4.363e-7
0.469, -9.573e-7, -5.185e-7, 4.388e-7
0.468, -9.542e-7, -5.176e-7, 4.366e-7
0.467, -9.576e-7, -5.213e-7, 4.363e-7
0.466, -9.582e-7, -5.191e-7, 4.391e-7
0.465, -9.579e-7, -5.213e-7, 4.366e-7
0.464, -9.585e-7, -5.231e-7, 4.354e-7
0.463, -9.609e-7, -5.228e-7, 4.382e-7
0.462, -9.585e-7, -5.237e-7, 4.348e-7
0.461, -9.594e-7, -5.240e-7, 4.354e-7
0.460, -9.643e-7, -5.264e-7, 4.379e-7
0.459, -9.609e-7, -5.252e-7, 4.357e-7
0.458, -9.652e-7, -5.292e-7, 4.360e-7
0.457, -9.646e-7, -5.277e-7, 4.369e-7
0.456, -9.634e-7, -5.277e-7, 4.357e-7
0.455, -9.664e-7, -5.301e-7, 4.363e-7
0.454, -9.664e-7, -5.307e-7, 4.357e-7
0.453, -9.689e-7, -5.313e-7, 4.375e-7
0.452, -9.695e-7, -5.341e-7, 4.354e-7
0.451, -9.701e-7, -5.338e-7, 4.363e-7
0.450, -9.689e-7, -5.341e-7, 4.348e-7
0.449, -9.707e-7, -5.359e-7, 4.348e-7
0.448, -9.756e-7, -5.365e-7, 4.391e-7
0.447, -9.725e-7, -5.368e-7, 4.357e-7
0.446, -9.750e-7, -5.390e-7, 4.360e-7
0.445, -9.786e-7, -5.402e-7, 4.385e-7
0.444, -9.759e-7, -5.396e-7, 4.363e-7
0.443, -9.771e-7, -5.423e-7, 4.348e-7
0.442, -9.802e-7, -5.429e-7, 4.372e-7
0.441, -9.808e-7, -5.423e-7, 4.385e-7
0.440, -9.847e-7, -5.466e-7, 4.382e-7
0.439, -9.851e-7, -5.466e-7, 4.385e-7
0.438, -9.832e-7, -5.451e-7, 4.382e-7
0.437, -9.872e-7, -5.499e-7, 4.372e-7
0.436, -9.881e-7, -5.496e-7, 4.385e-7
0.435, -9.872e-7, -5.484e-7, 4.388e-7
0.434, -9.921e-7, -5.524e-7, 4.397e-7
0.433, -9.924e-7, -5.521e-7, 4.403e-7
0.432, -9.924e-7, -5.530e-7, 4.394e-7
0.431, -9.976e-7, -5.570e-7, 4.406e-7
0.430, -9.963e-7, -5.551e-7, 4.412e-7
0.429, -9.966e-7, -5.567e-7, 4.400e-7
0.428, -9.991e-7, -5.591e-7, 4.400e-7
0.427, -1.001e-6, -5.591e-7, 4.421e-7
0.426, -1.002e-6, -5.603e-7, 4.418e-7
0.425, -1.005e-6, -5.634e-7, 4.412e-7
0.424, -1.006e-6, -5.643e-7, 4.421e-7
0.423, -1.008e-6, -5.643e-7, 4.433e-7
0.422, -1.008e-6, -5.661e-7, 4.415e-7
0.421, -1.010e-6, -5.658e-7, 4.443e-7
0.420, -1.011e-6, -5.664e-7, 4.446e-7
0.419, -1.012e-6, -5.701e-7, 4.421e-7
0.418, -1.017e-6, -5.710e-7, 4.461e-7
0.417, -1.016e-6, -5.710e-7, 4.455e-7
0.416, -1.019e-6, -5.744e-7, 4.446e-7
0.415, -1.020e-6, -5.744e-7, 4.455e-7
0.414, -1.020e-6, -5.731e-7, 4.467e-7
0.413, -1.022e-6, -5.765e-7, 4.452e-7
0.412, -1.027e-6, -5.792e-7, 4.476e-7
0.411, -1.026e-6, -5.789e-7, 4.470e-7
0.410, -1.029e-6, -5.814e-7, 4.473e-7
0.409, -1.030e-6, -5.808e-7, 4.494e-7
0.408, -1.031e-6, -5.826e-7, 4.479e-7
0.407, -1.034e-6, -5.866e-7, 4.479e-7
0.406, -1.036e-6, -5.869e-7, 4.491e-7
0.405, -1.036e-6, -5.856e-7, 4.501e-7
0.404, -1.039e-6, -5.893e-7, 4.498e-7
0.403, -1.042e-6, -5.908e-7, 4.513e-7
0.402, -1.041e-6, -5.896e-7, 4.510e-7
0.401, -1.043e-6, -5.936e-7, 4.491e-7
0.400, -1.047e-6, -5.948e-7, 4.525e-7
0.399, -1.048e-6, -5.945e-7, 4.531e-7
0.398, -1.052e-6, -5.988e-7, 4.528e-7
0.397, -1.054e-6, -6.000e-7, 4.543e-7
0.396, -1.052e-6, -5.982e-7, 4.537e-7
0.395, -1.060e-6, -6.046e-7, 4.552e-7
0.394, -1.059e-6, -6.024e-7, 4.568e-7
0.393, -1.059e-6, -6.046e-7, 4.543e-7
0.392, -1.061e-6, -6.061e-7, 4.549e-7
0.391, -1.064e-6, -6.055e-7, 4.586e-7
0.390, -1.065e-6, -6.070e-7, 4.577e-7
0.389, -1.069e-6, -6.107e-7, 4.580e-7
0.388, -1.071e-6, -6.116e-7, 4.595e-7
0.387, -1.070e-6, -6.131e-7, 4.571e-7
0.386, -1.076e-6, -6.162e-7, 4.601e-7
0.385, -1.077e-6, -6.152e-7, 4.620e-7
0.384, -1.075e-6, -6.143e-7, 4.610e-7
0.383, -1.078e-6, -6.183e-7, 4.601e-7
0.382, -1.082e-6, -6.204e-7, 4.617e-7
0.381, -1.084e-6, -6.204e-7, 4.632e-7
0.380, -1.089e-6, -6.259e-7, 4.629e-7
0.379, -1.091e-6, -6.244e-7, 4.665e-7
0.378, -1.089e-6, -6.247e-7, 4.644e-7
0.377, -1.092e-6, -6.275e-7, 4.650e-7
0.376, -1.094e-6, -6.281e-7, 4.662e-7
0.375, -1.093e-6, -6.278e-7, 4.650e-7
0.374, -1.100e-6, -6.336e-7, 4.665e-7
0.373, -1.100e-6, -6.320e-7, 4.681e-7
0.372, -1.103e-6, -6.345e-7, 4.684e-7
0.371, -1.107e-6, -6.372e-7, 4.693e-7
0.370, -1.110e-6, -6.394e-7, 4.708e-7
0.369, -1.108e-6, -6.378e-7, 4.699e-7
0.368, -1.110e-6, -6.403e-7, 4.696e-7
0.367, -1.114e-6, -6.412e-7, 4.729e-7
0.366, -1.117e-6, -6.439e-7, 4.736e-7
0.365, -1.120e-6, -6.461e-7, 4.742e-7
0.364, -1.123e-6, -6.458e-7, 4.769e-7
0.363, -1.122e-6, -6.467e-7, 4.754e-7
0.362, -1.125e-6, -6.491e-7, 4.757e-7
0.361, -1.126e-6, -6.488e-7, 4.775e-7
0.360, -1.129e-6, -6.519e-7, 4.769e-7
0.359, -1.133e-6, -6.549e-7, 4.784e-7
0.358, -1.136e-6, -6.555e-7, 4.803e-7
0.357, -1.135e-6, -6.561e-7, 4.790e-7
0.356, -1.140e-6, -6.598e-7, 4.803e-7
0.355, -1.141e-6, -6.592e-7, 4.818e-7
0.354, -1.144e-6, -6.610e-7, 4.827e-7
0.353, -1.146e-6, -6.641e-7, 4.815e-7
0.352, -1.146e-6, -6.622e-7, 4.842e-7
0.351, -1.152e-6, -6.659e-7, 4.858e-7
0.350, -1.152e-6, -6.677e-7, 4.839e-7
0.349, -1.154e-6, -6.674e-7, 4.870e-7
0.348, -1.156e-6, -6.687e-7, 4.873e-7
0.347, -1.158e-6, -6.708e-7, 4.870e-7
0.346, -1.164e-6, -6.729e-7, 4.906e-7
0.345, -1.165e-6, -6.745e-7, 4.906e-7
0.344, -1.167e-6, -6.769e-7, 4.897e-7
0.343, -1.170e-6, -6.772e-7, 4.928e-7
0.342, -1.169e-6, -6.763e-7, 4.931e-7
0.341, -1.173e-6, -6.812e-7, 4.922e-7
0.340, -1.177e-6, -6.815e-7, 4.955e-7
0.339, -1.176e-6, -6.809e-7, 4.952e-7
0.338, -1.178e-6, -6.836e-7, 4.940e-7
0.337, -1.183e-6, -6.845e-7, 4.983e-7
0.336, -1.183e-6, -6.857e-7, 4.977e-7
0.335, -1.185e-6, -6.870e-7, 4.977e-7
0.334, -1.192e-6, -6.900e-7, 5.016e-7
0.333, -1.191e-6, -6.903e-7, 5.004e-7
0.332, -1.194e-6, -6.928e-7, 5.010e-7
0.331, -1.197e-6, -6.931e-7, 5.035e-7
0.330, -1.197e-6, -6.943e-7, 5.032e-7
0.329, -1.200e-6, -6.976e-7, 5.028e-7
0.328, -1.203e-6, -6.961e-7, 5.065e-7
0.327, -1.202e-6, -6.973e-7, 5.044e-7
0.326, -1.204e-6, -6.989e-7, 5.056e-7
0.325, -1.208e-6, -7.001e-7, 5.077e-7
0.324, -1.207e-6, -7.004e-7, 5.068e-7
0.323, -1.212e-6, -7.034e-7, 5.090e-7
0.322, -1.214e-6, -7.028e-7, 5.111e-7
0.321, -1.215e-6, -7.041e-7, 5.111e-7
0.320, -1.218e-6, -7.065e-7, 5.114e-7
0.319, -1.220e-6, -7.071e-7, 5.129e-7
0.318, -1.221e-6, -7.080e-7, 5.132e-7
0.317, -1.225e-6, -7.098e-7, 5.154e-7
0.316, -1.229e-6, -7.105e-7, 5.190e-7
0.315, -1.227e-6, -7.105e-7, 5.166e-7
0.314, -1.233e-6, -7.144e-7, 5.184e-7
0.313, -1.233e-6, -7.135e-7, 5.196e-7
0.312, -1.233e-6, -7.138e-7, 5.190e-7
0.311, -1.237e-6, -7.163e-7, 5.209e-7
0.310, -1.240e-6, -7.166e-7, 5.233e-7
0.309, -1.239e-6, -7.166e-7, 5.227e-7
0.308, -1.246e-6, -7.211e-7, 5.248e-7
0.307, -1.246e-6, -7.193e-7, 5.263e-7
0.306, -1.246e-6, -7.202e-7, 5.260e-7
0.305, -1.250e-6, -7.233e-7, 5.267e-7
0.304, -1.251e-6, -7.227e-7, 5.288e-7
0.303, -1.251e-6, -7.218e-7, 5.291e-7
0.302, -1.253e-6, -7.239e-7, 5.291e-7
0.301, -1.256e-6, -7.248e-7, 5.309e-7
0.300, -1.258e-6, -7.254e-7, 5.328e-7
0.299, -1.259e-6, -7.266e-7, 5.328e-7
0.298, -1.261e-6, -7.263e-7, 5.346e-7
0.297, -1.262e-6, -7.279e-7, 5.346e-7
0.296, -1.267e-6, -7.306e-7, 5.361e-7
0.295, -1.268e-6, -7.288e-7, 5.395e-7
0.294, -1.266e-6, -7.285e-7, 5.373e-7
0.293, -1.269e-6, -7.306e-7, 5.379e-7
0.292, -1.270e-6, -7.297e-7, 5.404e-7
0.291, -1.273e-6, -7.321e-7, 5.407e-7
0.290, -1.276e-6, -7.337e-7, 5.422e-7
0.289, -1.277e-6, -7.330e-7, 5.437e-7
0.288, -1.276e-6, -7.324e-7, 5.431e-7
0.287, -1.279e-6, -7.343e-7, 5.443e-7
0.286, -1.282e-6, -7.355e-7, 5.462e-7
0.285, -1.280e-6, -7.337e-7, 5.465e-7
0.284, -1.284e-6, -7.367e-7, 5.474e-7
0.283, -1.288e-6, -7.379e-7, 5.501e-7
0.282, -1.287e-6, -7.358e-7, 5.511e-7
0.281, -1.290e-6, -7.388e-7, 5.511e-7
0.280, -1.288e-6, -7.370e-7, 5.508e-7
0.279, -1.289e-6, -7.373e-7, 5.520e-7
0.278, -1.291e-6, -7.385e-7, 5.520e-7
0.277, -1.295e-6, -7.385e-7, 5.566e-7
0.276, -1.296e-6, -7.398e-7, 5.566e-7
0.275, -1.297e-6, -7.413e-7, 5.556e-7
0.274, -1.300e-6, -7.407e-7, 5.590e-7
0.273, -1.296e-6, -7.391e-7, 5.569e-7
0.272, -1.300e-6, -7.413e-7, 5.587e-7
0.271, -1.301e-6, -7.404e-7, 5.602e-7
0.270, -1.303e-6, -7.404e-7, 5.624e-7
0.269, -1.306e-6, -7.437e-7, 5.624e-7
0.268, -1.306e-6, -7.422e-7, 5.639e-7
0.267, -1.305e-6, -7.419e-7, 5.633e-7
0.266, -1.305e-6, -7.419e-7, 5.633e-7
0.265, -1.310e-6, -7.410e-7, 5.688e-7
0.264, -1.306e-6, -7.410e-7, 5.651e-7
0.263, -1.309e-6, -7.419e-7, 5.666e-7
0.262, -1.311e-6, -7.416e-7, 5.694e-7
0.261, -1.310e-6, -7.416e-7, 5.685e-7
0.260, -1.312e-6, -7.431e-7, 5.691e-7
0.259, -1.314e-6, -7.422e-7, 5.721e-7
0.258, -1.310e-6, -7.404e-7, 5.700e-7
0.257, -1.313e-6, -7.419e-7, 5.712e-7
0.256, -1.315e-6, -7.413e-7, 5.739e-7
0.255, -1.318e-6, -7.428e-7, 5.749e-7
0.254, -1.316e-6, -7.404e-7, 5.758e-7
0.253, -1.315e-6, -7.398e-7, 5.755e-7
0.252, -1.316e-6, -7.404e-7, 5.758e-7
0.251, -1.317e-6, -7.407e-7, 5.761e-7
0.250, -1.319e-6, -7.398e-7, 5.788e-7
0.249, -1.317e-6, -7.401e-7, 5.773e-7
0.248, -1.318e-6, -7.404e-7, 5.776e-7
0.247, -1.321e-6, -7.388e-7, 5.822e-7
0.246, -1.320e-6, -7.382e-7, 5.816e-7
0.245, -1.321e-6, -7.395e-7, 5.816e-7
0.244, -1.320e-6, -7.385e-7, 5.819e-7
0.243, -1.320e-6, -7.370e-7, 5.828e-7
0.242, -1.322e-6, -7.388e-7, 5.831e-7
0.241, -1.324e-6, -7.379e-7, 5.865e-7
0.240, -1.320e-6, -7.355e-7, 5.843e-7
0.239, -1.323e-6, -7.391e-7, 5.843e-7
0.238, -1.323e-6, -7.364e-7, 5.862e-7
0.237, -1.323e-6, -7.358e-7, 5.877e-7
0.236, -1.322e-6, -7.352e-7, 5.865e-7
0.235, -1.324e-6, -7.349e-7, 5.889e-7
0.234, -1.323e-6, -7.349e-7, 5.880e-7
0.233, -1.322e-6, -7.340e-7, 5.880e-7
0.232, -1.324e-6, -7.333e-7, 5.904e-7
0.231, -1.322e-6, -7.315e-7, 5.901e-7
0.230, -1.321e-6, -7.315e-7, 5.892e-7
0.229, -1.321e-6, -7.300e-7, 5.907e-7
0.228, -1.321e-6, -7.297e-7, 5.916e-7
0.227, -1.322e-6, -7.309e-7, 5.910e-7
0.226, -1.323e-6, -7.306e-7, 5.920e-7
0.225, -1.321e-6, -7.285e-7, 5.929e-7
0.224, -1.321e-6, -7.288e-7, 5.923e-7
0.223, -1.319e-6, -7.251e-7, 5.935e-7
0.222, -1.320e-6, -7.266e-7, 5.938e-7
0.221, -1.323e-6, -7.279e-7, 5.947e-7
0.220, -1.321e-6, -7.254e-7, 5.959e-7
0.219, -1.317e-6, -7.233e-7, 5.935e-7
0.218, -1.319e-6, -7.245e-7, 5.944e-7
0.217, -1.320e-6, -7.239e-7, 5.965e-7
0.216, -1.318e-6, -7.227e-7, 5.953e-7
0.215, -1.317e-6, -7.218e-7, 5.956e-7
0.214, -1.317e-6, -7.208e-7, 5.962e-7
0.213, -1.316e-6, -7.190e-7, 5.968e-7
0.212, -1.315e-6, -7.184e-7, 5.965e-7
0.211, -1.315e-6, -7.175e-7, 5.974e-7
0.210, -1.313e-6, -7.166e-7, 5.962e-7
0.209, -1.313e-6, -7.172e-7, 5.962e-7
0.208, -1.312e-6, -7.150e-7, 5.965e-7
0.207, -1.311e-6, -7.141e-7, 5.968e-7
0.206, -1.313e-6, -7.144e-7, 5.984e-7
0.205, -1.309e-6, -7.111e-7, 5.981e-7
0.204, -1.309e-6, -7.111e-7, 5.981e-7
0.203, -1.307e-6, -7.108e-7, 5.965e-7
0.202, -1.306e-6, -7.083e-7, 5.978e-7
0.201, -1.305e-6, -7.077e-7, 5.968e-7
0.200, -1.304e-6, -7.071e-7, 5.965e-7
0.199, -1.304e-6, -7.059e-7, 5.984e-7
0.198, -1.303e-6, -7.059e-7, 5.971e-7
0.197, -1.302e-6, -7.044e-7, 5.978e-7
0.196, -1.301e-6, -7.022e-7, 5.984e-7
0.195, -1.299e-6, -7.016e-7, 5.971e-7
0.194, -1.300e-6, -7.025e-7, 5.971e-7
0.193, -1.300e-6, -7.016e-7, 5.981e-7
0.192, -1.296e-6, -7.001e-7, 5.962e-7
0.191, -1.297e-6, -7.004e-7, 5.965e-7
0.190, -1.296e-6, -6.992e-7, 5.965e-7
0.189, -1.291e-6, -6.955e-7, 5.953e-7
0.188, -1.292e-6, -6.952e-7, 5.965e-7
0.187, -1.291e-6, -6.949e-7, 5.956e-7
0.186, -1.289e-6, -6.925e-7, 5.968e-7
0.185, -1.287e-6, -6.925e-7, 5.941e-7
0.184, -1.288e-6, -6.928e-7, 5.956e-7
0.183, -1.284e-6, -6.900e-7, 5.941e-7
0.182, -1.285e-6, -6.900e-7, 5.947e-7
0.181, -1.284e-6, -6.888e-7, 5.950e-7
0.180, -1.279e-6, -6.885e-7, 5.907e-7
0.179, -1.282e-6, -6.870e-7, 5.947e-7
0.178, -1.275e-6, -6.830e-7, 5.920e-7
0.177, -1.278e-6, -6.842e-7, 5.935e-7
0.176, -1.274e-6, -6.809e-7, 5.932e-7
0.175, -1.276e-6, -6.833e-7, 5.932e-7
0.174, -1.274e-6, -6.824e-7, 5.916e-7
0.173, -1.273e-6, -6.809e-7, 5.916e-7
0.172, -1.271e-6, -6.787e-7, 5.920e-7
0.171, -1.267e-6, -6.778e-7, 5.895e-7
0.170, -1.267e-6, -6.772e-7, 5.901e-7
0.169, -1.266e-6, -6.757e-7, 5.907e-7
0.168, -1.266e-6, -6.760e-7, 5.904e-7
0.167, -1.264e-6, -6.751e-7, 5.886e-7
0.166, -1.262e-6, -6.732e-7, 5.883e-7
0.165, -1.258e-6, -6.717e-7, 5.859e-7
0.164, -1.258e-6, -6.717e-7, 5.868e-7
0.163, -1.257e-6, -6.705e-7, 5.865e-7
0.162, -1.256e-6, -6.702e-7, 5.855e-7
0.161, -1.255e-6, -6.702e-7, 5.852e-7
0.160, -1.252e-6, -6.665e-7, 5.852e-7
0.159, -1.249e-6, -6.650e-7, 5.837e-7
0.158, -1.250e-6, -6.668e-7, 5.828e-7
0.157, -1.247e-6, -6.653e-7, 5.819e-7
0.156, -1.244e-6, -6.626e-7, 5.810e-7
0.155, -1.244e-6, -6.635e-7, 5.810e-7
0.154, -1.243e-6, -6.610e-7, 5.822e-7
0.153, -1.240e-6, -6.601e-7, 5.797e-7
0.152, -1.239e-6, -6.607e-7, 5.785e-7
0.151, -1.238e-6, -6.580e-7, 5.797e-7
0.150, -1.234e-6, -6.571e-7, 5.770e-7
0.149, -1.234e-6, -6.558e-7, 5.785e-7
0.148, -1.233e-6, -6.555e-7, 5.770e-7
0.147, -1.229e-6, -6.549e-7, 5.743e-7
0.146, -1.228e-6, -6.540e-7, 5.743e-7
0.145, -1.227e-6, -6.525e-7, 5.746e-7
0.144, -1.225e-6, -6.510e-7, 5.743e-7
0.143, -1.224e-6, -6.500e-7, 5.736e-7
0.142, -1.222e-6, -6.507e-7, 5.712e-7
0.141, -1.220e-6, -6.494e-7, 5.703e-7
0.140, -1.219e-6, -6.485e-7, 5.706e-7
0.139, -1.216e-6, -6.461e-7, 5.700e-7
0.138, -1.217e-6, -6.464e-7, 5.706e-7
0.137, -1.212e-6, -6.464e-7, 5.660e-7
0.136, -1.212e-6, -6.449e-7, 5.675e-7
0.135, -1.211e-6, -6.439e-7, 5.666e-7
0.134, -1.210e-6, -6.436e-7, 5.666e-7
0.133, -1.208e-6, -6.427e-7, 5.654e-7
0.132, -1.205e-6, -6.418e-7, 5.630e-7
0.131, -1.205e-6, -6.406e-7, 5.642e-7
0.130, -1.200e-6, -6.378e-7, 5.617e-7
0.129, -1.200e-6, -6.384e-7, 5.617e-7
0.128, -1.199e-6, -6.375e-7, 5.611e-7
0.127, -1.196e-6, -6.375e-7, 5.584e-7
0.126, -1.193e-6, -6.351e-7, 5.575e-7
0.125, -1.194e-6, -6.339e-7, 5.599e-7
0.124, -1.191e-6, -6.339e-7, 5.572e-7
0.123, -1.190e-6, -6.345e-7, 5.550e-7
0.122, -1.190e-6, -6.339e-7, 5.566e-7
0.121, -1.187e-6, -6.330e-7, 5.544e-7
0.120, -1.183e-6, -6.308e-7, 5.526e-7
0.119, -1.184e-6, -6.302e-7, 5.541e-7
0.118, -1.183e-6, -6.293e-7, 5.538e-7
0.117, -1.181e-6, -6.299e-7, 5.511e-7
0.116, -1.179e-6, -6.293e-7, 5.492e-7
0.115, -1.179e-6, -6.284e-7, 5.505e-7
0.114, -1.175e-6, -6.265e-7, 5.489e-7
0.113, -1.173e-6, -6.256e-7, 5.477e-7
0.112, -1.171e-6, -6.235e-7, 5.471e-7
0.111, -1.172e-6, -6.259e-7, 5.462e-7
0.110, -1.170e-6, -6.235e-7, 5.462e-7
0.109, -1.166e-6, -6.223e-7, 5.437e-7
0.108, -1.167e-6, -6.235e-7, 5.431e-7
0.107, -1.165e-6, -6.217e-7, 5.431e-7
0.106, -1.163e-6, -6.211e-7, 5.416e-7
0.105, -1.162e-6, -6.201e-7, 5.416e-7
0.104, -1.158e-6, -6.189e-7, 5.389e-7
0.103, -1.158e-6, -6.192e-7, 5.392e-7
0.102, -1.155e-6, -6.186e-7, 5.367e-7
0.101, -1.155e-6, -6.183e-7, 5.370e-7
0.100, -1.154e-6, -6.162e-7, 5.382e-7
0.099, -1.153e-6, -6.171e-7, 5.364e-7
0.098, -1.151e-6, -6.159e-7, 5.355e-7
0.097, -1.149e-6, -6.143e-7, 5.346e-7
0.096, -1.148e-6, -6.146e-7, 5.337e-7
0.095, -1.147e-6, -6.134e-7, 5.334e-7
0.094, -1.145e-6, -6.128e-7, 5.318e-7
0.093, -1.144e-6, -6.134e-7, 5.303e-7
0.092, -1.141e-6, -6.116e-7, 5.297e-7
0.091, -1.139e-6, -6.098e-7, 5.288e-7
0.090, -1.137e-6, -6.113e-7, 5.257e-7
0.089, -1.137e-6, -6.095e-7, 5.279e-7
0.088, -1.136e-6, -6.101e-7, 5.263e-7
0.087, -1.134e-6, -6.085e-7, 5.254e-7
0.086, -1.132e-6, -6.061e-7, 5.257e-7
0.085, -1.130e-6, -6.064e-7, 5.233e-7
0.084, -1.130e-6, -6.061e-7, 5.236e-7
0.083, -1.128e-6, -6.058e-7, 5.221e-7
0.082, -1.127e-6, -6.052e-7, 5.218e-7
0.081, -1.125e-6, -6.046e-7, 5.205e-7
0.080, -1.123e-6, -6.024e-7, 5.202e-7
0.079, -1.121e-6, -6.030e-7, 5.184e-7
0.078, -1.122e-6, -6.030e-7, 5.187e-7
0.077, -1.119e-6, -6.012e-7, 5.175e-7
0.076, -1.120e-6, -6.012e-7, 5.184e-7
0.075, -1.116e-6, -5.994e-7, 5.169e-7
0.074, -1.117e-6, -6.012e-7, 5.157e-7
0.073, -1.112e-6, -5.972e-7, 5.144e-7
0.072, -1.114e-6, -6.000e-7, 5.135e-7
0.071, -1.111e-6, -5.976e-7, 5.135e-7
0.070, -1.110e-6, -5.982e-7, 5.123e-7
0.069, -1.110e-6, -5.969e-7, 5.126e-7
0.068, -1.107e-6, -5.963e-7, 5.105e-7
0.067, -1.106e-6, -5.951e-7, 5.111e-7
0.066, -1.105e-6, -5.948e-7, 5.099e-7
0.065, -1.104e-6, -5.939e-7, 5.102e-7
0.064, -1.103e-6, -5.942e-7, 5.086e-7
0.063, -1.102e-6, -5.939e-7, 5.083e-7
0.062, -1.099e-6, -5.927e-7, 5.065e-7
0.061, -1.098e-6, -5.915e-7, 5.065e-7
0.060, -1.096e-6, -5.915e-7, 5.047e-7
0.059, -1.097e-6, -5.921e-7, 5.050e-7
0.058, -1.094e-6, -5.893e-7, 5.050e-7
0.057, -1.094e-6, -5.896e-7, 5.044e-7
0.056, -1.092e-6, -5.884e-7, 5.041e-7
0.055, -1.092e-6, -5.896e-7, 5.022e-7
0.054, -1.089e-6, -5.884e-7, 5.004e-7
0.053, -1.088e-6, -5.863e-7, 5.016e-7
0.052, -1.086e-6, -5.853e-7, 5.007e-7
0.051, -1.084e-6, -5.853e-7, 4.983e-7
0.050, -1.085e-6, -5.853e-7, 4.992e-7
0.049, -1.085e-6, -5.850e-7, 5.001e-7
0.048, -1.084e-6, -5.860e-7, 4.977e-7
0.047, -1.083e-6, -5.826e-7, 5.001e-7
0.046, -1.080e-6, -5.814e-7, 4.983e-7
0.045, -1.078e-6, -5.835e-7, 4.946e-7
0.044, -1.079e-6, -5.817e-7, 4.970e-7
0.043, -1.078e-6, -5.805e-7, 4.974e-7
0.042, -1.074e-6, -5.792e-7, 4.946e-7
0.041, -1.075e-6, -5.802e-7, 4.946e-7
0.040, -1.073e-6, -5.799e-7, 4.934e-7
0.039, -1.073e-6, -5.795e-7, 4.931e-7
0.038, -1.073e-6, -5.792e-7, 4.934e-7
0.037, -1.069e-6, -5.780e-7, 4.913e-7
0.036, -1.069e-6, -5.768e-7, 4.919e-7
0.035, -1.067e-6, -5.756e-7, 4.913e-7
0.034, -1.067e-6, -5.768e-7, 4.897e-7
0.033, -1.067e-6, -5.759e-7, 4.906e-7
0.032, -1.064e-6, -5.734e-7, 4.909e-7
0.031, -1.064e-6, -5.744e-7, 4.900e-7
0.030, -1.061e-6, -5.731e-7, 4.882e-7
0.029, -1.062e-6, -5.734e-7, 4.888e-7
0.028, -1.060e-6, -5.725e-7, 4.873e-7
0.027, -1.059e-6, -5.716e-7, 4.873e-7
0.026, -1.059e-6, -5.719e-7, 4.873e-7
0.025, -1.056e-6, -5.692e-7, 4.873e-7
0.024, -1.057e-6, -5.704e-7, 4.864e-7
0.023, -1.056e-6, -5.704e-7, 4.851e-7
0.022, -1.052e-6, -5.683e-7, 4.842e-7
0.021, -1.051e-6, -5.676e-7, 4.836e-7
0.020, -1.052e-6, -5.680e-7, 4.842e-7
0.019, -1.050e-6, -5.664e-7, 4.839e-7
0.018, -1.049e-6, -5.664e-7, 4.830e-7
0.017, -1.049e-6, -5.658e-7, 4.827e-7
0.016, -1.046e-6, -5.646e-7, 4.815e-7
0.015, -1.045e-6, -5.652e-7, 4.797e-7
0.014, -1.047e-6, -5.649e-7, 4.818e-7
0.013, -1.045e-6, -5.625e-7, 4.821e-7
0.012, -1.044e-6, -5.640e-7, 4.797e-7
0.011, -1.044e-6, -5.625e-7, 4.812e-7
0.010, -1.041e-6, -5.622e-7, 4.784e-7
0.009, -1.041e-6, -5.619e-7, 4.790e-7
0.008, -1.040e-6, -5.597e-7, 4.806e-7
0.007, -1.041e-6, -5.622e-7, 4.787e-7
0.006, -1.038e-6, -5.597e-7, 4.778e-7
0.005, -1.038e-6, -5.597e-7, 4.784e-7
0.004, -1.035e-6, -5.576e-7, 4.775e-7
0.003, -1.034e-6, -5.588e-7, 4.748e-7
0.002, -1.034e-6, -5.573e-7, 4.766e-7
0.001, -1.033e-6, -5.576e-7, 4.751e-7
-0.000, -1.032e-6, -5.564e-7, 4.760e-7
-0.001, -1.029e-6, -5.548e-7, 4.745e-7
-0.002, -1.030e-6, -5.548e-7, 4.748e-7
-0.003, -1.027e-6, -5.539e-7, 4.729e-7
-0.004, -1.027e-6, -5.539e-7, 4.736e-7
-0.005, -1.025e-6, -5.521e-7, 4.729e-7
-0.006, -1.025e-6, -5.524e-7, 4.723e-7
-0.007, -1.027e-6, -5.521e-7, 4.748e-7
-0.008, -1.022e-6, -5.512e-7, 4.711e-7
-0.009, -1.024e-6, -5.512e-7, 4.723e-7
-0.010, -1.022e-6, -5.503e-7, 4.714e-7
-0.011, -1.019e-6, -5.490e-7, 4.699e-7
-0.012, -1.019e-6, -5.490e-7, 4.696e-7
-0.013, -1.017e-6, -5.475e-7, 4.693e-7
-0.014, -1.016e-6, -5.469e-7, 4.687e-7
-0.015, -1.016e-6, -5.478e-7, 4.681e-7
-0.016, -1.015e-6, -5.460e-7, 4.693e-7
-0.017, -1.014e-6, -5.454e-7, 4.687e-7
-0.018, -1.014e-6, -5.457e-7, 4.681e-7
-0.019, -1.013e-6, -5.454e-7, 4.674e-7
-0.020, -1.010e-6, -5.442e-7, 4.659e-7
-0.021, -1.010e-6, -5.438e-7, 4.662e-7
-0.022, -1.010e-6, -5.432e-7, 4.668e-7
-0.023, -1.009e-6, -5.417e-7, 4.671e-7
-0.024, -1.009e-6, -5.435e-7, 4.650e-7
-0.025, -1.007e-6, -5.417e-7, 4.650e-7
-0.026, -1.006e-6, -5.411e-7, 4.650e-7
-0.027, -1.001e-6, -5.399e-7, 4.607e-7
-0.028, -1.004e-6, -5.396e-7, 4.647e-7
-0.029, -1.003e-6, -5.396e-7, 4.638e-7
-0.030, -1.002e-6, -5.390e-7, 4.629e-7
-0.031, -1.002e-6, -5.380e-7, 4.635e-7
-0.032, -9.988e-7, -5.365e-7, 4.623e-7
-0.033, -9.985e-7, -5.365e-7, 4.620e-7
-0.034, -9.988e-7, -5.365e-7, 4.623e-7
-0.035, -9.948e-7, -5.347e-7, 4.601e-7
-0.036, -9.948e-7, -5.353e-7, 4.595e-7
-0.037, -9.954e-7, -5.347e-7, 4.607e-7
-0.038, -9.936e-7, -5.344e-7, 4.592e-7
-0.039, -9.924e-7, -5.329e-7, 4.595e-7
-0.040, -9.918e-7, -5.323e-7, 4.595e-7
-0.041, -9.902e-7, -5.316e-7, 4.586e-7
-0.042, -9.905e-7, -5.316e-7, 4.589e-7
-0.043, -9.899e-7, -5.316e-7, 4.583e-7
-0.044, -9.878e-7, -5.307e-7, 4.571e-7
-0.045, -9.869e-7, -5.304e-7, 4.565e-7
-0.046, -9.857e-7, -5.298e-7, 4.559e-7
-0.047, -9.857e-7, -5.292e-7, 4.565e-7
-0.048, -9.838e-7, -5.286e-7, 4.552e-7
-0.049, -9.832e-7, -5.274e-7, 4.559e-7
-0.050, -9.829e-7, -5.277e-7, 4.552e-7
