Mar. 20, 2018   11:43:45
Square Wave Voltammetry
File: c:\users\electrochemist\desktop\2018\20032018_unbufarray_unpap\7_g3_ph4,51_5.txt
Data Source:  Experiment
Instrument Model:  CHI1040A
Header: 
Note: 

Init E (V) = 0.7
Final E (V) = -0.4
Incr E (V) = 0.001
Amplitude (V) = 0.1
Frequency (Hz) = 152
Quiet Time (sec) = 2
Sensitivity (A/V) = 1e-5

Difference:

Forward:

Reverse:

Potential/V, Diff(i/A), For(i/A), Rev(i/A)

0.699, -4.608e-7, -1.563e-7, 3.045e-7
0.698, -5.584e-7, -2.814e-7, 2.771e-7
0.697, -5.584e-7, -2.844e-7, 2.740e-7
0.696, -5.554e-7, -2.875e-7, 2.679e-7
0.695, -5.584e-7, -2.905e-7, 2.679e-7
0.694, -5.584e-7, -2.905e-7, 2.679e-7
0.693, -5.523e-7, -2.905e-7, 2.618e-7
0.692, -5.584e-7, -2.936e-7, 2.648e-7
0.691, -5.523e-7, -2.905e-7, 2.618e-7
0.690, -5.523e-7, -2.905e-7, 2.618e-7
0.689, -5.554e-7, -2.936e-7, 2.618e-7
0.688, -5.523e-7, -2.905e-7, 2.618e-7
0.687, -5.523e-7, -2.936e-7, 2.587e-7
0.686, -5.554e-7, -2.966e-7, 2.587e-7
0.685, -5.523e-7, -2.936e-7, 2.587e-7
0.684, -5.493e-7, -2.936e-7, 2.557e-7
0.683, -5.493e-7, -2.936e-7, 2.557e-7
0.682, -5.523e-7, -2.936e-7, 2.587e-7
0.681, -5.523e-7, -2.936e-7, 2.587e-7
0.680, -5.523e-7, -2.966e-7, 2.557e-7
0.679, -5.523e-7, -2.966e-7, 2.557e-7
0.678, -5.523e-7, -2.966e-7, 2.557e-7
0.677, -5.523e-7, -2.997e-7, 2.526e-7
0.676, -5.523e-7, -2.966e-7, 2.557e-7
0.675, -5.493e-7, -2.966e-7, 2.526e-7
0.674, -5.554e-7, -2.997e-7, 2.557e-7
0.673, -5.493e-7, -2.966e-7, 2.526e-7
0.672, -5.554e-7, -2.997e-7, 2.557e-7
0.671, -5.523e-7, -2.997e-7, 2.526e-7
0.670, -5.523e-7, -2.997e-7, 2.526e-7
0.669, -5.554e-7, -2.997e-7, 2.557e-7
0.668, -5.523e-7, -2.997e-7, 2.526e-7
0.667, -5.554e-7, -3.027e-7, 2.526e-7
0.666, -5.523e-7, -2.997e-7, 2.526e-7
0.665, -5.584e-7, -3.027e-7, 2.557e-7
0.664, -5.523e-7, -2.997e-7, 2.526e-7
0.663, -5.584e-7, -3.027e-7, 2.557e-7
0.662, -5.523e-7, -2.997e-7, 2.526e-7
0.661, -5.554e-7, -3.027e-7, 2.526e-7
0.660, -5.523e-7, -3.027e-7, 2.496e-7
0.659, -5.554e-7, -3.027e-7, 2.526e-7
0.658, -5.554e-7, -3.027e-7, 2.526e-7
0.657, -5.584e-7, -3.058e-7, 2.526e-7
0.656, -5.554e-7, -3.027e-7, 2.526e-7
0.655, -5.584e-7, -3.058e-7, 2.526e-7
0.654, -5.584e-7, -3.058e-7, 2.526e-7
0.653, -5.554e-7, -3.058e-7, 2.496e-7
0.652, -5.584e-7, -3.088e-7, 2.496e-7
0.651, -5.584e-7, -3.058e-7, 2.526e-7
0.650, -5.554e-7, -3.058e-7, 2.496e-7
0.649, -5.615e-7, -3.088e-7, 2.526e-7
0.648, -5.554e-7, -3.058e-7, 2.496e-7
0.647, -5.584e-7, -3.088e-7, 2.496e-7
0.646, -5.645e-7, -3.119e-7, 2.526e-7
0.645, -5.584e-7, -3.058e-7, 2.526e-7
0.644, -5.584e-7, -3.088e-7, 2.496e-7
0.643, -5.645e-7, -3.119e-7, 2.526e-7
0.642, -5.584e-7, -3.088e-7, 2.496e-7
0.641, -5.615e-7, -3.119e-7, 2.496e-7
0.640, -5.615e-7, -3.119e-7, 2.496e-7
0.639, -5.645e-7, -3.119e-7, 2.526e-7
0.638, -5.645e-7, -3.150e-7, 2.496e-7
0.637, -5.645e-7, -3.150e-7, 2.496e-7
0.636, -5.584e-7, -3.088e-7, 2.496e-7
0.635, -5.584e-7, -3.119e-7, 2.465e-7
0.634, -5.645e-7, -3.150e-7, 2.496e-7
0.633, -5.645e-7, -3.150e-7, 2.496e-7
0.632, -5.645e-7, -3.150e-7, 2.496e-7
0.631, -5.676e-7, -3.150e-7, 2.526e-7
0.630, -5.645e-7, -3.150e-7, 2.496e-7
0.629, -5.645e-7, -3.180e-7, 2.465e-7
0.628, -5.706e-7, -3.180e-7, 2.526e-7
0.627, -5.645e-7, -3.150e-7, 2.496e-7
0.626, -5.645e-7, -3.150e-7, 2.496e-7
0.625, -5.645e-7, -3.150e-7, 2.496e-7
0.624, -5.676e-7, -3.180e-7, 2.496e-7
0.623, -5.676e-7, -3.180e-7, 2.496e-7
0.622, -5.676e-7, -3.180e-7, 2.496e-7
0.621, -5.676e-7, -3.180e-7, 2.496e-7
0.620, -5.706e-7, -3.211e-7, 2.496e-7
0.619, -5.706e-7, -3.211e-7, 2.496e-7
0.618, -5.676e-7, -3.180e-7, 2.496e-7
0.617, -5.706e-7, -3.211e-7, 2.496e-7
0.616, -5.706e-7, -3.211e-7, 2.496e-7
0.615, -5.737e-7, -3.241e-7, 2.496e-7
0.614, -5.737e-7, -3.241e-7, 2.496e-7
0.613, -5.737e-7, -3.211e-7, 2.526e-7
0.612, -5.706e-7, -3.211e-7, 2.496e-7
0.611, -5.767e-7, -3.272e-7, 2.496e-7
0.610, -5.737e-7, -3.241e-7, 2.496e-7
0.609, -5.767e-7, -3.272e-7, 2.496e-7
0.608, -5.737e-7, -3.241e-7, 2.496e-7
0.607, -5.767e-7, -3.272e-7, 2.496e-7
0.606, -5.706e-7, -3.241e-7, 2.465e-7
0.605, -5.767e-7, -3.272e-7, 2.496e-7
0.604, -5.737e-7, -3.241e-7, 2.496e-7
0.603, -5.767e-7, -3.272e-7, 2.496e-7
0.602, -5.798e-7, -3.272e-7, 2.526e-7
0.601, -5.767e-7, -3.272e-7, 2.496e-7
0.600, -5.767e-7, -3.272e-7, 2.496e-7
0.599, -5.798e-7, -3.302e-7, 2.496e-7
0.598, -5.798e-7, -3.302e-7, 2.496e-7
0.597, -5.798e-7, -3.302e-7, 2.496e-7
0.596, -5.798e-7, -3.302e-7, 2.496e-7
0.595, -5.829e-7, -3.333e-7, 2.496e-7
0.594, -5.798e-7, -3.302e-7, 2.496e-7
0.593, -5.829e-7, -3.333e-7, 2.496e-7
0.592, -5.829e-7, -3.333e-7, 2.496e-7
0.591, -5.829e-7, -3.333e-7, 2.496e-7
0.590, -5.859e-7, -3.333e-7, 2.526e-7
0.589, -5.859e-7, -3.363e-7, 2.496e-7
0.588, -5.890e-7, -3.363e-7, 2.526e-7
0.587, -5.859e-7, -3.363e-7, 2.496e-7
0.586, -5.859e-7, -3.394e-7, 2.465e-7
0.585, -5.890e-7, -3.363e-7, 2.526e-7
0.584, -5.890e-7, -3.363e-7, 2.526e-7
0.583, -5.890e-7, -3.394e-7, 2.496e-7
0.582, -5.920e-7, -3.394e-7, 2.526e-7
0.581, -5.859e-7, -3.363e-7, 2.496e-7
0.580, -5.920e-7, -3.424e-7, 2.496e-7
0.579, -5.920e-7, -3.394e-7, 2.526e-7
0.578, -5.920e-7, -3.394e-7, 2.526e-7
0.577, -5.981e-7, -3.455e-7, 2.526e-7
0.576, -5.951e-7, -3.424e-7, 2.526e-7
0.575, -5.951e-7, -3.424e-7, 2.526e-7
0.574, -5.920e-7, -3.455e-7, 2.465e-7
0.573, -5.951e-7, -3.424e-7, 2.526e-7
0.572, -5.981e-7, -3.455e-7, 2.526e-7
0.571, -5.981e-7, -3.455e-7, 2.526e-7
0.570, -5.981e-7, -3.455e-7, 2.526e-7
0.569, -5.981e-7, -3.455e-7, 2.526e-7
0.568, -6.012e-7, -3.485e-7, 2.526e-7
0.567, -6.012e-7, -3.485e-7, 2.526e-7
0.566, -6.042e-7, -3.516e-7, 2.526e-7
0.565, -6.012e-7, -3.485e-7, 2.526e-7
0.564, -6.042e-7, -3.516e-7, 2.526e-7
0.563, -6.042e-7, -3.516e-7, 2.526e-7
0.562, -6.042e-7, -3.516e-7, 2.526e-7
0.561, -6.103e-7, -3.546e-7, 2.557e-7
0.560, -6.073e-7, -3.546e-7, 2.526e-7
0.559, -6.103e-7, -3.546e-7, 2.557e-7
0.558, -6.073e-7, -3.546e-7, 2.526e-7
0.557, -6.134e-7, -3.577e-7, 2.557e-7
0.556, -6.103e-7, -3.546e-7, 2.557e-7
0.555, -6.134e-7, -3.577e-7, 2.557e-7
0.554, -6.103e-7, -3.577e-7, 2.526e-7
0.553, -6.134e-7, -3.577e-7, 2.557e-7
0.552, -6.164e-7, -3.607e-7, 2.557e-7
0.551, -6.195e-7, -3.638e-7, 2.557e-7
0.550, -6.195e-7, -3.607e-7, 2.587e-7
0.549, -6.164e-7, -3.638e-7, 2.526e-7
0.548, -6.225e-7, -3.668e-7, 2.557e-7
0.547, -6.225e-7, -3.668e-7, 2.557e-7
0.546, -6.225e-7, -3.668e-7, 2.557e-7
0.545, -6.225e-7, -3.668e-7, 2.557e-7
0.544, -6.256e-7, -3.668e-7, 2.587e-7
0.543, -6.256e-7, -3.668e-7, 2.587e-7
0.542, -6.286e-7, -3.699e-7, 2.587e-7
0.541, -6.256e-7, -3.699e-7, 2.557e-7
0.540, -6.286e-7, -3.699e-7, 2.587e-7
0.539, -6.286e-7, -3.699e-7, 2.587e-7
0.538, -6.317e-7, -3.729e-7, 2.587e-7
0.537, -6.317e-7, -3.729e-7, 2.587e-7
0.536, -6.286e-7, -3.699e-7, 2.587e-7
0.535, -6.317e-7, -3.729e-7, 2.587e-7
0.534, -6.378e-7, -3.760e-7, 2.618e-7
0.533, -6.347e-7, -3.760e-7, 2.587e-7
0.532, -6.378e-7, -3.790e-7, 2.587e-7
0.531, -6.408e-7, -3.790e-7, 2.618e-7
0.530, -6.408e-7, -3.790e-7, 2.618e-7
0.529, -6.408e-7, -3.821e-7, 2.587e-7
0.528, -6.439e-7, -3.821e-7, 2.618e-7
0.527, -6.408e-7, -3.790e-7, 2.618e-7
0.526, -6.408e-7, -3.821e-7, 2.587e-7
0.525, -6.439e-7, -3.821e-7, 2.618e-7
0.524, -6.439e-7, -3.821e-7, 2.618e-7
0.523, -6.469e-7, -3.882e-7, 2.587e-7
0.522, -6.530e-7, -3.882e-7, 2.648e-7
0.521, -6.500e-7, -3.851e-7, 2.648e-7
0.520, -6.469e-7, -3.882e-7, 2.587e-7
0.519, -6.530e-7, -3.912e-7, 2.618e-7
0.518, -6.500e-7, -3.882e-7, 2.618e-7
0.517, -6.530e-7, -3.912e-7, 2.618e-7
0.516, -6.561e-7, -3.912e-7, 2.648e-7
0.515, -6.561e-7, -3.912e-7, 2.648e-7
0.514, -6.561e-7, -3.943e-7, 2.618e-7
0.513, -6.591e-7, -3.943e-7, 2.648e-7
0.512, -6.591e-7, -3.943e-7, 2.648e-7
0.511, -6.652e-7, -4.004e-7, 2.648e-7
0.510, -6.622e-7, -3.973e-7, 2.648e-7
0.509, -6.652e-7, -4.004e-7, 2.648e-7
0.508, -6.652e-7, -4.004e-7, 2.648e-7
0.507, -6.683e-7, -4.004e-7, 2.679e-7
0.506, -6.652e-7, -4.004e-7, 2.648e-7
0.505, -6.683e-7, -4.034e-7, 2.648e-7
0.504, -6.713e-7, -4.034e-7, 2.679e-7
0.503, -6.713e-7, -4.065e-7, 2.648e-7
0.502, -6.744e-7, -4.065e-7, 2.679e-7
0.501, -6.713e-7, -4.065e-7, 2.648e-7
0.500, -6.775e-7, -4.096e-7, 2.679e-7
0.499, -6.744e-7, -4.096e-7, 2.648e-7
0.498, -6.744e-7, -4.065e-7, 2.679e-7
0.497, -6.805e-7, -4.126e-7, 2.679e-7
0.496, -6.775e-7, -4.096e-7, 2.679e-7
0.495, -6.805e-7, -4.126e-7, 2.679e-7
0.494, -6.805e-7, -4.126e-7, 2.679e-7
0.493, -6.805e-7, -4.126e-7, 2.679e-7
0.492, -6.805e-7, -4.126e-7, 2.679e-7
0.491, -6.866e-7, -4.187e-7, 2.679e-7
0.490, -6.897e-7, -4.187e-7, 2.710e-7
0.489, -6.866e-7, -4.187e-7, 2.679e-7
0.488, -6.897e-7, -4.218e-7, 2.679e-7
0.487, -6.897e-7, -4.218e-7, 2.679e-7
0.486, -6.866e-7, -4.218e-7, 2.648e-7
0.485, -6.958e-7, -4.248e-7, 2.710e-7
0.484, -6.927e-7, -4.218e-7, 2.710e-7
0.483, -6.988e-7, -4.279e-7, 2.710e-7
0.482, -7.019e-7, -4.279e-7, 2.740e-7
0.481, -6.988e-7, -4.279e-7, 2.710e-7
0.480, -7.019e-7, -4.309e-7, 2.710e-7
0.479, -7.049e-7, -4.309e-7, 2.740e-7
0.478, -7.019e-7, -4.309e-7, 2.710e-7
0.477, -7.080e-7, -4.370e-7, 2.710e-7
0.476, -7.080e-7, -4.340e-7, 2.740e-7
0.475, -7.049e-7, -4.340e-7, 2.710e-7
0.474, -7.110e-7, -4.401e-7, 2.710e-7
0.473, -7.141e-7, -4.401e-7, 2.740e-7
0.472, -7.080e-7, -4.370e-7, 2.710e-7
0.471, -7.141e-7, -4.431e-7, 2.710e-7
0.470, -7.171e-7, -4.401e-7, 2.771e-7
0.469, -7.171e-7, -4.431e-7, 2.740e-7
0.468, -7.202e-7, -4.462e-7, 2.740e-7
0.467, -7.202e-7, -4.431e-7, 2.771e-7
0.466, -7.202e-7, -4.462e-7, 2.740e-7
0.465, -7.263e-7, -4.523e-7, 2.740e-7
0.464, -7.324e-7, -4.523e-7, 2.801e-7
0.463, -7.263e-7, -4.523e-7, 2.740e-7
0.462, -7.324e-7, -4.553e-7, 2.771e-7
0.461, -7.293e-7, -4.523e-7, 2.771e-7
0.460, -7.324e-7, -4.553e-7, 2.771e-7
0.459, -7.354e-7, -4.584e-7, 2.771e-7
0.458, -7.354e-7, -4.584e-7, 2.771e-7
0.457, -7.385e-7, -4.614e-7, 2.771e-7
0.456, -7.385e-7, -4.614e-7, 2.771e-7
0.455, -7.446e-7, -4.645e-7, 2.801e-7
0.454, -7.446e-7, -4.675e-7, 2.771e-7
0.453, -7.476e-7, -4.675e-7, 2.801e-7
0.452, -7.476e-7, -4.675e-7, 2.801e-7
0.451, -7.507e-7, -4.706e-7, 2.801e-7
0.450, -7.537e-7, -4.736e-7, 2.801e-7
0.449, -7.568e-7, -4.736e-7, 2.832e-7
0.448, -7.568e-7, -4.767e-7, 2.801e-7
0.447, -7.598e-7, -4.767e-7, 2.832e-7
0.446, -7.629e-7, -4.797e-7, 2.832e-7
0.445, -7.629e-7, -4.797e-7, 2.832e-7
0.444, -7.629e-7, -4.797e-7, 2.832e-7
0.443, -7.659e-7, -4.828e-7, 2.832e-7
0.442, -7.721e-7, -4.858e-7, 2.862e-7
0.441, -7.659e-7, -4.828e-7, 2.832e-7
0.440, -7.721e-7, -4.858e-7, 2.862e-7
0.439, -7.721e-7, -4.889e-7, 2.832e-7
0.438, -7.782e-7, -4.889e-7, 2.893e-7
0.437, -7.751e-7, -4.919e-7, 2.832e-7
0.436, -7.812e-7, -4.950e-7, 2.862e-7
0.435, -7.843e-7, -4.950e-7, 2.893e-7
0.434, -7.873e-7, -4.980e-7, 2.893e-7
0.433, -7.904e-7, -5.011e-7, 2.893e-7
0.432, -7.904e-7, -5.011e-7, 2.893e-7
0.431, -7.904e-7, -5.011e-7, 2.893e-7
0.430, -7.934e-7, -5.042e-7, 2.893e-7
0.429, -7.965e-7, -5.072e-7, 2.893e-7
0.428, -7.995e-7, -5.072e-7, 2.923e-7
0.427, -7.995e-7, -5.072e-7, 2.923e-7
0.426, -7.995e-7, -5.103e-7, 2.893e-7
0.425, -8.056e-7, -5.133e-7, 2.923e-7
0.424, -8.087e-7, -5.133e-7, 2.954e-7
0.423, -8.087e-7, -5.164e-7, 2.923e-7
0.422, -8.117e-7, -5.194e-7, 2.923e-7
0.421, -8.117e-7, -5.164e-7, 2.954e-7
0.420, -8.148e-7, -5.225e-7, 2.923e-7
0.419, -8.209e-7, -5.225e-7, 2.984e-7
0.418, -8.178e-7, -5.225e-7, 2.954e-7
0.417, -8.178e-7, -5.255e-7, 2.923e-7
0.416, -8.270e-7, -5.286e-7, 2.984e-7
0.415, -8.270e-7, -5.286e-7, 2.984e-7
0.414, -8.270e-7, -5.316e-7, 2.954e-7
0.413, -8.331e-7, -5.347e-7, 2.984e-7
0.412, -8.300e-7, -5.316e-7, 2.984e-7
0.411, -8.331e-7, -5.377e-7, 2.954e-7
0.410, -8.422e-7, -5.408e-7, 3.015e-7
0.409, -8.361e-7, -5.377e-7, 2.984e-7
0.408, -8.422e-7, -5.438e-7, 2.984e-7
0.407, -8.422e-7, -5.438e-7, 2.984e-7
0.406, -8.453e-7, -5.438e-7, 3.015e-7
0.405, -8.453e-7, -5.469e-7, 2.984e-7
0.404, -8.544e-7, -5.499e-7, 3.045e-7
0.403, -8.483e-7, -5.499e-7, 2.984e-7
0.402, -8.544e-7, -5.530e-7, 3.015e-7
0.401, -8.605e-7, -5.560e-7, 3.045e-7
0.400, -8.575e-7, -5.560e-7, 3.015e-7
0.399, -8.605e-7, -5.560e-7, 3.045e-7
0.398, -8.636e-7, -5.591e-7, 3.045e-7
0.397, -8.666e-7, -5.591e-7, 3.076e-7
0.396, -8.697e-7, -5.652e-7, 3.045e-7
0.395, -8.728e-7, -5.652e-7, 3.076e-7
0.394, -8.728e-7, -5.652e-7, 3.076e-7
0.393, -8.789e-7, -5.713e-7, 3.076e-7
0.392, -8.789e-7, -5.713e-7, 3.076e-7
0.391, -8.819e-7, -5.743e-7, 3.076e-7
0.390, -8.819e-7, -5.743e-7, 3.076e-7
0.389, -8.850e-7, -5.774e-7, 3.076e-7
0.388, -8.850e-7, -5.774e-7, 3.076e-7
0.387, -8.880e-7, -5.804e-7, 3.076e-7
0.386, -8.941e-7, -5.835e-7, 3.106e-7
0.385, -8.941e-7, -5.835e-7, 3.106e-7
0.384, -8.972e-7, -5.865e-7, 3.106e-7
0.383, -9.002e-7, -5.865e-7, 3.137e-7
0.382, -9.002e-7, -5.896e-7, 3.106e-7
0.381, -9.002e-7, -5.896e-7, 3.106e-7
0.380, -9.063e-7, -5.926e-7, 3.137e-7
0.379, -9.063e-7, -5.926e-7, 3.137e-7
0.378, -9.094e-7, -5.957e-7, 3.137e-7
0.377, -9.094e-7, -5.957e-7, 3.137e-7
0.376, -9.124e-7, -5.988e-7, 3.137e-7
0.375, -9.185e-7, -6.018e-7, 3.167e-7
0.374, -9.185e-7, -6.018e-7, 3.167e-7
0.373, -9.216e-7, -6.049e-7, 3.167e-7
0.372, -9.216e-7, -6.049e-7, 3.167e-7
0.371, -9.277e-7, -6.110e-7, 3.167e-7
0.370, -9.277e-7, -6.079e-7, 3.198e-7
0.369, -9.277e-7, -6.110e-7, 3.167e-7
0.368, -9.368e-7, -6.171e-7, 3.198e-7
0.367, -9.338e-7, -6.140e-7, 3.198e-7
0.366, -9.368e-7, -6.171e-7, 3.198e-7
0.365, -9.429e-7, -6.232e-7, 3.198e-7
0.364, -9.429e-7, -6.201e-7, 3.228e-7
0.363, -9.429e-7, -6.201e-7, 3.228e-7
0.362, -9.490e-7, -6.262e-7, 3.228e-7
0.361, -9.521e-7, -6.262e-7, 3.259e-7
0.360, -9.521e-7, -6.293e-7, 3.228e-7
0.359, -9.551e-7, -6.323e-7, 3.228e-7
0.358, -9.582e-7, -6.323e-7, 3.259e-7
0.357, -9.582e-7, -6.323e-7, 3.259e-7
0.356, -9.643e-7, -6.384e-7, 3.259e-7
0.355, -9.643e-7, -6.354e-7, 3.289e-7
0.354, -9.643e-7, -6.384e-7, 3.259e-7
0.353, -9.674e-7, -6.415e-7, 3.259e-7
0.352, -9.735e-7, -6.415e-7, 3.320e-7
0.351, -9.735e-7, -6.415e-7, 3.320e-7
0.350, -9.765e-7, -6.476e-7, 3.289e-7
0.349, -9.796e-7, -6.476e-7, 3.320e-7
0.348, -9.765e-7, -6.476e-7, 3.289e-7
0.347, -9.857e-7, -6.537e-7, 3.320e-7
0.346, -9.857e-7, -6.537e-7, 3.320e-7
0.345, -9.887e-7, -6.537e-7, 3.350e-7
0.344, -9.918e-7, -6.567e-7, 3.350e-7
0.343, -9.918e-7, -6.567e-7, 3.350e-7
0.342, -9.918e-7, -6.598e-7, 3.320e-7
0.341, -1.001e-6, -6.628e-7, 3.381e-7
0.340, -9.979e-7, -6.598e-7, 3.381e-7
0.339, -1.004e-6, -6.659e-7, 3.381e-7
0.338, -1.004e-6, -6.659e-7, 3.381e-7
0.337, -1.007e-6, -6.659e-7, 3.411e-7
0.336, -1.010e-6, -6.689e-7, 3.411e-7
0.335, -1.013e-6, -6.689e-7, 3.442e-7
0.334, -1.016e-6, -6.720e-7, 3.442e-7
0.333, -1.016e-6, -6.750e-7, 3.411e-7
0.332, -1.019e-6, -6.750e-7, 3.442e-7
0.331, -1.019e-6, -6.750e-7, 3.442e-7
0.330, -1.025e-6, -6.811e-7, 3.442e-7
0.329, -1.028e-6, -6.811e-7, 3.472e-7
0.328, -1.025e-6, -6.811e-7, 3.442e-7
0.327, -1.031e-6, -6.842e-7, 3.472e-7
0.326, -1.034e-6, -6.842e-7, 3.503e-7
0.325, -1.034e-6, -6.842e-7, 3.503e-7
0.324, -1.034e-6, -6.842e-7, 3.503e-7
0.323, -1.041e-6, -6.872e-7, 3.533e-7
0.322, -1.038e-6, -6.872e-7, 3.503e-7
0.321, -1.044e-6, -6.903e-7, 3.533e-7
0.320, -1.044e-6, -6.903e-7, 3.533e-7
0.319, -1.047e-6, -6.934e-7, 3.533e-7
0.318, -1.047e-6, -6.934e-7, 3.533e-7
0.317, -1.050e-6, -6.934e-7, 3.564e-7
0.316, -1.053e-6, -6.964e-7, 3.564e-7
0.315, -1.056e-6, -6.964e-7, 3.594e-7
0.314, -1.053e-6, -6.995e-7, 3.533e-7
0.313, -1.062e-6, -7.025e-7, 3.594e-7
0.312, -1.062e-6, -6.995e-7, 3.625e-7
0.311, -1.062e-6, -7.025e-7, 3.594e-7
0.310, -1.065e-6, -7.025e-7, 3.625e-7
0.309, -1.065e-6, -7.025e-7, 3.625e-7
0.308, -1.068e-6, -7.056e-7, 3.625e-7
0.307, -1.071e-6, -7.086e-7, 3.625e-7
0.306, -1.074e-6, -7.056e-7, 3.686e-7
0.305, -1.074e-6, -7.117e-7, 3.625e-7
0.304, -1.077e-6, -7.117e-7, 3.655e-7
0.303, -1.077e-6, -7.086e-7, 3.686e-7
0.302, -1.077e-6, -7.117e-7, 3.655e-7
0.301, -1.080e-6, -7.117e-7, 3.686e-7
0.300, -1.083e-6, -7.117e-7, 3.717e-7
0.299, -1.083e-6, -7.117e-7, 3.717e-7
0.298, -1.086e-6, -7.147e-7, 3.717e-7
0.297, -1.086e-6, -7.147e-7, 3.717e-7
0.296, -1.083e-6, -7.117e-7, 3.717e-7
0.295, -1.089e-6, -7.147e-7, 3.747e-7
0.294, -1.096e-6, -7.178e-7, 3.778e-7
0.293, -1.089e-6, -7.147e-7, 3.747e-7
0.292, -1.092e-6, -7.178e-7, 3.747e-7
0.291, -1.089e-6, -7.147e-7, 3.747e-7
0.290, -1.092e-6, -7.178e-7, 3.747e-7
0.289, -1.099e-6, -7.178e-7, 3.808e-7
0.288, -1.096e-6, -7.178e-7, 3.778e-7
0.287, -1.099e-6, -7.208e-7, 3.778e-7
0.286, -1.096e-6, -7.208e-7, 3.747e-7
0.285, -1.102e-6, -7.208e-7, 3.808e-7
0.284, -1.102e-6, -7.208e-7, 3.808e-7
0.283, -1.102e-6, -7.208e-7, 3.808e-7
0.282, -1.105e-6, -7.208e-7, 3.839e-7
0.281, -1.102e-6, -7.208e-7, 3.808e-7
0.280, -1.105e-6, -7.208e-7, 3.839e-7
0.279, -1.105e-6, -7.208e-7, 3.839e-7
0.278, -1.108e-6, -7.208e-7, 3.869e-7
0.277, -1.108e-6, -7.208e-7, 3.869e-7
0.276, -1.105e-6, -7.208e-7, 3.839e-7
0.275, -1.108e-6, -7.208e-7, 3.869e-7
0.274, -1.111e-6, -7.208e-7, 3.900e-7
0.273, -1.111e-6, -7.208e-7, 3.900e-7
0.272, -1.114e-6, -7.208e-7, 3.930e-7
0.271, -1.114e-6, -7.208e-7, 3.930e-7
0.270, -1.114e-6, -7.239e-7, 3.900e-7
0.269, -1.114e-6, -7.208e-7, 3.930e-7
0.268, -1.114e-6, -7.208e-7, 3.930e-7
0.267, -1.114e-6, -7.208e-7, 3.930e-7
0.266, -1.117e-6, -7.208e-7, 3.961e-7
0.265, -1.117e-6, -7.208e-7, 3.961e-7
0.264, -1.117e-6, -7.208e-7, 3.961e-7
0.263, -1.114e-6, -7.178e-7, 3.961e-7
0.262, -1.117e-6, -7.208e-7, 3.961e-7
0.261, -1.120e-6, -7.208e-7, 3.991e-7
0.260, -1.117e-6, -7.178e-7, 3.991e-7
0.259, -1.120e-6, -7.208e-7, 3.991e-7
0.258, -1.117e-6, -7.178e-7, 3.991e-7
0.257, -1.120e-6, -7.178e-7, 4.022e-7
0.256, -1.117e-6, -7.178e-7, 3.991e-7
0.255, -1.117e-6, -7.147e-7, 4.022e-7
0.254, -1.117e-6, -7.147e-7, 4.022e-7
0.253, -1.120e-6, -7.178e-7, 4.022e-7
0.252, -1.120e-6, -7.147e-7, 4.052e-7
0.251, -1.120e-6, -7.147e-7, 4.052e-7
0.250, -1.120e-6, -7.147e-7, 4.052e-7
0.249, -1.123e-6, -7.117e-7, 4.113e-7
0.248, -1.120e-6, -7.117e-7, 4.083e-7
0.247, -1.117e-6, -7.117e-7, 4.052e-7
0.246, -1.123e-6, -7.117e-7, 4.113e-7
0.245, -1.117e-6, -7.086e-7, 4.083e-7
0.244, -1.120e-6, -7.117e-7, 4.083e-7
0.243, -1.117e-6, -7.056e-7, 4.113e-7
0.242, -1.114e-6, -7.056e-7, 4.083e-7
0.241, -1.120e-6, -7.086e-7, 4.113e-7
0.240, -1.117e-6, -7.025e-7, 4.144e-7
0.239, -1.117e-6, -7.025e-7, 4.144e-7
0.238, -1.117e-6, -7.056e-7, 4.113e-7
0.237, -1.117e-6, -7.025e-7, 4.144e-7
0.236, -1.117e-6, -7.025e-7, 4.144e-7
0.235, -1.117e-6, -7.025e-7, 4.144e-7
0.234, -1.120e-6, -6.995e-7, 4.205e-7
0.233, -1.117e-6, -6.995e-7, 4.174e-7
0.232, -1.117e-6, -6.995e-7, 4.174e-7
0.231, -1.117e-6, -6.964e-7, 4.205e-7
0.230, -1.114e-6, -6.964e-7, 4.174e-7
0.229, -1.114e-6, -6.934e-7, 4.205e-7
0.228, -1.108e-6, -6.903e-7, 4.174e-7
0.227, -1.114e-6, -6.934e-7, 4.205e-7
0.226, -1.111e-6, -6.903e-7, 4.205e-7
0.225, -1.111e-6, -6.903e-7, 4.205e-7
0.224, -1.108e-6, -6.872e-7, 4.205e-7
0.223, -1.111e-6, -6.872e-7, 4.235e-7
0.222, -1.108e-6, -6.842e-7, 4.235e-7
0.221, -1.108e-6, -6.842e-7, 4.235e-7
0.220, -1.108e-6, -6.842e-7, 4.235e-7
0.219, -1.105e-6, -6.811e-7, 4.235e-7
0.218, -1.105e-6, -6.811e-7, 4.235e-7
0.217, -1.108e-6, -6.811e-7, 4.266e-7
0.216, -1.099e-6, -6.750e-7, 4.235e-7
0.215, -1.102e-6, -6.750e-7, 4.266e-7
0.214, -1.105e-6, -6.750e-7, 4.296e-7
0.213, -1.099e-6, -6.750e-7, 4.235e-7
0.212, -1.099e-6, -6.720e-7, 4.266e-7
0.211, -1.102e-6, -6.720e-7, 4.296e-7
0.210, -1.096e-6, -6.689e-7, 4.266e-7
0.209, -1.096e-6, -6.689e-7, 4.266e-7
0.208, -1.096e-6, -6.659e-7, 4.296e-7
0.207, -1.096e-6, -6.659e-7, 4.296e-7
0.206, -1.096e-6, -6.628e-7, 4.327e-7
0.205, -1.086e-6, -6.598e-7, 4.266e-7
0.204, -1.092e-6, -6.598e-7, 4.327e-7
0.203, -1.086e-6, -6.567e-7, 4.296e-7
0.202, -1.086e-6, -6.567e-7, 4.296e-7
0.201, -1.086e-6, -6.567e-7, 4.296e-7
0.200, -1.083e-6, -6.537e-7, 4.296e-7
0.199, -1.083e-6, -6.537e-7, 4.296e-7
0.198, -1.083e-6, -6.506e-7, 4.327e-7
0.197, -1.077e-6, -6.476e-7, 4.296e-7
0.196, -1.077e-6, -6.476e-7, 4.296e-7
0.195, -1.077e-6, -6.476e-7, 4.296e-7
0.194, -1.074e-6, -6.415e-7, 4.327e-7
0.193, -1.071e-6, -6.415e-7, 4.296e-7
0.192, -1.077e-6, -6.445e-7, 4.327e-7
0.191, -1.068e-6, -6.354e-7, 4.327e-7
0.190, -1.068e-6, -6.384e-7, 4.296e-7
0.189, -1.068e-6, -6.354e-7, 4.327e-7
0.188, -1.065e-6, -6.323e-7, 4.327e-7
0.187, -1.059e-6, -6.323e-7, 4.266e-7
0.186, -1.065e-6, -6.323e-7, 4.327e-7
0.185, -1.059e-6, -6.262e-7, 4.327e-7
0.184, -1.059e-6, -6.293e-7, 4.296e-7
0.183, -1.056e-6, -6.262e-7, 4.296e-7
0.182, -1.056e-6, -6.232e-7, 4.327e-7
0.181, -1.053e-6, -6.232e-7, 4.296e-7
0.180, -1.050e-6, -6.201e-7, 4.296e-7
0.179, -1.044e-6, -6.140e-7, 4.296e-7
0.178, -1.047e-6, -6.171e-7, 4.296e-7
0.177, -1.047e-6, -6.171e-7, 4.296e-7
0.176, -1.041e-6, -6.110e-7, 4.296e-7
0.175, -1.041e-6, -6.140e-7, 4.266e-7
0.174, -1.038e-6, -6.079e-7, 4.296e-7
0.173, -1.038e-6, -6.079e-7, 4.296e-7
0.172, -1.034e-6, -6.079e-7, 4.266e-7
0.171, -1.031e-6, -6.049e-7, 4.266e-7
0.170, -1.028e-6, -6.018e-7, 4.266e-7
0.169, -1.028e-6, -6.018e-7, 4.266e-7
0.168, -1.025e-6, -5.988e-7, 4.266e-7
0.167, -1.022e-6, -5.957e-7, 4.266e-7
0.166, -1.022e-6, -5.957e-7, 4.266e-7
0.165, -1.016e-6, -5.927e-7, 4.235e-7
0.164, -1.016e-6, -5.927e-7, 4.235e-7
0.163, -1.013e-6, -5.896e-7, 4.235e-7
0.162, -1.013e-6, -5.896e-7, 4.235e-7
0.161, -1.007e-6, -5.865e-7, 4.205e-7
0.160, -1.007e-6, -5.835e-7, 4.235e-7
0.159, -1.004e-6, -5.835e-7, 4.205e-7
0.158, -1.001e-6, -5.804e-7, 4.205e-7
0.157, -1.004e-6, -5.804e-7, 4.235e-7
0.156, -9.979e-7, -5.774e-7, 4.205e-7
0.155, -9.948e-7, -5.774e-7, 4.174e-7
0.154, -9.948e-7, -5.743e-7, 4.205e-7
0.153, -9.887e-7, -5.713e-7, 4.174e-7
0.152, -9.887e-7, -5.713e-7, 4.174e-7
0.151, -9.887e-7, -5.713e-7, 4.174e-7
0.150, -9.857e-7, -5.682e-7, 4.174e-7
0.149, -9.857e-7, -5.682e-7, 4.174e-7
0.148, -9.826e-7, -5.652e-7, 4.174e-7
0.147, -9.796e-7, -5.652e-7, 4.144e-7
0.146, -9.796e-7, -5.621e-7, 4.174e-7
0.145, -9.735e-7, -5.591e-7, 4.144e-7
0.144, -9.704e-7, -5.591e-7, 4.113e-7
0.143, -9.674e-7, -5.560e-7, 4.113e-7
0.142, -9.674e-7, -5.560e-7, 4.113e-7
0.141, -9.643e-7, -5.560e-7, 4.083e-7
0.140, -9.643e-7, -5.530e-7, 4.113e-7
0.139, -9.582e-7, -5.499e-7, 4.083e-7
0.138, -9.551e-7, -5.499e-7, 4.052e-7
0.137, -9.582e-7, -5.499e-7, 4.083e-7
0.136, -9.521e-7, -5.469e-7, 4.052e-7
0.135, -9.521e-7, -5.469e-7, 4.052e-7
0.134, -9.490e-7, -5.438e-7, 4.052e-7
0.133, -9.460e-7, -5.408e-7, 4.052e-7
0.132, -9.429e-7, -5.408e-7, 4.022e-7
0.131, -9.429e-7, -5.377e-7, 4.052e-7
0.130, -9.368e-7, -5.377e-7, 3.991e-7
0.129, -9.368e-7, -5.377e-7, 3.991e-7
0.128, -9.338e-7, -5.347e-7, 3.991e-7
0.127, -9.307e-7, -5.316e-7, 3.991e-7
0.126, -9.368e-7, -5.377e-7, 3.991e-7
0.125, -9.307e-7, -5.316e-7, 3.991e-7
0.124, -9.277e-7, -5.316e-7, 3.961e-7
0.123, -9.277e-7, -5.316e-7, 3.961e-7
0.122, -9.246e-7, -5.286e-7, 3.961e-7
0.121, -9.216e-7, -5.255e-7, 3.961e-7
0.120, -9.185e-7, -5.255e-7, 3.930e-7
0.119, -9.216e-7, -5.255e-7, 3.961e-7
0.118, -9.124e-7, -5.225e-7, 3.900e-7
0.117, -9.155e-7, -5.225e-7, 3.930e-7
0.116, -9.094e-7, -5.194e-7, 3.900e-7
0.115, -9.094e-7, -5.194e-7, 3.900e-7
0.114, -9.094e-7, -5.194e-7, 3.900e-7
0.113, -9.033e-7, -5.164e-7, 3.869e-7
0.112, -9.033e-7, -5.164e-7, 3.869e-7
0.111, -9.033e-7, -5.164e-7, 3.869e-7
0.110, -9.002e-7, -5.133e-7, 3.869e-7
0.109, -8.972e-7, -5.133e-7, 3.839e-7
0.108, -9.002e-7, -5.133e-7, 3.869e-7
0.107, -8.941e-7, -5.103e-7, 3.839e-7
0.106, -8.941e-7, -5.103e-7, 3.839e-7
0.105, -8.911e-7, -5.103e-7, 3.808e-7
0.104, -8.880e-7, -5.072e-7, 3.808e-7
0.103, -8.850e-7, -5.072e-7, 3.778e-7
0.102, -8.880e-7, -5.042e-7, 3.839e-7
0.101, -8.819e-7, -5.042e-7, 3.778e-7
0.100, -8.789e-7, -5.042e-7, 3.747e-7
0.099, -8.789e-7, -5.011e-7, 3.778e-7
0.098, -8.758e-7, -5.011e-7, 3.747e-7
0.097, -8.758e-7, -5.011e-7, 3.747e-7
0.096, -8.728e-7, -4.981e-7, 3.747e-7
0.095, -8.728e-7, -5.011e-7, 3.716e-7
0.094, -8.666e-7, -4.950e-7, 3.716e-7
0.093, -8.666e-7, -4.950e-7, 3.716e-7
0.092, -8.636e-7, -4.950e-7, 3.686e-7
0.091, -8.605e-7, -4.919e-7, 3.686e-7
0.090, -8.605e-7, -4.919e-7, 3.686e-7
0.089, -8.605e-7, -4.919e-7, 3.686e-7
0.088, -8.575e-7, -4.919e-7, 3.655e-7
0.087, -8.575e-7, -4.919e-7, 3.655e-7
0.086, -8.544e-7, -4.919e-7, 3.625e-7
0.085, -8.544e-7, -4.889e-7, 3.655e-7
0.084, -8.483e-7, -4.858e-7, 3.625e-7
0.083, -8.514e-7, -4.889e-7, 3.625e-7
0.082, -8.483e-7, -4.858e-7, 3.625e-7
0.081, -8.453e-7, -4.858e-7, 3.594e-7
0.080, -8.453e-7, -4.858e-7, 3.594e-7
0.079, -8.422e-7, -4.828e-7, 3.594e-7
0.078, -8.361e-7, -4.797e-7, 3.564e-7
0.077, -8.422e-7, -4.828e-7, 3.594e-7
0.076, -8.361e-7, -4.797e-7, 3.564e-7
0.075, -8.361e-7, -4.797e-7, 3.564e-7
0.074, -8.361e-7, -4.797e-7, 3.564e-7
0.073, -8.270e-7, -4.736e-7, 3.533e-7
0.072, -8.300e-7, -4.767e-7, 3.533e-7
0.071, -8.300e-7, -4.767e-7, 3.533e-7
0.070, -8.270e-7, -4.736e-7, 3.533e-7
0.069, -8.209e-7, -4.736e-7, 3.472e-7
0.068, -8.239e-7, -4.736e-7, 3.503e-7
0.067, -8.209e-7, -4.706e-7, 3.503e-7
0.066, -8.178e-7, -4.706e-7, 3.472e-7
0.065, -8.209e-7, -4.706e-7, 3.503e-7
0.064, -8.117e-7, -4.675e-7, 3.442e-7
0.063, -8.148e-7, -4.706e-7, 3.442e-7
0.062, -8.148e-7, -4.675e-7, 3.472e-7
0.061, -8.117e-7, -4.675e-7, 3.442e-7
0.060, -8.117e-7, -4.675e-7, 3.442e-7
0.059, -8.087e-7, -4.645e-7, 3.442e-7
0.058, -8.026e-7, -4.614e-7, 3.411e-7
0.057, -8.056e-7, -4.645e-7, 3.411e-7
0.056, -8.026e-7, -4.614e-7, 3.411e-7
0.055, -8.026e-7, -4.614e-7, 3.411e-7
0.054, -8.026e-7, -4.614e-7, 3.411e-7
0.053, -7.965e-7, -4.584e-7, 3.381e-7
0.052, -7.934e-7, -4.584e-7, 3.350e-7
0.051, -7.965e-7, -4.584e-7, 3.381e-7
0.050, -7.904e-7, -4.553e-7, 3.350e-7
0.049, -7.934e-7, -4.584e-7, 3.350e-7
0.048, -7.904e-7, -4.553e-7, 3.350e-7
0.047, -7.904e-7, -4.553e-7, 3.350e-7
0.046, -7.873e-7, -4.553e-7, 3.320e-7
0.045, -7.843e-7, -4.523e-7, 3.320e-7
0.044, -7.843e-7, -4.523e-7, 3.320e-7
0.043, -7.843e-7, -4.523e-7, 3.320e-7
0.042, -7.812e-7, -4.523e-7, 3.289e-7
0.041, -7.782e-7, -4.492e-7, 3.289e-7
0.040, -7.782e-7, -4.492e-7, 3.289e-7
0.039, -7.782e-7, -4.492e-7, 3.289e-7
0.038, -7.751e-7, -4.462e-7, 3.289e-7
0.037, -7.751e-7, -4.462e-7, 3.289e-7
0.036, -7.721e-7, -4.462e-7, 3.259e-7
0.035, -7.721e-7, -4.462e-7, 3.259e-7
0.034, -7.721e-7, -4.462e-7, 3.259e-7
0.033, -7.690e-7, -4.431e-7, 3.259e-7
0.032, -7.690e-7, -4.431e-7, 3.259e-7
0.031, -7.690e-7, -4.431e-7, 3.259e-7
0.030, -7.629e-7, -4.401e-7, 3.228e-7
0.029, -7.659e-7, -4.431e-7, 3.228e-7
0.028, -7.629e-7, -4.401e-7, 3.228e-7
0.027, -7.598e-7, -4.401e-7, 3.198e-7
0.026, -7.598e-7, -4.401e-7, 3.198e-7
0.025, -7.598e-7, -4.370e-7, 3.228e-7
0.024, -7.568e-7, -4.370e-7, 3.198e-7
0.023, -7.598e-7, -4.401e-7, 3.198e-7
0.022, -7.568e-7, -4.340e-7, 3.228e-7
0.021, -7.537e-7, -4.370e-7, 3.167e-7
0.020, -7.537e-7, -4.370e-7, 3.167e-7
0.019, -7.537e-7, -4.340e-7, 3.198e-7
0.018, -7.476e-7, -4.309e-7, 3.167e-7
0.017, -7.507e-7, -4.340e-7, 3.167e-7
0.016, -7.476e-7, -4.309e-7, 3.167e-7
0.015, -7.446e-7, -4.309e-7, 3.137e-7
0.014, -7.446e-7, -4.309e-7, 3.137e-7
0.013, -7.446e-7, -4.279e-7, 3.167e-7
0.012, -7.415e-7, -4.279e-7, 3.137e-7
0.011, -7.415e-7, -4.279e-7, 3.137e-7
0.010, -7.446e-7, -4.279e-7, 3.167e-7
0.009, -7.385e-7, -4.248e-7, 3.137e-7
0.008, -7.415e-7, -4.279e-7, 3.137e-7
0.007, -7.415e-7, -4.248e-7, 3.167e-7
0.006, -7.385e-7, -4.248e-7, 3.137e-7
0.005, -7.385e-7, -4.248e-7, 3.137e-7
0.004, -7.354e-7, -4.218e-7, 3.137e-7
0.003, -7.324e-7, -4.218e-7, 3.106e-7
0.002, -7.324e-7, -4.218e-7, 3.106e-7
0.001, -7.324e-7, -4.218e-7, 3.106e-7
0.000, -7.293e-7, -4.187e-7, 3.106e-7
-0.001, -7.354e-7, -4.218e-7, 3.137e-7
-0.002, -7.324e-7, -4.218e-7, 3.106e-7
-0.003, -7.293e-7, -4.187e-7, 3.106e-7
-0.004, -7.293e-7, -4.187e-7, 3.106e-7
-0.005, -7.263e-7, -4.157e-7, 3.106e-7
-0.006, -7.232e-7, -4.157e-7, 3.076e-7
-0.007, -7.263e-7, -4.157e-7, 3.106e-7
-0.008, -7.232e-7, -4.157e-7, 3.076e-7
-0.009, -7.232e-7, -4.157e-7, 3.076e-7
-0.010, -7.202e-7, -4.126e-7, 3.076e-7
-0.011, -7.202e-7, -4.126e-7, 3.076e-7
-0.012, -7.202e-7, -4.126e-7, 3.076e-7
-0.013, -7.232e-7, -4.126e-7, 3.106e-7
-0.014, -7.171e-7, -4.096e-7, 3.076e-7
-0.015, -7.202e-7, -4.126e-7, 3.076e-7
-0.016, -7.171e-7, -4.096e-7, 3.076e-7
-0.017, -7.141e-7, -4.096e-7, 3.045e-7
-0.018, -7.141e-7, -4.065e-7, 3.076e-7
-0.019, -7.110e-7, -4.065e-7, 3.045e-7
-0.020, -7.110e-7, -4.065e-7, 3.045e-7
-0.021, -7.110e-7, -4.035e-7, 3.076e-7
-0.022, -7.080e-7, -4.035e-7, 3.045e-7
-0.023, -7.110e-7, -4.065e-7, 3.045e-7
-0.024, -7.110e-7, -4.035e-7, 3.076e-7
-0.025, -7.049e-7, -4.035e-7, 3.015e-7
-0.026, -7.080e-7, -4.035e-7, 3.045e-7
-0.027, -7.049e-7, -4.004e-7, 3.045e-7
-0.028, -7.019e-7, -4.004e-7, 3.015e-7
-0.029, -7.080e-7, -4.035e-7, 3.045e-7
-0.030, -7.049e-7, -4.004e-7, 3.045e-7
-0.031, -7.019e-7, -4.004e-7, 3.015e-7
-0.032, -7.019e-7, -4.004e-7, 3.015e-7
-0.033, -6.988e-7, -3.974e-7, 3.015e-7
-0.034, -6.988e-7, -3.974e-7, 3.015e-7
-0.035, -7.019e-7, -4.004e-7, 3.015e-7
-0.036, -6.958e-7, -3.943e-7, 3.015e-7
-0.037, -6.958e-7, -3.943e-7, 3.015e-7
-0.038, -6.988e-7, -3.974e-7, 3.015e-7
-0.039, -6.958e-7, -3.943e-7, 3.015e-7
-0.040, -6.927e-7, -3.943e-7, 2.984e-7
-0.041, -6.958e-7, -3.943e-7, 3.015e-7
-0.042, -6.897e-7, -3.912e-7, 2.984e-7
-0.043, -6.897e-7, -3.912e-7, 2.984e-7
-0.044, -6.897e-7, -3.912e-7, 2.984e-7
-0.045, -6.866e-7, -3.882e-7, 2.984e-7
-0.046, -6.897e-7, -3.912e-7, 2.984e-7
-0.047, -6.866e-7, -3.882e-7, 2.984e-7
-0.048, -6.866e-7, -3.882e-7, 2.984e-7
-0.049, -6.866e-7, -3.882e-7, 2.984e-7
-0.050, -6.866e-7, -3.882e-7, 2.984e-7
-0.051, -6.805e-7, -3.851e-7, 2.954e-7
-0.052, -6.836e-7, -3.882e-7, 2.954e-7
-0.053, -6.805e-7, -3.851e-7, 2.954e-7
-0.054, -6.805e-7, -3.851e-7, 2.954e-7
-0.055, -6.805e-7, -3.851e-7, 2.954e-7
-0.056, -6.775e-7, -3.821e-7, 2.954e-7
-0.057, -6.744e-7, -3.821e-7, 2.923e-7
-0.058, -6.744e-7, -3.821e-7, 2.923e-7
-0.059, -6.775e-7, -3.821e-7, 2.954e-7
-0.060, -6.713e-7, -3.790e-7, 2.923e-7
-0.061, -6.713e-7, -3.790e-7, 2.923e-7
-0.062, -6.713e-7, -3.790e-7, 2.923e-7
-0.063, -6.713e-7, -3.790e-7, 2.923e-7
-0.064, -6.713e-7, -3.790e-7, 2.923e-7
-0.065, -6.713e-7, -3.790e-7, 2.923e-7
-0.066, -6.683e-7, -3.760e-7, 2.923e-7
-0.067, -6.683e-7, -3.760e-7, 2.923e-7
-0.068, -6.683e-7, -3.760e-7, 2.923e-7
-0.069, -6.683e-7, -3.760e-7, 2.923e-7
-0.070, -6.652e-7, -3.760e-7, 2.893e-7
-0.071, -6.622e-7, -3.729e-7, 2.893e-7
-0.072, -6.652e-7, -3.729e-7, 2.923e-7
-0.073, -6.622e-7, -3.729e-7, 2.893e-7
-0.074, -6.591e-7, -3.699e-7, 2.893e-7
-0.075, -6.622e-7, -3.729e-7, 2.893e-7
-0.076, -6.591e-7, -3.699e-7, 2.893e-7
-0.077, -6.561e-7, -3.699e-7, 2.862e-7
-0.078, -6.591e-7, -3.699e-7, 2.893e-7
-0.079, -6.530e-7, -3.668e-7, 2.862e-7
-0.080, -6.530e-7, -3.668e-7, 2.862e-7
-0.081, -6.530e-7, -3.668e-7, 2.862e-7
-0.082, -6.500e-7, -3.668e-7, 2.832e-7
-0.083, -6.530e-7, -3.668e-7, 2.862e-7
-0.084, -6.500e-7, -3.638e-7, 2.862e-7
-0.085, -6.500e-7, -3.638e-7, 2.862e-7
-0.086, -6.469e-7, -3.638e-7, 2.832e-7
-0.087, -6.530e-7, -3.638e-7, 2.893e-7
-0.088, -6.500e-7, -3.638e-7, 2.862e-7
-0.089, -6.408e-7, -3.607e-7, 2.801e-7
-0.090, -6.469e-7, -3.607e-7, 2.862e-7
-0.091, -6.439e-7, -3.607e-7, 2.832e-7
-0.092, -6.439e-7, -3.607e-7, 2.832e-7
-0.093, -6.439e-7, -3.577e-7, 2.862e-7
-0.094, -6.408e-7, -3.577e-7, 2.832e-7
-0.095, -6.408e-7, -3.577e-7, 2.832e-7
-0.096, -6.408e-7, -3.577e-7, 2.832e-7
-0.097, -6.408e-7, -3.577e-7, 2.832e-7
-0.098, -6.378e-7, -3.577e-7, 2.801e-7
-0.099, -6.378e-7, -3.546e-7, 2.832e-7
-0.100, -6.347e-7, -3.546e-7, 2.801e-7
-0.101, -6.378e-7, -3.577e-7, 2.801e-7
-0.102, -6.347e-7, -3.546e-7, 2.801e-7
-0.103, -6.347e-7, -3.546e-7, 2.801e-7
-0.104, -6.347e-7, -3.546e-7, 2.801e-7
-0.105, -6.317e-7, -3.516e-7, 2.801e-7
-0.106, -6.347e-7, -3.546e-7, 2.801e-7
-0.107, -6.317e-7, -3.516e-7, 2.801e-7
-0.108, -6.317e-7, -3.516e-7, 2.801e-7
-0.109, -6.286e-7, -3.516e-7, 2.770e-7
-0.110, -6.286e-7, -3.516e-7, 2.770e-7
-0.111, -6.286e-7, -3.516e-7, 2.770e-7
-0.112, -6.256e-7, -3.485e-7, 2.770e-7
-0.113, -6.256e-7, -3.485e-7, 2.770e-7
-0.114, -6.256e-7, -3.485e-7, 2.770e-7
-0.115, -6.256e-7, -3.485e-7, 2.770e-7
-0.116, -6.256e-7, -3.485e-7, 2.770e-7
-0.117, -6.195e-7, -3.455e-7, 2.740e-7
-0.118, -6.225e-7, -3.455e-7, 2.770e-7
-0.119, -6.225e-7, -3.455e-7, 2.770e-7
-0.120, -6.195e-7, -3.455e-7, 2.740e-7
-0.121, -6.225e-7, -3.455e-7, 2.770e-7
-0.122, -6.195e-7, -3.455e-7, 2.740e-7
-0.123, -6.225e-7, -3.455e-7, 2.770e-7
-0.124, -6.195e-7, -3.455e-7, 2.740e-7
-0.125, -6.164e-7, -3.424e-7, 2.740e-7
-0.126, -6.134e-7, -3.424e-7, 2.709e-7
-0.127, -6.164e-7, -3.424e-7, 2.740e-7
-0.128, -6.164e-7, -3.424e-7, 2.740e-7
-0.129, -6.134e-7, -3.424e-7, 2.709e-7
-0.130, -6.134e-7, -3.394e-7, 2.740e-7
-0.131, -6.134e-7, -3.424e-7, 2.709e-7
-0.132, -6.134e-7, -3.424e-7, 2.709e-7
-0.133, -6.103e-7, -3.394e-7, 2.709e-7
-0.134, -6.103e-7, -3.394e-7, 2.709e-7
-0.135, -6.103e-7, -3.394e-7, 2.709e-7
-0.136, -6.103e-7, -3.394e-7, 2.709e-7
-0.137, -6.042e-7, -3.363e-7, 2.679e-7
-0.138, -6.103e-7, -3.394e-7, 2.709e-7
-0.139, -6.073e-7, -3.363e-7, 2.709e-7
-0.140, -6.073e-7, -3.394e-7, 2.679e-7
-0.141, -6.073e-7, -3.363e-7, 2.709e-7
-0.142, -6.042e-7, -3.333e-7, 2.709e-7
-0.143, -6.012e-7, -3.333e-7, 2.679e-7
-0.144, -6.042e-7, -3.363e-7, 2.679e-7
-0.145, -6.042e-7, -3.333e-7, 2.709e-7
-0.146, -6.012e-7, -3.333e-7, 2.679e-7
-0.147, -6.012e-7, -3.333e-7, 2.679e-7
-0.148, -5.981e-7, -3.302e-7, 2.679e-7
-0.149, -5.981e-7, -3.333e-7, 2.648e-7
-0.150, -6.012e-7, -3.333e-7, 2.679e-7
-0.151, -5.981e-7, -3.302e-7, 2.679e-7
-0.152, -6.012e-7, -3.333e-7, 2.679e-7
-0.153, -5.951e-7, -3.302e-7, 2.648e-7
-0.154, -5.951e-7, -3.302e-7, 2.648e-7
-0.155, -5.951e-7, -3.333e-7, 2.618e-7
-0.156, -5.951e-7, -3.302e-7, 2.648e-7
-0.157, -5.951e-7, -3.302e-7, 2.648e-7
-0.158, -5.951e-7, -3.302e-7, 2.648e-7
-0.159, -5.951e-7, -3.302e-7, 2.648e-7
-0.160, -5.890e-7, -3.272e-7, 2.618e-7
-0.161, -5.890e-7, -3.272e-7, 2.618e-7
-0.162, -5.890e-7, -3.272e-7, 2.618e-7
-0.163, -5.890e-7, -3.272e-7, 2.618e-7
-0.164, -5.890e-7, -3.272e-7, 2.618e-7
-0.165, -5.890e-7, -3.272e-7, 2.618e-7
-0.166, -5.859e-7, -3.241e-7, 2.618e-7
-0.167, -5.890e-7, -3.272e-7, 2.618e-7
-0.168, -5.859e-7, -3.241e-7, 2.618e-7
-0.169, -5.829e-7, -3.241e-7, 2.587e-7
-0.170, -5.829e-7, -3.241e-7, 2.587e-7
-0.171, -5.829e-7, -3.241e-7, 2.587e-7
-0.172, -5.829e-7, -3.241e-7, 2.587e-7
-0.173, -5.829e-7, -3.241e-7, 2.587e-7
-0.174, -5.798e-7, -3.211e-7, 2.587e-7
-0.175, -5.798e-7, -3.211e-7, 2.587e-7
-0.176, -5.798e-7, -3.211e-7, 2.587e-7
-0.177, -5.798e-7, -3.211e-7, 2.587e-7
-0.178, -5.767e-7, -3.180e-7, 2.587e-7
-0.179, -5.767e-7, -3.211e-7, 2.557e-7
-0.180, -5.767e-7, -3.211e-7, 2.557e-7
-0.181, -5.737e-7, -3.180e-7, 2.557e-7
-0.182, -5.767e-7, -3.180e-7, 2.587e-7
-0.183, -5.737e-7, -3.180e-7, 2.557e-7
-0.184, -5.737e-7, -3.180e-7, 2.557e-7
-0.185, -5.706e-7, -3.150e-7, 2.557e-7
-0.186, -5.706e-7, -3.180e-7, 2.526e-7
-0.187, -5.737e-7, -3.180e-7, 2.557e-7
-0.188, -5.676e-7, -3.150e-7, 2.526e-7
-0.189, -5.706e-7, -3.180e-7, 2.526e-7
-0.190, -5.676e-7, -3.150e-7, 2.526e-7
-0.191, -5.676e-7, -3.150e-7, 2.526e-7
-0.192, -5.706e-7, -3.180e-7, 2.526e-7
-0.193, -5.676e-7, -3.150e-7, 2.526e-7
-0.194, -5.676e-7, -3.150e-7, 2.526e-7
-0.195, -5.706e-7, -3.180e-7, 2.526e-7
-0.196, -5.706e-7, -3.150e-7, 2.557e-7
-0.197, -5.645e-7, -3.119e-7, 2.526e-7
-0.198, -5.676e-7, -3.150e-7, 2.526e-7
-0.199, -5.645e-7, -3.119e-7, 2.526e-7
-0.200, -5.615e-7, -3.089e-7, 2.526e-7
-0.201, -5.645e-7, -3.150e-7, 2.496e-7
-0.202, -5.615e-7, -3.119e-7, 2.496e-7
-0.203, -5.615e-7, -3.119e-7, 2.496e-7
-0.204, -5.615e-7, -3.119e-7, 2.496e-7
-0.205, -5.615e-7, -3.119e-7, 2.496e-7
-0.206, -5.615e-7, -3.119e-7, 2.496e-7
-0.207, -5.615e-7, -3.119e-7, 2.496e-7
-0.208, -5.615e-7, -3.089e-7, 2.526e-7
-0.209, -5.554e-7, -3.089e-7, 2.465e-7
-0.210, -5.615e-7, -3.119e-7, 2.496e-7
-0.211, -5.584e-7, -3.089e-7, 2.496e-7
-0.212, -5.554e-7, -3.089e-7, 2.465e-7
-0.213, -5.584e-7, -3.089e-7, 2.496e-7
-0.214, -5.584e-7, -3.089e-7, 2.496e-7
-0.215, -5.554e-7, -3.089e-7, 2.465e-7
-0.216, -5.554e-7, -3.089e-7, 2.465e-7
-0.217, -5.584e-7, -3.089e-7, 2.496e-7
-0.218, -5.554e-7, -3.089e-7, 2.465e-7
-0.219, -5.554e-7, -3.089e-7, 2.465e-7
-0.220, -5.523e-7, -3.058e-7, 2.465e-7
-0.221, -5.554e-7, -3.089e-7, 2.465e-7
-0.222, -5.554e-7, -3.089e-7, 2.465e-7
-0.223, -5.523e-7, -3.058e-7, 2.465e-7
-0.224, -5.554e-7, -3.089e-7, 2.465e-7
-0.225, -5.523e-7, -3.058e-7, 2.465e-7
-0.226, -5.523e-7, -3.058e-7, 2.465e-7
-0.227, -5.493e-7, -3.058e-7, 2.435e-7
-0.228, -5.523e-7, -3.058e-7, 2.465e-7
-0.229, -5.493e-7, -3.058e-7, 2.435e-7
-0.230, -5.493e-7, -3.058e-7, 2.435e-7
-0.231, -5.523e-7, -3.058e-7, 2.465e-7
-0.232, -5.493e-7, -3.058e-7, 2.435e-7
-0.233, -5.493e-7, -3.058e-7, 2.435e-7
-0.234, -5.523e-7, -3.058e-7, 2.465e-7
-0.235, -5.493e-7, -3.058e-7, 2.435e-7
-0.236, -5.493e-7, -3.058e-7, 2.435e-7
-0.237, -5.523e-7, -3.058e-7, 2.465e-7
-0.238, -5.493e-7, -3.058e-7, 2.435e-7
-0.239, -5.493e-7, -3.058e-7, 2.435e-7
-0.240, -5.462e-7, -3.028e-7, 2.435e-7
-0.241, -5.493e-7, -3.058e-7, 2.435e-7
-0.242, -5.493e-7, -3.058e-7, 2.435e-7
-0.243, -5.462e-7, -3.058e-7, 2.404e-7
-0.244, -5.493e-7, -3.058e-7, 2.435e-7
-0.245, -5.493e-7, -3.058e-7, 2.435e-7
-0.246, -5.462e-7, -3.058e-7, 2.404e-7
-0.247, -5.462e-7, -3.058e-7, 2.404e-7
-0.248, -5.432e-7, -3.028e-7, 2.404e-7
-0.249, -5.432e-7, -3.028e-7, 2.404e-7
-0.250, -5.493e-7, -3.058e-7, 2.435e-7
-0.251, -5.432e-7, -3.028e-7, 2.404e-7
-0.252, -5.462e-7, -3.058e-7, 2.404e-7
-0.253, -5.493e-7, -3.058e-7, 2.435e-7
-0.254, -5.401e-7, -2.997e-7, 2.404e-7
-0.255, -5.401e-7, -3.028e-7, 2.374e-7
-0.256, -5.462e-7, -3.058e-7, 2.404e-7
-0.257, -5.432e-7, -3.028e-7, 2.404e-7
-0.258, -5.432e-7, -3.028e-7, 2.404e-7
-0.259, -5.432e-7, -3.028e-7, 2.404e-7
-0.260, -5.401e-7, -2.997e-7, 2.404e-7
-0.261, -5.401e-7, -3.028e-7, 2.374e-7
-0.262, -5.432e-7, -3.028e-7, 2.404e-7
-0.263, -5.432e-7, -3.028e-7, 2.404e-7
-0.264, -5.401e-7, -3.028e-7, 2.374e-7
-0.265, -5.432e-7, -3.028e-7, 2.404e-7
-0.266, -5.432e-7, -3.028e-7, 2.404e-7
-0.267, -5.401e-7, -3.028e-7, 2.374e-7
-0.268, -5.432e-7, -3.028e-7, 2.404e-7
-0.269, -5.432e-7, -3.028e-7, 2.404e-7
-0.270, -5.401e-7, -3.028e-7, 2.374e-7
-0.271, -5.401e-7, -3.028e-7, 2.374e-7
-0.272, -5.371e-7, -2.997e-7, 2.374e-7
-0.273, -5.401e-7, -3.028e-7, 2.374e-7
-0.274, -5.401e-7, -3.028e-7, 2.374e-7
-0.275, -5.401e-7, -3.028e-7, 2.374e-7
-0.276, -5.401e-7, -3.028e-7, 2.374e-7
-0.277, -5.401e-7, -3.028e-7, 2.374e-7
-0.278, -5.371e-7, -2.997e-7, 2.374e-7
-0.279, -5.401e-7, -3.028e-7, 2.374e-7
-0.280, -5.401e-7, -3.028e-7, 2.374e-7
-0.281, -5.340e-7, -2.997e-7, 2.343e-7
-0.282, -5.401e-7, -3.028e-7, 2.374e-7
-0.283, -5.371e-7, -3.028e-7, 2.343e-7
-0.284, -5.340e-7, -2.997e-7, 2.343e-7
-0.285, -5.371e-7, -3.028e-7, 2.343e-7
-0.286, -5.340e-7, -2.997e-7, 2.343e-7
-0.287, -5.340e-7, -2.997e-7, 2.343e-7
-0.288, -5.371e-7, -3.028e-7, 2.343e-7
-0.289, -5.340e-7, -2.997e-7, 2.343e-7
-0.290, -5.340e-7, -2.997e-7, 2.343e-7
-0.291, -5.340e-7, -2.997e-7, 2.343e-7
-0.292, -5.340e-7, -2.997e-7, 2.343e-7
-0.293, -5.340e-7, -2.997e-7, 2.343e-7
-0.294, -5.310e-7, -2.997e-7, 2.313e-7
-0.295, -5.371e-7, -3.028e-7, 2.343e-7
-0.296, -5.371e-7, -3.028e-7, 2.343e-7
-0.297, -5.310e-7, -2.997e-7, 2.313e-7
-0.298, -5.340e-7, -3.028e-7, 2.313e-7
-0.299, -5.310e-7, -2.997e-7, 2.313e-7
-0.300, -5.310e-7, -2.997e-7, 2.313e-7
-0.301, -5.340e-7, -3.028e-7, 2.313e-7
-0.302, -5.310e-7, -2.997e-7, 2.313e-7
-0.303, -5.310e-7, -2.997e-7, 2.313e-7
-0.304, -5.340e-7, -3.028e-7, 2.313e-7
-0.305, -5.310e-7, -2.997e-7, 2.313e-7
-0.306, -5.310e-7, -2.997e-7, 2.313e-7
-0.307, -5.310e-7, -3.028e-7, 2.282e-7
-0.308, -5.340e-7, -2.997e-7, 2.343e-7
-0.309, -5.310e-7, -2.997e-7, 2.313e-7
-0.310, -5.310e-7, -2.997e-7, 2.313e-7
-0.311, -5.310e-7, -2.997e-7, 2.313e-7
-0.312, -5.310e-7, -3.028e-7, 2.282e-7
-0.313, -5.310e-7, -3.028e-7, 2.282e-7
-0.314, -5.310e-7, -2.997e-7, 2.313e-7
-0.315, -5.310e-7, -3.028e-7, 2.282e-7
-0.316, -5.310e-7, -3.028e-7, 2.282e-7
-0.317, -5.310e-7, -2.997e-7, 2.313e-7
-0.318, -5.310e-7, -2.997e-7, 2.313e-7
-0.319, -5.310e-7, -3.028e-7, 2.282e-7
-0.320, -5.340e-7, -3.028e-7, 2.313e-7
-0.321, -5.310e-7, -3.028e-7, 2.282e-7
-0.322, -5.310e-7, -3.028e-7, 2.282e-7
-0.323, -5.340e-7, -3.028e-7, 2.313e-7
-0.324, -5.310e-7, -3.028e-7, 2.282e-7
-0.325, -5.310e-7, -3.028e-7, 2.282e-7
-0.326, -5.340e-7, -3.028e-7, 2.313e-7
-0.327, -5.310e-7, -3.028e-7, 2.282e-7
-0.328, -5.340e-7, -3.058e-7, 2.282e-7
-0.329, -5.340e-7, -3.028e-7, 2.313e-7
-0.330, -5.310e-7, -3.028e-7, 2.282e-7
-0.331, -5.340e-7, -3.058e-7, 2.282e-7
-0.332, -5.310e-7, -3.028e-7, 2.282e-7
-0.333, -5.310e-7, -3.058e-7, 2.252e-7
-0.334, -5.340e-7, -3.058e-7, 2.282e-7
-0.335, -5.340e-7, -3.058e-7, 2.282e-7
-0.336, -5.310e-7, -3.058e-7, 2.252e-7
-0.337, -5.310e-7, -3.058e-7, 2.252e-7
-0.338, -5.340e-7, -3.058e-7, 2.282e-7
-0.339, -5.340e-7, -3.058e-7, 2.282e-7
-0.340, -5.340e-7, -3.058e-7, 2.282e-7
-0.341, -5.310e-7, -3.058e-7, 2.252e-7
-0.342, -5.371e-7, -3.089e-7, 2.282e-7
-0.343, -5.371e-7, -3.089e-7, 2.282e-7
-0.344, -5.371e-7, -3.089e-7, 2.282e-7
-0.345, -5.340e-7, -3.089e-7, 2.252e-7
-0.346, -5.371e-7, -3.089e-7, 2.282e-7
-0.347, -5.371e-7, -3.089e-7, 2.282e-7
-0.348, -5.371e-7, -3.089e-7, 2.282e-7
-0.349, -5.340e-7, -3.089e-7, 2.252e-7
-0.350, -5.340e-7, -3.089e-7, 2.252e-7
-0.351, -5.401e-7, -3.119e-7, 2.282e-7
-0.352, -5.371e-7, -3.119e-7, 2.252e-7
-0.353, -5.401e-7, -3.119e-7, 2.282e-7
-0.354, -5.401e-7, -3.119e-7, 2.282e-7
-0.355, -5.371e-7, -3.119e-7, 2.252e-7
-0.356, -5.401e-7, -3.119e-7, 2.282e-7
-0.357, -5.401e-7, -3.119e-7, 2.282e-7
-0.358, -5.371e-7, -3.119e-7, 2.252e-7
-0.359, -5.432e-7, -3.150e-7, 2.282e-7
-0.360, -5.401e-7, -3.119e-7, 2.282e-7
-0.361, -5.371e-7, -3.119e-7, 2.252e-7
-0.362, -5.432e-7, -3.150e-7, 2.282e-7
-0.363, -5.432e-7, -3.150e-7, 2.282e-7
-0.364, -5.401e-7, -3.150e-7, 2.252e-7
-0.365, -5.432e-7, -3.150e-7, 2.282e-7
-0.366, -5.432e-7, -3.150e-7, 2.282e-7
-0.367, -5.401e-7, -3.150e-7, 2.252e-7
-0.368, -5.432e-7, -3.180e-7, 2.252e-7
-0.369, -5.432e-7, -3.150e-7, 2.282e-7
-0.370, -5.432e-7, -3.180e-7, 2.252e-7
-0.371, -5.462e-7, -3.180e-7, 2.282e-7
-0.372, -5.462e-7, -3.180e-7, 2.282e-7
-0.373, -5.462e-7, -3.211e-7, 2.252e-7
-0.374, -5.462e-7, -3.211e-7, 2.252e-7
-0.375, -5.462e-7, -3.180e-7, 2.282e-7
-0.376, -5.462e-7, -3.211e-7, 2.252e-7
-0.377, -5.462e-7, -3.211e-7, 2.252e-7
-0.378, -5.462e-7, -3.211e-7, 2.252e-7
-0.379, -5.462e-7, -3.211e-7, 2.252e-7
-0.380, -5.493e-7, -3.241e-7, 2.252e-7
-0.381, -5.462e-7, -3.211e-7, 2.252e-7
-0.382, -5.493e-7, -3.241e-7, 2.252e-7
-0.383, -5.523e-7, -3.241e-7, 2.282e-7
-0.384, -5.462e-7, -3.211e-7, 2.252e-7
-0.385, -5.493e-7, -3.241e-7, 2.252e-7
-0.386, -5.493e-7, -3.241e-7, 2.252e-7
-0.387, -5.493e-7, -3.241e-7, 2.252e-7
-0.388, -5.493e-7, -3.241e-7, 2.252e-7
-0.389, -5.523e-7, -3.241e-7, 2.282e-7
-0.390, -5.493e-7, -3.241e-7, 2.252e-7
-0.391, -5.523e-7, -3.272e-7, 2.252e-7
-0.392, -5.523e-7, -3.272e-7, 2.252e-7
-0.393, -5.523e-7, -3.272e-7, 2.252e-7
-0.394, -5.523e-7, -3.272e-7, 2.252e-7
-0.395, -5.554e-7, -3.302e-7, 2.252e-7
-0.396, -5.523e-7, -3.272e-7, 2.252e-7
-0.397, -5.523e-7, -3.272e-7, 2.252e-7
-0.398, -5.554e-7, -3.302e-7, 2.252e-7
-0.399, -5.554e-7, -3.302e-7, 2.252e-7
-0.400, -5.554e-7, -3.302e-7, 2.252e-7
