Feb. 28, 2018   11:21:22
Square Wave Voltammetry
File: c:\users\electrochemist\desktop\2018\28022018_unbuffered_9,2\8_e6_9,2_0118_ph4,47_2.txt
Data Source:  Experiment
Instrument Model:  CHI1040A
Header: 
Note: 

Init E (V) = 0.5
Final E (V) = -0.05
Incr E (V) = 0.001
Amplitude (V) = 0.1
Frequency (Hz) = 150
Quiet Time (sec) = 0
Sensitivity (A/V) = 1e-6

Difference:

Forward:

Reverse:
Ep = 0.210V
ip = 9.414e-8A
Ah = 1.031e-8VA

Potential/V, Diff(i/A), For(i/A), Rev(i/A)

0.499, -8.111e-7, -2.021e-7, 6.090e-7
0.498, -1.034e-6, -5.020e-7, 5.315e-7
0.497, -1.031e-6, -5.255e-7, 5.050e-7
0.496, -1.024e-6, -5.289e-7, 4.952e-7
0.495, -1.016e-6, -5.326e-7, 4.839e-7
0.494, -1.017e-6, -5.399e-7, 4.769e-7
0.493, -1.014e-6, -5.402e-7, 4.739e-7
0.492, -1.012e-6, -5.417e-7, 4.699e-7
0.491, -1.011e-6, -5.478e-7, 4.635e-7
0.490, -1.012e-6, -5.466e-7, 4.656e-7
0.489, -1.008e-6, -5.490e-7, 4.589e-7
0.488, -1.010e-6, -5.545e-7, 4.559e-7
0.487, -1.012e-6, -5.533e-7, 4.586e-7
0.486, -1.010e-6, -5.539e-7, 4.559e-7
0.485, -1.009e-6, -5.570e-7, 4.516e-7
0.484, -1.013e-6, -5.591e-7, 4.537e-7
0.483, -1.013e-6, -5.600e-7, 4.525e-7
0.482, -1.013e-6, -5.637e-7, 4.488e-7
0.481, -1.016e-6, -5.652e-7, 4.510e-7
0.480, -1.013e-6, -5.646e-7, 4.482e-7
0.479, -1.016e-6, -5.679e-7, 4.485e-7
0.478, -1.021e-6, -5.710e-7, 4.498e-7
0.477, -1.017e-6, -5.695e-7, 4.476e-7
0.476, -1.020e-6, -5.741e-7, 4.461e-7
0.475, -1.023e-6, -5.737e-7, 4.488e-7
0.474, -1.020e-6, -5.725e-7, 4.473e-7
0.473, -1.024e-6, -5.780e-7, 4.461e-7
0.472, -1.026e-6, -5.783e-7, 4.479e-7
0.471, -1.024e-6, -5.765e-7, 4.470e-7
0.470, -1.029e-6, -5.829e-7, 4.461e-7
0.469, -1.030e-6, -5.838e-7, 4.464e-7
0.468, -1.033e-6, -5.847e-7, 4.482e-7
0.467, -1.033e-6, -5.872e-7, 4.455e-7
0.466, -1.035e-6, -5.878e-7, 4.473e-7
0.465, -1.037e-6, -5.890e-7, 4.476e-7
0.464, -1.038e-6, -5.927e-7, 4.455e-7
0.463, -1.041e-6, -5.927e-7, 4.482e-7
0.462, -1.040e-6, -5.927e-7, 4.476e-7
0.461, -1.044e-6, -5.979e-7, 4.461e-7
0.460, -1.047e-6, -5.994e-7, 4.476e-7
0.459, -1.047e-6, -5.991e-7, 4.482e-7
0.458, -1.051e-6, -6.030e-7, 4.482e-7
0.457, -1.053e-6, -6.030e-7, 4.501e-7
0.456, -1.051e-6, -6.027e-7, 4.479e-7
0.455, -1.056e-6, -6.076e-7, 4.479e-7
0.454, -1.056e-6, -6.061e-7, 4.501e-7
0.453, -1.060e-6, -6.091e-7, 4.507e-7
0.452, -1.064e-6, -6.143e-7, 4.498e-7
0.451, -1.063e-6, -6.122e-7, 4.510e-7
0.450, -1.063e-6, -6.128e-7, 4.504e-7
0.449, -1.069e-6, -6.195e-7, 4.494e-7
0.448, -1.069e-6, -6.177e-7, 4.516e-7
0.447, -1.074e-6, -6.210e-7, 4.534e-7
0.446, -1.076e-6, -6.244e-7, 4.519e-7
0.445, -1.078e-6, -6.238e-7, 4.546e-7
0.444, -1.079e-6, -6.238e-7, 4.549e-7
0.443, -1.083e-6, -6.293e-7, 4.534e-7
0.442, -1.083e-6, -6.287e-7, 4.546e-7
0.441, -1.085e-6, -6.293e-7, 4.556e-7
0.440, -1.088e-6, -6.339e-7, 4.540e-7
0.439, -1.093e-6, -6.348e-7, 4.580e-7
0.438, -1.092e-6, -6.357e-7, 4.562e-7
0.437, -1.098e-6, -6.406e-7, 4.574e-7
0.436, -1.099e-6, -6.397e-7, 4.589e-7
0.435, -1.097e-6, -6.394e-7, 4.580e-7
0.434, -1.104e-6, -6.464e-7, 4.577e-7
0.433, -1.108e-6, -6.464e-7, 4.617e-7
0.432, -1.107e-6, -6.470e-7, 4.601e-7
0.431, -1.112e-6, -6.522e-7, 4.598e-7
0.430, -1.117e-6, -6.537e-7, 4.635e-7
0.429, -1.115e-6, -6.540e-7, 4.610e-7
0.428, -1.118e-6, -6.558e-7, 4.620e-7
0.427, -1.124e-6, -6.586e-7, 4.650e-7
0.426, -1.124e-6, -6.604e-7, 4.638e-7
0.425, -1.127e-6, -6.638e-7, 4.632e-7
0.424, -1.131e-6, -6.644e-7, 4.662e-7
0.423, -1.133e-6, -6.674e-7, 4.659e-7
0.422, -1.133e-6, -6.699e-7, 4.632e-7
0.421, -1.138e-6, -6.693e-7, 4.690e-7
0.420, -1.138e-6, -6.723e-7, 4.659e-7
0.419, -1.143e-6, -6.754e-7, 4.675e-7
0.418, -1.148e-6, -6.778e-7, 4.705e-7
0.417, -1.151e-6, -6.793e-7, 4.717e-7
0.416, -1.153e-6, -6.833e-7, 4.693e-7
0.415, -1.159e-6, -6.845e-7, 4.742e-7
0.414, -1.157e-6, -6.860e-7, 4.705e-7
0.413, -1.162e-6, -6.888e-7, 4.732e-7
0.412, -1.167e-6, -6.906e-7, 4.766e-7
0.411, -1.165e-6, -6.900e-7, 4.754e-7
0.410, -1.169e-6, -6.949e-7, 4.742e-7
0.409, -1.175e-6, -6.976e-7, 4.778e-7
0.408, -1.176e-6, -6.989e-7, 4.772e-7
0.407, -1.179e-6, -7.022e-7, 4.772e-7
0.406, -1.183e-6, -7.034e-7, 4.797e-7
0.405, -1.184e-6, -7.044e-7, 4.797e-7
0.404, -1.190e-6, -7.102e-7, 4.797e-7
0.403, -1.191e-6, -7.102e-7, 4.812e-7
0.402, -1.192e-6, -7.102e-7, 4.821e-7
0.401, -1.197e-6, -7.153e-7, 4.818e-7
0.400, -1.201e-6, -7.163e-7, 4.845e-7
0.399, -1.206e-6, -7.196e-7, 4.861e-7
0.398, -1.208e-6, -7.227e-7, 4.855e-7
0.397, -1.209e-6, -7.221e-7, 4.870e-7
0.396, -1.212e-6, -7.239e-7, 4.882e-7
0.395, -1.218e-6, -7.312e-7, 4.873e-7
0.394, -1.220e-6, -7.291e-7, 4.906e-7
0.393, -1.221e-6, -7.303e-7, 4.909e-7
0.392, -1.227e-6, -7.361e-7, 4.913e-7
0.391, -1.230e-6, -7.361e-7, 4.937e-7
0.390, -1.232e-6, -7.373e-7, 4.946e-7
0.389, -1.235e-6, -7.419e-7, 4.928e-7
0.388, -1.239e-6, -7.425e-7, 4.964e-7
0.387, -1.243e-6, -7.474e-7, 4.955e-7
0.386, -1.247e-6, -7.492e-7, 4.974e-7
0.385, -1.251e-6, -7.520e-7, 4.992e-7
0.384, -1.250e-6, -7.507e-7, 4.995e-7
0.383, -1.256e-6, -7.565e-7, 4.995e-7
0.382, -1.260e-6, -7.571e-7, 5.025e-7
0.381, -1.261e-6, -7.593e-7, 5.019e-7
0.380, -1.266e-6, -7.629e-7, 5.032e-7
0.379, -1.272e-6, -7.651e-7, 5.065e-7
0.378, -1.271e-6, -7.657e-7, 5.053e-7
0.377, -1.276e-6, -7.709e-7, 5.047e-7
0.376, -1.280e-6, -7.721e-7, 5.074e-7
0.375, -1.283e-6, -7.733e-7, 5.096e-7
0.374, -1.284e-6, -7.767e-7, 5.074e-7
0.373, -1.292e-6, -7.794e-7, 5.126e-7
0.372, -1.292e-6, -7.797e-7, 5.120e-7
0.371, -1.295e-6, -7.831e-7, 5.120e-7
0.370, -1.301e-6, -7.846e-7, 5.160e-7
0.369, -1.301e-6, -7.867e-7, 5.144e-7
0.368, -1.305e-6, -7.904e-7, 5.141e-7
0.367, -1.312e-6, -7.941e-7, 5.184e-7
0.366, -1.311e-6, -7.935e-7, 5.175e-7
0.365, -1.317e-6, -7.977e-7, 5.190e-7
0.364, -1.319e-6, -7.974e-7, 5.212e-7
0.363, -1.323e-6, -8.008e-7, 5.218e-7
0.362, -1.326e-6, -8.048e-7, 5.212e-7
0.361, -1.332e-6, -8.066e-7, 5.254e-7
0.360, -1.334e-6, -8.075e-7, 5.263e-7
0.359, -1.336e-6, -8.115e-7, 5.248e-7
0.358, -1.339e-6, -8.124e-7, 5.267e-7
0.357, -1.347e-6, -8.163e-7, 5.303e-7
0.356, -1.347e-6, -8.182e-7, 5.291e-7
0.355, -1.352e-6, -8.200e-7, 5.318e-7
0.354, -1.352e-6, -8.200e-7, 5.324e-7
0.353, -1.360e-6, -8.264e-7, 5.337e-7
0.352, -1.363e-6, -8.264e-7, 5.361e-7
0.351, -1.364e-6, -8.276e-7, 5.364e-7
0.350, -1.369e-6, -8.322e-7, 5.370e-7
0.349, -1.372e-6, -8.325e-7, 5.398e-7
0.348, -1.374e-6, -8.347e-7, 5.395e-7
0.347, -1.377e-6, -8.380e-7, 5.392e-7
0.346, -1.383e-6, -8.389e-7, 5.440e-7
0.345, -1.383e-6, -8.405e-7, 5.428e-7
0.344, -1.388e-6, -8.453e-7, 5.431e-7
0.343, -1.392e-6, -8.444e-7, 5.471e-7
0.342, -1.395e-6, -8.472e-7, 5.480e-7
0.341, -1.397e-6, -8.511e-7, 5.459e-7
0.340, -1.404e-6, -8.527e-7, 5.514e-7
0.339, -1.406e-6, -8.548e-7, 5.514e-7
0.338, -1.410e-6, -8.569e-7, 5.535e-7
0.337, -1.413e-6, -8.579e-7, 5.547e-7
0.336, -1.416e-6, -8.603e-7, 5.553e-7
0.335, -1.418e-6, -8.627e-7, 5.550e-7
0.334, -1.421e-6, -8.621e-7, 5.590e-7
0.333, -1.423e-6, -8.655e-7, 5.578e-7
0.332, -1.428e-6, -8.676e-7, 5.599e-7
0.331, -1.432e-6, -8.691e-7, 5.630e-7
0.330, -1.434e-6, -8.719e-7, 5.624e-7
0.329, -1.435e-6, -8.725e-7, 5.624e-7
0.328, -1.439e-6, -8.737e-7, 5.657e-7
0.327, -1.442e-6, -8.743e-7, 5.672e-7
0.326, -1.447e-6, -8.783e-7, 5.688e-7
0.325, -1.450e-6, -8.795e-7, 5.703e-7
0.324, -1.450e-6, -8.804e-7, 5.700e-7
0.323, -1.457e-6, -8.847e-7, 5.721e-7
0.322, -1.456e-6, -8.820e-7, 5.740e-7
0.321, -1.461e-6, -8.868e-7, 5.740e-7
0.320, -1.464e-6, -8.890e-7, 5.752e-7
0.319, -1.469e-6, -8.902e-7, 5.788e-7
0.318, -1.471e-6, -8.908e-7, 5.801e-7
0.317, -1.475e-6, -8.942e-7, 5.810e-7
0.316, -1.476e-6, -8.951e-7, 5.807e-7
0.315, -1.479e-6, -8.960e-7, 5.828e-7
0.314, -1.479e-6, -8.960e-7, 5.831e-7
0.313, -1.485e-6, -8.981e-7, 5.871e-7
0.312, -1.488e-6, -9.018e-7, 5.862e-7
0.311, -1.489e-6, -9.015e-7, 5.871e-7
0.310, -1.493e-6, -9.039e-7, 5.892e-7
0.309, -1.493e-6, -9.030e-7, 5.898e-7
0.308, -1.498e-6, -9.067e-7, 5.910e-7
0.307, -1.502e-6, -9.070e-7, 5.947e-7
0.306, -1.503e-6, -9.079e-7, 5.947e-7
0.305, -1.506e-6, -9.091e-7, 5.971e-7
0.304, -1.510e-6, -9.116e-7, 5.987e-7
0.303, -1.511e-6, -9.113e-7, 5.996e-7
0.302, -1.512e-6, -9.131e-7, 5.990e-7
0.301, -1.518e-6, -9.143e-7, 6.039e-7
0.300, -1.517e-6, -9.143e-7, 6.029e-7
0.299, -1.520e-6, -9.155e-7, 6.042e-7
0.298, -1.523e-6, -9.161e-7, 6.069e-7
0.297, -1.521e-6, -9.164e-7, 6.048e-7
0.296, -1.528e-6, -9.195e-7, 6.081e-7
0.295, -1.533e-6, -9.219e-7, 6.109e-7
0.294, -1.529e-6, -9.183e-7, 6.106e-7
0.293, -1.535e-6, -9.228e-7, 6.121e-7
0.292, -1.537e-6, -9.241e-7, 6.130e-7
0.291, -1.534e-6, -9.210e-7, 6.133e-7
0.290, -1.540e-6, -9.244e-7, 6.155e-7
0.289, -1.541e-6, -9.241e-7, 6.170e-7
0.288, -1.544e-6, -9.256e-7, 6.182e-7
0.287, -1.545e-6, -9.262e-7, 6.191e-7
0.286, -1.546e-6, -9.250e-7, 6.206e-7
0.285, -1.547e-6, -9.259e-7, 6.216e-7
0.284, -1.550e-6, -9.274e-7, 6.228e-7
0.283, -1.551e-6, -9.268e-7, 6.246e-7
0.282, -1.553e-6, -9.271e-7, 6.258e-7
0.281, -1.557e-6, -9.293e-7, 6.277e-7
0.280, -1.557e-6, -9.274e-7, 6.298e-7
0.279, -1.555e-6, -9.271e-7, 6.283e-7
0.278, -1.559e-6, -9.296e-7, 6.292e-7
0.277, -1.558e-6, -9.283e-7, 6.292e-7
0.276, -1.563e-6, -9.308e-7, 6.319e-7
0.275, -1.566e-6, -9.299e-7, 6.365e-7
0.274, -1.566e-6, -9.308e-7, 6.350e-7
0.273, -1.565e-6, -9.290e-7, 6.362e-7
0.272, -1.566e-6, -9.299e-7, 6.365e-7
0.271, -1.567e-6, -9.299e-7, 6.374e-7
0.270, -1.569e-6, -9.283e-7, 6.402e-7
0.269, -1.572e-6, -9.320e-7, 6.396e-7
0.268, -1.574e-6, -9.302e-7, 6.435e-7
0.267, -1.572e-6, -9.299e-7, 6.420e-7
0.266, -1.576e-6, -9.311e-7, 6.444e-7
0.265, -1.576e-6, -9.296e-7, 6.466e-7
0.264, -1.575e-6, -9.296e-7, 6.451e-7
0.263, -1.575e-6, -9.286e-7, 6.463e-7
0.262, -1.576e-6, -9.286e-7, 6.475e-7
0.261, -1.577e-6, -9.290e-7, 6.478e-7
0.260, -1.579e-6, -9.283e-7, 6.502e-7
0.259, -1.580e-6, -9.286e-7, 6.512e-7
0.258, -1.580e-6, -9.280e-7, 6.524e-7
0.257, -1.580e-6, -9.286e-7, 6.512e-7
0.256, -1.582e-6, -9.271e-7, 6.548e-7
0.255, -1.579e-6, -9.250e-7, 6.536e-7
0.254, -1.583e-6, -9.262e-7, 6.566e-7
0.253, -1.583e-6, -9.259e-7, 6.570e-7
0.252, -1.581e-6, -9.244e-7, 6.566e-7
0.251, -1.583e-6, -9.262e-7, 6.573e-7
0.250, -1.582e-6, -9.232e-7, 6.591e-7
0.249, -1.585e-6, -9.238e-7, 6.615e-7
0.248, -1.584e-6, -9.232e-7, 6.612e-7
0.247, -1.583e-6, -9.216e-7, 6.609e-7
0.246, -1.582e-6, -9.192e-7, 6.631e-7
0.245, -1.586e-6, -9.207e-7, 6.649e-7
0.244, -1.583e-6, -9.195e-7, 6.640e-7
0.243, -1.586e-6, -9.195e-7, 6.664e-7
0.242, -1.587e-6, -9.195e-7, 6.673e-7
0.241, -1.585e-6, -9.171e-7, 6.676e-7
0.240, -1.580e-6, -9.152e-7, 6.646e-7
0.239, -1.584e-6, -9.155e-7, 6.689e-7
0.238, -1.582e-6, -9.143e-7, 6.676e-7
0.237, -1.582e-6, -9.131e-7, 6.692e-7
0.236, -1.583e-6, -9.131e-7, 6.695e-7
0.235, -1.583e-6, -9.113e-7, 6.713e-7
0.234, -1.580e-6, -9.109e-7, 6.692e-7
0.233, -1.577e-6, -9.067e-7, 6.707e-7
0.232, -1.578e-6, -9.067e-7, 6.713e-7
0.231, -1.576e-6, -9.052e-7, 6.713e-7
0.230, -1.578e-6, -9.039e-7, 6.740e-7
0.229, -1.577e-6, -9.042e-7, 6.728e-7
0.228, -1.576e-6, -9.021e-7, 6.734e-7
0.227, -1.576e-6, -9.012e-7, 6.753e-7
0.226, -1.576e-6, -8.997e-7, 6.768e-7
0.225, -1.575e-6, -9.003e-7, 6.750e-7
0.224, -1.575e-6, -8.972e-7, 6.777e-7
0.223, -1.573e-6, -8.975e-7, 6.759e-7
0.222, -1.572e-6, -8.954e-7, 6.762e-7
0.221, -1.571e-6, -8.936e-7, 6.771e-7
0.220, -1.571e-6, -8.920e-7, 6.792e-7
0.219, -1.569e-6, -8.914e-7, 6.774e-7
0.218, -1.568e-6, -8.905e-7, 6.777e-7
0.217, -1.564e-6, -8.859e-7, 6.780e-7
0.216, -1.565e-6, -8.865e-7, 6.780e-7
0.215, -1.564e-6, -8.862e-7, 6.774e-7
0.214, -1.564e-6, -8.841e-7, 6.801e-7
0.213, -1.561e-6, -8.832e-7, 6.777e-7
0.212, -1.560e-6, -8.798e-7, 6.801e-7
0.211, -1.557e-6, -8.780e-7, 6.786e-7
0.210, -1.559e-6, -8.786e-7, 6.808e-7
0.209, -1.555e-6, -8.759e-7, 6.789e-7
0.208, -1.553e-6, -8.749e-7, 6.777e-7
0.207, -1.551e-6, -8.716e-7, 6.798e-7
0.206, -1.549e-6, -8.698e-7, 6.795e-7
0.205, -1.551e-6, -8.701e-7, 6.804e-7
0.204, -1.548e-6, -8.691e-7, 6.789e-7
0.203, -1.544e-6, -8.655e-7, 6.789e-7
0.202, -1.543e-6, -8.633e-7, 6.801e-7
0.201, -1.543e-6, -8.640e-7, 6.789e-7
0.200, -1.542e-6, -8.630e-7, 6.792e-7
0.199, -1.539e-6, -8.600e-7, 6.786e-7
0.198, -1.536e-6, -8.575e-7, 6.783e-7
0.197, -1.535e-6, -8.548e-7, 6.801e-7
0.196, -1.529e-6, -8.539e-7, 6.756e-7
0.195, -1.529e-6, -8.530e-7, 6.759e-7
0.194, -1.528e-6, -8.508e-7, 6.771e-7
0.193, -1.527e-6, -8.496e-7, 6.774e-7
0.192, -1.525e-6, -8.478e-7, 6.774e-7
0.191, -1.521e-6, -8.453e-7, 6.759e-7
0.190, -1.519e-6, -8.432e-7, 6.762e-7
0.189, -1.517e-6, -8.417e-7, 6.750e-7
0.188, -1.514e-6, -8.411e-7, 6.734e-7
0.187, -1.513e-6, -8.392e-7, 6.737e-7
0.186, -1.511e-6, -8.383e-7, 6.731e-7
0.185, -1.510e-6, -8.356e-7, 6.743e-7
0.184, -1.507e-6, -8.340e-7, 6.725e-7
0.183, -1.505e-6, -8.325e-7, 6.725e-7
0.182, -1.503e-6, -8.316e-7, 6.710e-7
0.181, -1.499e-6, -8.289e-7, 6.698e-7
0.180, -1.497e-6, -8.258e-7, 6.710e-7
0.179, -1.496e-6, -8.252e-7, 6.713e-7
0.178, -1.492e-6, -8.225e-7, 6.695e-7
0.177, -1.490e-6, -8.221e-7, 6.679e-7
0.176, -1.489e-6, -8.209e-7, 6.682e-7
0.175, -1.485e-6, -8.179e-7, 6.673e-7
0.174, -1.485e-6, -8.179e-7, 6.670e-7
0.173, -1.481e-6, -8.154e-7, 6.655e-7
0.172, -1.478e-6, -8.133e-7, 6.646e-7
0.171, -1.477e-6, -8.133e-7, 6.634e-7
0.170, -1.473e-6, -8.087e-7, 6.640e-7
0.169, -1.469e-6, -8.087e-7, 6.606e-7
0.168, -1.467e-6, -8.057e-7, 6.609e-7
0.167, -1.467e-6, -8.051e-7, 6.615e-7
0.166, -1.463e-6, -8.038e-7, 6.588e-7
0.165, -1.460e-6, -8.014e-7, 6.582e-7
0.164, -1.459e-6, -8.002e-7, 6.591e-7
0.163, -1.455e-6, -7.990e-7, 6.560e-7
0.162, -1.456e-6, -7.987e-7, 6.576e-7
0.161, -1.450e-6, -7.944e-7, 6.554e-7
0.160, -1.448e-6, -7.932e-7, 6.551e-7
0.159, -1.444e-6, -7.925e-7, 6.518e-7
0.158, -1.442e-6, -7.898e-7, 6.518e-7
0.157, -1.440e-6, -7.895e-7, 6.508e-7
0.156, -1.436e-6, -7.871e-7, 6.487e-7
0.155, -1.439e-6, -7.868e-7, 6.518e-7
0.154, -1.432e-6, -7.849e-7, 6.475e-7
0.153, -1.430e-6, -7.834e-7, 6.466e-7
0.152, -1.426e-6, -7.800e-7, 6.457e-7
0.151, -1.423e-6, -7.785e-7, 6.444e-7
0.150, -1.421e-6, -7.791e-7, 6.414e-7
0.149, -1.417e-6, -7.748e-7, 6.426e-7
0.148, -1.417e-6, -7.767e-7, 6.399e-7
0.147, -1.416e-6, -7.752e-7, 6.408e-7
0.146, -1.412e-6, -7.718e-7, 6.399e-7
0.145, -1.406e-6, -7.703e-7, 6.362e-7
0.144, -1.404e-6, -7.681e-7, 6.359e-7
0.143, -1.401e-6, -7.672e-7, 6.341e-7
0.142, -1.401e-6, -7.663e-7, 6.347e-7
0.141, -1.400e-6, -7.651e-7, 6.347e-7
0.140, -1.398e-6, -7.645e-7, 6.338e-7
0.139, -1.392e-6, -7.605e-7, 6.310e-7
0.138, -1.390e-6, -7.614e-7, 6.283e-7
0.137, -1.387e-6, -7.593e-7, 6.277e-7
0.136, -1.385e-6, -7.568e-7, 6.277e-7
0.135, -1.378e-6, -7.553e-7, 6.231e-7
0.134, -1.378e-6, -7.547e-7, 6.231e-7
0.133, -1.376e-6, -7.538e-7, 6.222e-7
0.132, -1.375e-6, -7.529e-7, 6.222e-7
0.131, -1.370e-6, -7.501e-7, 6.200e-7
0.130, -1.369e-6, -7.492e-7, 6.194e-7
0.129, -1.363e-6, -7.480e-7, 6.145e-7
0.128, -1.363e-6, -7.468e-7, 6.161e-7
0.127, -1.362e-6, -7.468e-7, 6.155e-7
0.126, -1.358e-6, -7.440e-7, 6.136e-7
0.125, -1.356e-6, -7.419e-7, 6.139e-7
0.124, -1.352e-6, -7.419e-7, 6.106e-7
0.123, -1.349e-6, -7.395e-7, 6.093e-7
0.122, -1.344e-6, -7.370e-7, 6.069e-7
0.121, -1.343e-6, -7.370e-7, 6.063e-7
0.120, -1.341e-6, -7.370e-7, 6.045e-7
0.119, -1.340e-6, -7.358e-7, 6.039e-7
0.118, -1.336e-6, -7.330e-7, 6.026e-7
0.117, -1.334e-6, -7.337e-7, 6.005e-7
0.116, -1.334e-6, -7.321e-7, 6.017e-7
0.115, -1.328e-6, -7.294e-7, 5.990e-7
0.114, -1.325e-6, -7.285e-7, 5.968e-7
0.113, -1.324e-6, -7.285e-7, 5.953e-7
0.112, -1.320e-6, -7.263e-7, 5.941e-7
0.111, -1.319e-6, -7.257e-7, 5.935e-7
0.110, -1.316e-6, -7.236e-7, 5.920e-7
0.109, -1.313e-6, -7.221e-7, 5.913e-7
0.108, -1.311e-6, -7.224e-7, 5.889e-7
0.107, -1.309e-6, -7.205e-7, 5.886e-7
0.106, -1.306e-6, -7.196e-7, 5.862e-7
0.105, -1.303e-6, -7.181e-7, 5.846e-7
0.104, -1.302e-6, -7.172e-7, 5.852e-7
0.103, -1.299e-6, -7.172e-7, 5.816e-7
0.102, -1.297e-6, -7.160e-7, 5.807e-7
0.101, -1.296e-6, -7.144e-7, 5.816e-7
0.100, -1.291e-6, -7.126e-7, 5.779e-7
0.099, -1.289e-6, -7.114e-7, 5.776e-7
0.098, -1.290e-6, -7.120e-7, 5.776e-7
0.097, -1.286e-6, -7.111e-7, 5.749e-7
0.096, -1.285e-6, -7.095e-7, 5.755e-7
0.095, -1.281e-6, -7.071e-7, 5.736e-7
0.094, -1.278e-6, -7.071e-7, 5.706e-7
0.093, -1.275e-6, -7.056e-7, 5.691e-7
0.092, -1.271e-6, -7.031e-7, 5.675e-7
0.091, -1.270e-6, -7.047e-7, 5.651e-7
0.090, -1.269e-6, -7.034e-7, 5.657e-7
0.089, -1.267e-6, -7.025e-7, 5.648e-7
0.088, -1.264e-6, -6.998e-7, 5.642e-7
0.087, -1.261e-6, -6.980e-7, 5.630e-7
0.086, -1.259e-6, -6.976e-7, 5.614e-7
0.085, -1.258e-6, -6.973e-7, 5.602e-7
0.084, -1.253e-6, -6.958e-7, 5.569e-7
0.083, -1.253e-6, -6.952e-7, 5.581e-7
0.082, -1.251e-6, -6.952e-7, 5.556e-7
0.081, -1.247e-6, -6.934e-7, 5.538e-7
0.080, -1.248e-6, -6.928e-7, 5.550e-7
0.079, -1.243e-6, -6.915e-7, 5.517e-7
0.078, -1.242e-6, -6.906e-7, 5.511e-7
0.077, -1.239e-6, -6.897e-7, 5.495e-7
0.076, -1.235e-6, -6.876e-7, 5.477e-7
0.075, -1.237e-6, -6.891e-7, 5.480e-7
0.074, -1.231e-6, -6.848e-7, 5.462e-7
0.073, -1.231e-6, -6.851e-7, 5.456e-7
0.072, -1.228e-6, -6.842e-7, 5.434e-7
0.071, -1.226e-6, -6.824e-7, 5.431e-7
0.070, -1.224e-6, -6.827e-7, 5.416e-7
0.069, -1.225e-6, -6.830e-7, 5.416e-7
0.068, -1.220e-6, -6.796e-7, 5.407e-7
0.067, -1.219e-6, -6.806e-7, 5.389e-7
0.066, -1.218e-6, -6.793e-7, 5.392e-7
0.065, -1.215e-6, -6.778e-7, 5.370e-7
0.064, -1.212e-6, -6.769e-7, 5.349e-7
0.063, -1.211e-6, -6.763e-7, 5.346e-7
0.062, -1.210e-6, -6.754e-7, 5.346e-7
0.061, -1.208e-6, -6.748e-7, 5.337e-7
0.060, -1.207e-6, -6.741e-7, 5.331e-7
0.059, -1.206e-6, -6.732e-7, 5.324e-7
0.058, -1.203e-6, -6.714e-7, 5.312e-7
0.057, -1.201e-6, -6.720e-7, 5.294e-7
0.056, -1.198e-6, -6.699e-7, 5.285e-7
0.055, -1.195e-6, -6.680e-7, 5.273e-7
0.054, -1.195e-6, -6.687e-7, 5.266e-7
0.053, -1.194e-6, -6.671e-7, 5.270e-7
0.052, -1.190e-6, -6.647e-7, 5.254e-7
0.051, -1.187e-6, -6.650e-7, 5.221e-7
0.050, -1.189e-6, -6.641e-7, 5.251e-7
0.049, -1.184e-6, -6.626e-7, 5.215e-7
0.048, -1.185e-6, -6.638e-7, 5.212e-7
0.047, -1.180e-6, -6.601e-7, 5.199e-7
0.046, -1.181e-6, -6.607e-7, 5.199e-7
0.045, -1.180e-6, -6.604e-7, 5.196e-7
0.044, -1.177e-6, -6.589e-7, 5.181e-7
0.043, -1.175e-6, -6.583e-7, 5.166e-7
0.042, -1.175e-6, -6.580e-7, 5.169e-7
0.041, -1.173e-6, -6.564e-7, 5.169e-7
0.040, -1.171e-6, -6.558e-7, 5.151e-7
0.039, -1.170e-6, -6.549e-7, 5.147e-7
0.038, -1.169e-6, -6.534e-7, 5.160e-7
0.037, -1.166e-6, -6.531e-7, 5.126e-7
0.036, -1.166e-6, -6.528e-7, 5.132e-7
0.035, -1.162e-6, -6.510e-7, 5.114e-7
0.034, -1.160e-6, -6.510e-7, 5.093e-7
0.033, -1.158e-6, -6.491e-7, 5.089e-7
0.032, -1.156e-6, -6.473e-7, 5.089e-7
0.031, -1.154e-6, -6.470e-7, 5.071e-7
0.030, -1.155e-6, -6.467e-7, 5.083e-7
0.029, -1.152e-6, -6.455e-7, 5.068e-7
0.028, -1.151e-6, -6.449e-7, 5.062e-7
0.027, -1.149e-6, -6.439e-7, 5.050e-7
0.026, -1.150e-6, -6.445e-7, 5.053e-7
0.025, -1.146e-6, -6.427e-7, 5.032e-7
0.024, -1.146e-6, -6.418e-7, 5.047e-7
0.023, -1.146e-6, -6.406e-7, 5.050e-7
0.022, -1.143e-6, -6.406e-7, 5.028e-7
0.021, -1.142e-6, -6.400e-7, 5.022e-7
0.020, -1.138e-6, -6.363e-7, 5.019e-7
0.019, -1.136e-6, -6.366e-7, 4.998e-7
0.018, -1.137e-6, -6.360e-7, 5.010e-7
0.017, -1.133e-6, -6.336e-7, 4.998e-7
0.016, -1.132e-6, -6.339e-7, 4.983e-7
0.015, -1.134e-6, -6.348e-7, 4.995e-7
0.014, -1.131e-6, -6.333e-7, 4.977e-7
0.013, -1.127e-6, -6.314e-7, 4.958e-7
0.012, -1.128e-6, -6.299e-7, 4.983e-7
0.011, -1.126e-6, -6.296e-7, 4.967e-7
0.010, -1.124e-6, -6.290e-7, 4.946e-7
0.009, -1.125e-6, -6.281e-7, 4.964e-7
0.008, -1.123e-6, -6.284e-7, 4.949e-7
0.007, -1.119e-6, -6.262e-7, 4.931e-7
0.006, -1.122e-6, -6.272e-7, 4.949e-7
0.005, -1.117e-6, -6.244e-7, 4.931e-7
0.004, -1.116e-6, -6.238e-7, 4.922e-7
0.003, -1.115e-6, -6.238e-7, 4.912e-7
0.002, -1.114e-6, -6.220e-7, 4.922e-7
0.001, -1.112e-6, -6.220e-7, 4.897e-7
-0.000, -1.112e-6, -6.207e-7, 4.909e-7
-0.001, -1.109e-6, -6.183e-7, 4.906e-7
-0.002, -1.109e-6, -6.198e-7, 4.891e-7
-0.003, -1.107e-6, -6.177e-7, 4.897e-7
-0.004, -1.107e-6, -6.177e-7, 4.894e-7
-0.005, -1.102e-6, -6.156e-7, 4.867e-7
-0.006, -1.104e-6, -6.162e-7, 4.882e-7
-0.007, -1.103e-6, -6.140e-7, 4.885e-7
-0.008, -1.100e-6, -6.143e-7, 4.861e-7
-0.009, -1.101e-6, -6.137e-7, 4.873e-7
-0.010, -1.097e-6, -6.107e-7, 4.867e-7
-0.011, -1.095e-6, -6.104e-7, 4.845e-7
-0.012, -1.096e-6, -6.113e-7, 4.842e-7
-0.013, -1.093e-6, -6.085e-7, 4.842e-7
-0.014, -1.091e-6, -6.079e-7, 4.830e-7
-0.015, -1.091e-6, -6.079e-7, 4.833e-7
-0.016, -1.091e-6, -6.082e-7, 4.830e-7
-0.017, -1.088e-6, -6.064e-7, 4.821e-7
-0.018, -1.087e-6, -6.040e-7, 4.827e-7
-0.019, -1.084e-6, -6.027e-7, 4.812e-7
-0.020, -1.085e-6, -6.034e-7, 4.815e-7
-0.021, -1.083e-6, -6.021e-7, 4.812e-7
-0.022, -1.082e-6, -6.018e-7, 4.806e-7
-0.023, -1.081e-6, -6.015e-7, 4.800e-7
-0.024, -1.080e-6, -6.000e-7, 4.797e-7
-0.025, -1.078e-6, -5.988e-7, 4.793e-7
-0.026, -1.074e-6, -5.969e-7, 4.775e-7
-0.027, -1.075e-6, -5.969e-7, 4.781e-7
-0.028, -1.076e-6, -5.972e-7, 4.784e-7
-0.029, -1.072e-6, -5.954e-7, 4.766e-7
-0.030, -1.074e-6, -5.957e-7, 4.784e-7
-0.031, -1.070e-6, -5.927e-7, 4.775e-7
-0.032, -1.068e-6, -5.942e-7, 4.739e-7
-0.033, -1.068e-6, -5.915e-7, 4.763e-7
-0.034, -1.066e-6, -5.905e-7, 4.754e-7
-0.035, -1.066e-6, -5.915e-7, 4.742e-7
-0.036, -1.065e-6, -5.902e-7, 4.751e-7
-0.037, -1.063e-6, -5.890e-7, 4.739e-7
-0.038, -1.061e-6, -5.887e-7, 4.723e-7
-0.039, -1.063e-6, -5.875e-7, 4.751e-7
-0.040, -1.061e-6, -5.857e-7, 4.751e-7
-0.041, -1.059e-6, -5.863e-7, 4.729e-7
-0.042, -1.056e-6, -5.850e-7, 4.714e-7
-0.043, -1.056e-6, -5.850e-7, 4.714e-7
-0.044, -1.053e-6, -5.838e-7, 4.696e-7
-0.045, -1.054e-6, -5.823e-7, 4.714e-7
-0.046, -1.052e-6, -5.811e-7, 4.705e-7
-0.047, -1.050e-6, -5.811e-7, 4.690e-7
-0.048, -1.047e-6, -5.792e-7, 4.681e-7
-0.049, -1.048e-6, -5.789e-7, 4.687e-7
-0.050, -1.049e-6, -5.799e-7, 4.690e-7
