Feb. 28, 2018   11:21:18
Square Wave Voltammetry
File: c:\users\electrochemist\desktop\2018\28022018_unbuffered_9,2\8_e6_9,2_0118_ph4,47_1.txt
Data Source:  Experiment
Instrument Model:  CHI1040A
Header: 
Note: 

Init E (V) = 0.5
Final E (V) = -0.05
Incr E (V) = 0.001
Amplitude (V) = 0.1
Frequency (Hz) = 150
Quiet Time (sec) = 0
Sensitivity (A/V) = 1e-6

Difference:

Forward:

Reverse:
Potential/V, Diff(i/A), For(i/A), Rev(i/A)

0.499, -8.474e-7, -2.094e-7, 6.380e-7
0.498, -1.063e-6, -5.115e-7, 5.517e-7
0.497, -1.057e-6, -5.316e-7, 5.254e-7
0.496, -1.046e-6, -5.377e-7, 5.083e-7
0.495, -1.040e-6, -5.414e-7, 4.986e-7
0.494, -1.034e-6, -5.435e-7, 4.909e-7
0.493, -1.030e-6, -5.466e-7, 4.833e-7
0.492, -1.030e-6, -5.502e-7, 4.794e-7
0.491, -1.027e-6, -5.524e-7, 4.751e-7
0.490, -1.022e-6, -5.530e-7, 4.693e-7
0.489, -1.023e-6, -5.551e-7, 4.678e-7
0.488, -1.021e-6, -5.573e-7, 4.638e-7
0.487, -1.020e-6, -5.576e-7, 4.620e-7
0.486, -1.021e-6, -5.615e-7, 4.595e-7
0.485, -1.022e-6, -5.612e-7, 4.604e-7
0.484, -1.020e-6, -5.631e-7, 4.574e-7
0.483, -1.025e-6, -5.673e-7, 4.580e-7
0.482, -1.024e-6, -5.679e-7, 4.562e-7
0.481, -1.024e-6, -5.676e-7, 4.562e-7
0.480, -1.026e-6, -5.704e-7, 4.552e-7
0.479, -1.023e-6, -5.695e-7, 4.531e-7
0.478, -1.024e-6, -5.719e-7, 4.525e-7
0.477, -1.027e-6, -5.756e-7, 4.516e-7
0.476, -1.028e-6, -5.762e-7, 4.519e-7
0.475, -1.028e-6, -5.765e-7, 4.519e-7
0.474, -1.030e-6, -5.789e-7, 4.510e-7
0.473, -1.032e-6, -5.805e-7, 4.519e-7
0.472, -1.032e-6, -5.811e-7, 4.513e-7
0.471, -1.034e-6, -5.829e-7, 4.507e-7
0.470, -1.035e-6, -5.850e-7, 4.501e-7
0.469, -1.035e-6, -5.850e-7, 4.504e-7
0.468, -1.039e-6, -5.896e-7, 4.498e-7
0.467, -1.041e-6, -5.881e-7, 4.525e-7
0.466, -1.041e-6, -5.905e-7, 4.501e-7
0.465, -1.044e-6, -5.942e-7, 4.494e-7
0.464, -1.042e-6, -5.927e-7, 4.491e-7
0.463, -1.046e-6, -5.963e-7, 4.501e-7
0.462, -1.046e-6, -5.969e-7, 4.494e-7
0.461, -1.052e-6, -5.997e-7, 4.519e-7
0.460, -1.052e-6, -6.009e-7, 4.513e-7
0.459, -1.050e-6, -6.012e-7, 4.491e-7
0.458, -1.055e-6, -6.049e-7, 4.504e-7
0.457, -1.056e-6, -6.049e-7, 4.513e-7
0.456, -1.061e-6, -6.091e-7, 4.519e-7
0.455, -1.061e-6, -6.085e-7, 4.528e-7
0.454, -1.063e-6, -6.101e-7, 4.525e-7
0.453, -1.066e-6, -6.146e-7, 4.516e-7
0.452, -1.065e-6, -6.125e-7, 4.525e-7
0.451, -1.068e-6, -6.146e-7, 4.537e-7
0.450, -1.070e-6, -6.162e-7, 4.537e-7
0.449, -1.073e-6, -6.180e-7, 4.549e-7
0.448, -1.074e-6, -6.198e-7, 4.540e-7
0.447, -1.080e-6, -6.250e-7, 4.552e-7
0.446, -1.081e-6, -6.265e-7, 4.549e-7
0.445, -1.080e-6, -6.244e-7, 4.559e-7
0.444, -1.083e-6, -6.281e-7, 4.546e-7
0.443, -1.087e-6, -6.299e-7, 4.568e-7
0.442, -1.088e-6, -6.314e-7, 4.562e-7
0.441, -1.091e-6, -6.348e-7, 4.559e-7
0.440, -1.094e-6, -6.369e-7, 4.574e-7
0.439, -1.095e-6, -6.372e-7, 4.577e-7
0.438, -1.095e-6, -6.378e-7, 4.568e-7
0.437, -1.099e-6, -6.397e-7, 4.598e-7
0.436, -1.099e-6, -6.397e-7, 4.592e-7
0.435, -1.103e-6, -6.448e-7, 4.577e-7
0.434, -1.106e-6, -6.439e-7, 4.617e-7
0.433, -1.110e-6, -6.479e-7, 4.620e-7
0.432, -1.112e-6, -6.513e-7, 4.607e-7
0.431, -1.115e-6, -6.519e-7, 4.629e-7
0.430, -1.117e-6, -6.531e-7, 4.635e-7
0.429, -1.118e-6, -6.552e-7, 4.632e-7
0.428, -1.123e-6, -6.589e-7, 4.644e-7
0.427, -1.125e-6, -6.589e-7, 4.662e-7
0.426, -1.125e-6, -6.619e-7, 4.635e-7
0.425, -1.130e-6, -6.641e-7, 4.656e-7
0.424, -1.133e-6, -6.653e-7, 4.681e-7
0.423, -1.133e-6, -6.671e-7, 4.662e-7
0.422, -1.137e-6, -6.690e-7, 4.681e-7
0.421, -1.139e-6, -6.711e-7, 4.684e-7
0.420, -1.143e-6, -6.748e-7, 4.687e-7
0.419, -1.146e-6, -6.760e-7, 4.699e-7
0.418, -1.149e-6, -6.781e-7, 4.711e-7
0.417, -1.150e-6, -6.809e-7, 4.690e-7
0.416, -1.155e-6, -6.833e-7, 4.717e-7
0.415, -1.156e-6, -6.815e-7, 4.745e-7
0.414, -1.162e-6, -6.885e-7, 4.739e-7
0.413, -1.164e-6, -6.882e-7, 4.763e-7
0.412, -1.164e-6, -6.894e-7, 4.748e-7
0.411, -1.169e-6, -6.940e-7, 4.754e-7
0.410, -1.171e-6, -6.949e-7, 4.763e-7
0.409, -1.176e-6, -6.973e-7, 4.790e-7
0.408, -1.179e-6, -7.010e-7, 4.781e-7
0.407, -1.179e-6, -7.007e-7, 4.787e-7
0.406, -1.185e-6, -7.053e-7, 4.797e-7
0.405, -1.188e-6, -7.068e-7, 4.812e-7
0.404, -1.192e-6, -7.098e-7, 4.824e-7
0.403, -1.193e-6, -7.095e-7, 4.833e-7
0.402, -1.197e-6, -7.135e-7, 4.830e-7
0.401, -1.200e-6, -7.129e-7, 4.870e-7
0.400, -1.202e-6, -7.172e-7, 4.852e-7
0.399, -1.206e-6, -7.196e-7, 4.864e-7
0.398, -1.209e-6, -7.217e-7, 4.873e-7
0.397, -1.211e-6, -7.233e-7, 4.879e-7
0.396, -1.216e-6, -7.272e-7, 4.891e-7
0.395, -1.219e-6, -7.294e-7, 4.894e-7
0.394, -1.222e-6, -7.303e-7, 4.916e-7
0.393, -1.229e-6, -7.367e-7, 4.919e-7
0.392, -1.229e-6, -7.355e-7, 4.940e-7
0.391, -1.229e-6, -7.364e-7, 4.925e-7
0.390, -1.235e-6, -7.394e-7, 4.952e-7
0.389, -1.237e-6, -7.410e-7, 4.955e-7
0.388, -1.241e-6, -7.449e-7, 4.961e-7
0.387, -1.241e-6, -7.452e-7, 4.955e-7
0.386, -1.246e-6, -7.486e-7, 4.971e-7
0.385, -1.250e-6, -7.507e-7, 4.989e-7
0.384, -1.255e-6, -7.559e-7, 4.995e-7
0.383, -1.258e-6, -7.544e-7, 5.032e-7
0.382, -1.260e-6, -7.578e-7, 5.019e-7
0.381, -1.263e-6, -7.605e-7, 5.028e-7
0.380, -1.268e-6, -7.633e-7, 5.044e-7
0.379, -1.267e-6, -7.629e-7, 5.038e-7
0.378, -1.274e-6, -7.678e-7, 5.062e-7
0.377, -1.276e-6, -7.694e-7, 5.071e-7
0.376, -1.280e-6, -7.709e-7, 5.090e-7
0.375, -1.285e-6, -7.755e-7, 5.096e-7
0.374, -1.288e-6, -7.779e-7, 5.102e-7
0.373, -1.291e-6, -7.770e-7, 5.135e-7
0.372, -1.293e-6, -7.803e-7, 5.123e-7
0.371, -1.297e-6, -7.825e-7, 5.141e-7
0.370, -1.301e-6, -7.855e-7, 5.154e-7
0.369, -1.304e-6, -7.886e-7, 5.157e-7
0.368, -1.309e-6, -7.913e-7, 5.178e-7
0.367, -1.309e-6, -7.904e-7, 5.181e-7
0.366, -1.312e-6, -7.941e-7, 5.178e-7
0.365, -1.317e-6, -7.962e-7, 5.212e-7
0.364, -1.317e-6, -7.980e-7, 5.193e-7
0.363, -1.326e-6, -8.032e-7, 5.230e-7
0.362, -1.331e-6, -8.057e-7, 5.251e-7
0.361, -1.328e-6, -8.041e-7, 5.239e-7
0.360, -1.333e-6, -8.087e-7, 5.242e-7
0.359, -1.339e-6, -8.115e-7, 5.276e-7
0.358, -1.338e-6, -8.106e-7, 5.273e-7
0.357, -1.342e-6, -8.157e-7, 5.267e-7
0.356, -1.348e-6, -8.179e-7, 5.306e-7
0.355, -1.349e-6, -8.188e-7, 5.306e-7
0.354, -1.355e-6, -8.231e-7, 5.318e-7
0.353, -1.356e-6, -8.218e-7, 5.346e-7
0.352, -1.360e-6, -8.237e-7, 5.361e-7
0.351, -1.366e-6, -8.298e-7, 5.367e-7
0.350, -1.370e-6, -8.310e-7, 5.389e-7
0.349, -1.370e-6, -8.310e-7, 5.395e-7
0.348, -1.374e-6, -8.350e-7, 5.392e-7
0.347, -1.379e-6, -8.368e-7, 5.425e-7
0.346, -1.384e-6, -8.398e-7, 5.437e-7
0.345, -1.385e-6, -8.411e-7, 5.437e-7
0.344, -1.387e-6, -8.417e-7, 5.456e-7
0.343, -1.390e-6, -8.432e-7, 5.465e-7
0.342, -1.397e-6, -8.493e-7, 5.474e-7
0.341, -1.399e-6, -8.493e-7, 5.498e-7
0.340, -1.401e-6, -8.493e-7, 5.514e-7
0.339, -1.404e-6, -8.533e-7, 5.505e-7
0.338, -1.408e-6, -8.536e-7, 5.541e-7
0.337, -1.410e-6, -8.557e-7, 5.538e-7
0.336, -1.415e-6, -8.591e-7, 5.563e-7
0.335, -1.417e-6, -8.600e-7, 5.575e-7
0.334, -1.418e-6, -8.618e-7, 5.566e-7
0.333, -1.427e-6, -8.670e-7, 5.596e-7
0.332, -1.426e-6, -8.655e-7, 5.608e-7
0.331, -1.428e-6, -8.667e-7, 5.611e-7
0.330, -1.435e-6, -8.710e-7, 5.642e-7
0.329, -1.436e-6, -8.698e-7, 5.663e-7
0.328, -1.437e-6, -8.728e-7, 5.645e-7
0.327, -1.442e-6, -8.768e-7, 5.654e-7
0.326, -1.443e-6, -8.752e-7, 5.682e-7
0.325, -1.448e-6, -8.783e-7, 5.697e-7
0.324, -1.454e-6, -8.817e-7, 5.721e-7
0.323, -1.453e-6, -8.807e-7, 5.727e-7
0.322, -1.460e-6, -8.838e-7, 5.764e-7
0.321, -1.462e-6, -8.862e-7, 5.755e-7
0.320, -1.465e-6, -8.878e-7, 5.773e-7
0.319, -1.462e-6, -8.853e-7, 5.767e-7
0.318, -1.468e-6, -8.902e-7, 5.782e-7
0.317, -1.473e-6, -8.914e-7, 5.819e-7
0.316, -1.473e-6, -8.923e-7, 5.810e-7
0.315, -1.480e-6, -8.957e-7, 5.846e-7
0.314, -1.482e-6, -8.966e-7, 5.852e-7
0.313, -1.481e-6, -8.969e-7, 5.840e-7
0.312, -1.482e-6, -8.969e-7, 5.855e-7
0.311, -1.487e-6, -8.997e-7, 5.877e-7
0.310, -1.493e-6, -9.030e-7, 5.895e-7
0.309, -1.492e-6, -9.018e-7, 5.901e-7
0.308, -1.497e-6, -9.039e-7, 5.929e-7
0.307, -1.499e-6, -9.055e-7, 5.932e-7
0.306, -1.499e-6, -9.061e-7, 5.932e-7
0.305, -1.503e-6, -9.055e-7, 5.971e-7
0.304, -1.507e-6, -9.079e-7, 5.987e-7
0.303, -1.509e-6, -9.100e-7, 5.993e-7
0.302, -1.510e-6, -9.094e-7, 6.008e-7
0.301, -1.513e-6, -9.109e-7, 6.017e-7
0.300, -1.514e-6, -9.116e-7, 6.026e-7
0.299, -1.520e-6, -9.143e-7, 6.057e-7
0.298, -1.517e-6, -9.125e-7, 6.045e-7
0.297, -1.523e-6, -9.167e-7, 6.063e-7
0.296, -1.521e-6, -9.140e-7, 6.066e-7
0.295, -1.525e-6, -9.164e-7, 6.087e-7
0.294, -1.528e-6, -9.198e-7, 6.084e-7
0.293, -1.531e-6, -9.180e-7, 6.127e-7
0.292, -1.529e-6, -9.180e-7, 6.112e-7
0.291, -1.533e-6, -9.201e-7, 6.127e-7
0.290, -1.537e-6, -9.195e-7, 6.176e-7
0.289, -1.537e-6, -9.213e-7, 6.158e-7
0.288, -1.540e-6, -9.222e-7, 6.173e-7
0.287, -1.540e-6, -9.210e-7, 6.191e-7
0.286, -1.541e-6, -9.219e-7, 6.191e-7
0.285, -1.545e-6, -9.241e-7, 6.209e-7
0.284, -1.544e-6, -9.222e-7, 6.222e-7
0.283, -1.546e-6, -9.238e-7, 6.219e-7
0.282, -1.550e-6, -9.247e-7, 6.252e-7
0.281, -1.550e-6, -9.238e-7, 6.264e-7
0.280, -1.551e-6, -9.235e-7, 6.274e-7
0.279, -1.553e-6, -9.250e-7, 6.283e-7
0.278, -1.557e-6, -9.259e-7, 6.307e-7
0.277, -1.555e-6, -9.259e-7, 6.292e-7
0.276, -1.557e-6, -9.250e-7, 6.319e-7
0.275, -1.558e-6, -9.256e-7, 6.319e-7
0.274, -1.559e-6, -9.253e-7, 6.335e-7
0.273, -1.563e-6, -9.286e-7, 6.347e-7
0.272, -1.561e-6, -9.256e-7, 6.353e-7
0.271, -1.562e-6, -9.259e-7, 6.365e-7
0.270, -1.567e-6, -9.280e-7, 6.393e-7
0.269, -1.567e-6, -9.259e-7, 6.414e-7
0.268, -1.569e-6, -9.286e-7, 6.402e-7
0.267, -1.571e-6, -9.280e-7, 6.426e-7
0.266, -1.567e-6, -9.250e-7, 6.423e-7
0.265, -1.568e-6, -9.253e-7, 6.426e-7
0.264, -1.571e-6, -9.262e-7, 6.444e-7
0.263, -1.570e-6, -9.244e-7, 6.460e-7
0.262, -1.571e-6, -9.250e-7, 6.463e-7
0.261, -1.572e-6, -9.250e-7, 6.469e-7
0.260, -1.574e-6, -9.228e-7, 6.508e-7
0.259, -1.573e-6, -9.244e-7, 6.484e-7
0.258, -1.573e-6, -9.232e-7, 6.499e-7
0.257, -1.575e-6, -9.222e-7, 6.530e-7
0.256, -1.574e-6, -9.210e-7, 6.533e-7
0.255, -1.577e-6, -9.235e-7, 6.536e-7
0.254, -1.572e-6, -9.192e-7, 6.533e-7
0.253, -1.579e-6, -9.216e-7, 6.579e-7
0.252, -1.576e-6, -9.213e-7, 6.548e-7
0.251, -1.578e-6, -9.189e-7, 6.588e-7
0.250, -1.579e-6, -9.204e-7, 6.588e-7
0.249, -1.579e-6, -9.201e-7, 6.594e-7
0.248, -1.577e-6, -9.174e-7, 6.597e-7
0.247, -1.576e-6, -9.171e-7, 6.585e-7
0.246, -1.576e-6, -9.155e-7, 6.603e-7
0.245, -1.576e-6, -9.128e-7, 6.634e-7
0.244, -1.575e-6, -9.137e-7, 6.612e-7
0.243, -1.577e-6, -9.149e-7, 6.621e-7
0.242, -1.576e-6, -9.100e-7, 6.661e-7
0.241, -1.576e-6, -9.125e-7, 6.634e-7
0.240, -1.575e-6, -9.103e-7, 6.643e-7
0.239, -1.575e-6, -9.085e-7, 6.664e-7
0.238, -1.574e-6, -9.076e-7, 6.664e-7
0.237, -1.576e-6, -9.076e-7, 6.685e-7
0.236, -1.574e-6, -9.061e-7, 6.679e-7
0.235, -1.570e-6, -9.042e-7, 6.658e-7
0.234, -1.573e-6, -9.039e-7, 6.692e-7
0.233, -1.570e-6, -9.009e-7, 6.689e-7
0.232, -1.572e-6, -9.024e-7, 6.692e-7
0.231, -1.570e-6, -9.003e-7, 6.695e-7
0.230, -1.567e-6, -8.963e-7, 6.707e-7
0.229, -1.571e-6, -8.994e-7, 6.713e-7
0.228, -1.568e-6, -8.969e-7, 6.710e-7
0.227, -1.562e-6, -8.926e-7, 6.695e-7
0.226, -1.565e-6, -8.926e-7, 6.722e-7
0.225, -1.567e-6, -8.942e-7, 6.728e-7
0.224, -1.565e-6, -8.914e-7, 6.734e-7
0.223, -1.563e-6, -8.917e-7, 6.716e-7
0.222, -1.563e-6, -8.890e-7, 6.737e-7
0.221, -1.560e-6, -8.841e-7, 6.762e-7
0.220, -1.560e-6, -8.856e-7, 6.747e-7
0.219, -1.558e-6, -8.838e-7, 6.743e-7
0.218, -1.558e-6, -8.835e-7, 6.740e-7
0.217, -1.554e-6, -8.820e-7, 6.716e-7
0.216, -1.552e-6, -8.780e-7, 6.740e-7
0.215, -1.553e-6, -8.762e-7, 6.765e-7
0.214, -1.551e-6, -8.777e-7, 6.728e-7
0.213, -1.554e-6, -8.762e-7, 6.774e-7
0.212, -1.547e-6, -8.713e-7, 6.759e-7
0.211, -1.546e-6, -8.725e-7, 6.734e-7
0.210, -1.546e-6, -8.704e-7, 6.756e-7
0.209, -1.543e-6, -8.685e-7, 6.750e-7
0.208, -1.541e-6, -8.679e-7, 6.731e-7
0.207, -1.539e-6, -8.636e-7, 6.753e-7
0.206, -1.537e-6, -8.624e-7, 6.750e-7
0.205, -1.537e-6, -8.627e-7, 6.747e-7
0.204, -1.536e-6, -8.597e-7, 6.762e-7
0.203, -1.533e-6, -8.579e-7, 6.747e-7
0.202, -1.531e-6, -8.566e-7, 6.747e-7
0.201, -1.529e-6, -8.554e-7, 6.734e-7
0.200, -1.529e-6, -8.539e-7, 6.753e-7
0.199, -1.526e-6, -8.517e-7, 6.740e-7
0.198, -1.524e-6, -8.502e-7, 6.740e-7
0.197, -1.521e-6, -8.463e-7, 6.750e-7
0.196, -1.521e-6, -8.475e-7, 6.734e-7
0.195, -1.518e-6, -8.441e-7, 6.740e-7
0.194, -1.518e-6, -8.438e-7, 6.737e-7
0.193, -1.514e-6, -8.420e-7, 6.719e-7
0.192, -1.512e-6, -8.402e-7, 6.719e-7
0.191, -1.508e-6, -8.371e-7, 6.710e-7
0.190, -1.508e-6, -8.377e-7, 6.707e-7
0.189, -1.503e-6, -8.337e-7, 6.695e-7
0.188, -1.503e-6, -8.328e-7, 6.704e-7
0.187, -1.500e-6, -8.334e-7, 6.667e-7
0.186, -1.500e-6, -8.301e-7, 6.704e-7
0.185, -1.494e-6, -8.258e-7, 6.679e-7
0.184, -1.494e-6, -8.267e-7, 6.673e-7
0.183, -1.493e-6, -8.249e-7, 6.679e-7
0.182, -1.487e-6, -8.212e-7, 6.661e-7
0.181, -1.488e-6, -8.215e-7, 6.661e-7
0.180, -1.484e-6, -8.176e-7, 6.664e-7
0.179, -1.481e-6, -8.164e-7, 6.643e-7
0.178, -1.478e-6, -8.160e-7, 6.615e-7
0.177, -1.477e-6, -8.127e-7, 6.643e-7
0.176, -1.473e-6, -8.099e-7, 6.627e-7
0.175, -1.474e-6, -8.130e-7, 6.606e-7
0.174, -1.470e-6, -8.090e-7, 6.612e-7
0.173, -1.468e-6, -8.063e-7, 6.615e-7
0.172, -1.464e-6, -8.060e-7, 6.579e-7
0.171, -1.462e-6, -8.038e-7, 6.582e-7
0.170, -1.459e-6, -8.014e-7, 6.579e-7
0.169, -1.457e-6, -8.008e-7, 6.560e-7
0.168, -1.456e-6, -7.983e-7, 6.573e-7
0.167, -1.450e-6, -7.950e-7, 6.548e-7
0.166, -1.449e-6, -7.965e-7, 6.530e-7
0.165, -1.450e-6, -7.944e-7, 6.554e-7
0.164, -1.443e-6, -7.898e-7, 6.530e-7
0.163, -1.440e-6, -7.898e-7, 6.499e-7
0.162, -1.440e-6, -7.892e-7, 6.512e-7
0.161, -1.437e-6, -7.852e-7, 6.515e-7
0.160, -1.434e-6, -7.852e-7, 6.487e-7
0.159, -1.431e-6, -7.843e-7, 6.469e-7
0.158, -1.428e-6, -7.813e-7, 6.469e-7
0.157, -1.427e-6, -7.822e-7, 6.444e-7
0.156, -1.424e-6, -7.797e-7, 6.438e-7
0.155, -1.421e-6, -7.779e-7, 6.432e-7
0.154, -1.418e-6, -7.776e-7, 6.402e-7
0.153, -1.418e-6, -7.755e-7, 6.429e-7
0.152, -1.412e-6, -7.724e-7, 6.393e-7
0.151, -1.409e-6, -7.703e-7, 6.383e-7
0.150, -1.408e-6, -7.700e-7, 6.377e-7
0.149, -1.402e-6, -7.663e-7, 6.353e-7
0.148, -1.400e-6, -7.678e-7, 6.325e-7
0.147, -1.402e-6, -7.672e-7, 6.347e-7
0.146, -1.396e-6, -7.636e-7, 6.328e-7
0.145, -1.393e-6, -7.639e-7, 6.292e-7
0.144, -1.392e-6, -7.617e-7, 6.307e-7
0.143, -1.388e-6, -7.572e-7, 6.310e-7
0.142, -1.385e-6, -7.578e-7, 6.274e-7
0.141, -1.387e-6, -7.572e-7, 6.298e-7
0.140, -1.382e-6, -7.550e-7, 6.274e-7
0.139, -1.378e-6, -7.541e-7, 6.243e-7
0.138, -1.381e-6, -7.547e-7, 6.261e-7
0.137, -1.369e-6, -7.489e-7, 6.203e-7
0.136, -1.369e-6, -7.501e-7, 6.191e-7
0.135, -1.370e-6, -7.492e-7, 6.206e-7
0.134, -1.363e-6, -7.449e-7, 6.179e-7
0.133, -1.362e-6, -7.452e-7, 6.170e-7
0.132, -1.361e-6, -7.437e-7, 6.173e-7
0.131, -1.356e-6, -7.428e-7, 6.136e-7
0.130, -1.353e-6, -7.428e-7, 6.100e-7
0.129, -1.352e-6, -7.401e-7, 6.121e-7
0.128, -1.347e-6, -7.373e-7, 6.100e-7
0.127, -1.345e-6, -7.367e-7, 6.078e-7
0.126, -1.345e-6, -7.370e-7, 6.075e-7
0.125, -1.337e-6, -7.327e-7, 6.042e-7
0.124, -1.338e-6, -7.340e-7, 6.035e-7
0.123, -1.334e-6, -7.318e-7, 6.026e-7
0.122, -1.331e-6, -7.300e-7, 6.008e-7
0.121, -1.330e-6, -7.318e-7, 5.981e-7
0.120, -1.330e-6, -7.297e-7, 5.999e-7
0.119, -1.323e-6, -7.272e-7, 5.959e-7
0.118, -1.322e-6, -7.288e-7, 5.929e-7
0.117, -1.321e-6, -7.254e-7, 5.956e-7
0.116, -1.317e-6, -7.230e-7, 5.938e-7
0.115, -1.314e-6, -7.227e-7, 5.913e-7
0.114, -1.315e-6, -7.236e-7, 5.910e-7
0.113, -1.309e-6, -7.202e-7, 5.883e-7
0.112, -1.306e-6, -7.202e-7, 5.855e-7
0.111, -1.309e-6, -7.199e-7, 5.886e-7
0.110, -1.301e-6, -7.169e-7, 5.846e-7
0.109, -1.299e-6, -7.163e-7, 5.825e-7
0.108, -1.301e-6, -7.175e-7, 5.834e-7
0.107, -1.296e-6, -7.144e-7, 5.816e-7
0.106, -1.293e-6, -7.150e-7, 5.782e-7
0.105, -1.292e-6, -7.120e-7, 5.804e-7
0.104, -1.287e-6, -7.086e-7, 5.779e-7
0.103, -1.288e-6, -7.120e-7, 5.761e-7
0.102, -1.287e-6, -7.099e-7, 5.770e-7
0.101, -1.281e-6, -7.071e-7, 5.736e-7
0.100, -1.280e-6, -7.089e-7, 5.712e-7
0.099, -1.277e-6, -7.056e-7, 5.715e-7
0.098, -1.273e-6, -7.037e-7, 5.688e-7
0.097, -1.270e-6, -7.037e-7, 5.660e-7
0.096, -1.269e-6, -7.034e-7, 5.657e-7
0.095, -1.265e-6, -7.001e-7, 5.654e-7
0.094, -1.267e-6, -7.019e-7, 5.648e-7
0.093, -1.265e-6, -7.001e-7, 5.645e-7
0.092, -1.263e-6, -6.983e-7, 5.645e-7
0.091, -1.262e-6, -7.013e-7, 5.602e-7
0.090, -1.260e-6, -6.980e-7, 5.620e-7
0.089, -1.254e-6, -6.958e-7, 5.584e-7
0.088, -1.251e-6, -6.964e-7, 5.550e-7
0.087, -1.252e-6, -6.940e-7, 5.584e-7
0.086, -1.246e-6, -6.915e-7, 5.547e-7
0.085, -1.246e-6, -6.928e-7, 5.532e-7
0.084, -1.245e-6, -6.918e-7, 5.535e-7
0.083, -1.241e-6, -6.903e-7, 5.508e-7
0.082, -1.240e-6, -6.900e-7, 5.501e-7
0.081, -1.238e-6, -6.879e-7, 5.505e-7
0.080, -1.233e-6, -6.867e-7, 5.462e-7
0.079, -1.234e-6, -6.891e-7, 5.453e-7
0.078, -1.231e-6, -6.851e-7, 5.459e-7
0.077, -1.229e-6, -6.842e-7, 5.447e-7
0.076, -1.226e-6, -6.845e-7, 5.410e-7
0.075, -1.228e-6, -6.830e-7, 5.447e-7
0.074, -1.221e-6, -6.793e-7, 5.416e-7
0.073, -1.220e-6, -6.818e-7, 5.379e-7
0.072, -1.219e-6, -6.809e-7, 5.379e-7
0.071, -1.218e-6, -6.790e-7, 5.385e-7
0.070, -1.215e-6, -6.803e-7, 5.352e-7
0.069, -1.213e-6, -6.760e-7, 5.367e-7
0.068, -1.208e-6, -6.748e-7, 5.337e-7
0.067, -1.208e-6, -6.754e-7, 5.328e-7
0.066, -1.208e-6, -6.751e-7, 5.331e-7
0.065, -1.206e-6, -6.738e-7, 5.321e-7
0.064, -1.202e-6, -6.729e-7, 5.288e-7
0.063, -1.204e-6, -6.720e-7, 5.315e-7
0.062, -1.200e-6, -6.705e-7, 5.294e-7
0.061, -1.198e-6, -6.708e-7, 5.270e-7
0.060, -1.199e-6, -6.711e-7, 5.276e-7
0.059, -1.193e-6, -6.687e-7, 5.248e-7
0.058, -1.193e-6, -6.687e-7, 5.239e-7
0.057, -1.193e-6, -6.671e-7, 5.263e-7
0.056, -1.189e-6, -6.665e-7, 5.221e-7
0.055, -1.186e-6, -6.665e-7, 5.196e-7
0.054, -1.186e-6, -6.641e-7, 5.218e-7
0.053, -1.186e-6, -6.638e-7, 5.224e-7
0.052, -1.181e-6, -6.638e-7, 5.172e-7
0.051, -1.183e-6, -6.629e-7, 5.199e-7
0.050, -1.177e-6, -6.592e-7, 5.175e-7
0.049, -1.179e-6, -6.626e-7, 5.163e-7
0.048, -1.176e-6, -6.586e-7, 5.178e-7
0.047, -1.172e-6, -6.577e-7, 5.144e-7
0.046, -1.170e-6, -6.589e-7, 5.111e-7
0.045, -1.172e-6, -6.577e-7, 5.144e-7
0.044, -1.169e-6, -6.549e-7, 5.144e-7
0.043, -1.165e-6, -6.555e-7, 5.093e-7
0.042, -1.167e-6, -6.537e-7, 5.135e-7
0.041, -1.164e-6, -6.525e-7, 5.111e-7
0.040, -1.162e-6, -6.537e-7, 5.080e-7
0.039, -1.160e-6, -6.516e-7, 5.086e-7
0.038, -1.160e-6, -6.500e-7, 5.102e-7
0.037, -1.159e-6, -6.516e-7, 5.077e-7
0.036, -1.157e-6, -6.482e-7, 5.083e-7
0.035, -1.156e-6, -6.485e-7, 5.074e-7
0.034, -1.154e-6, -6.485e-7, 5.059e-7
0.033, -1.152e-6, -6.467e-7, 5.050e-7
0.032, -1.149e-6, -6.452e-7, 5.038e-7
0.031, -1.149e-6, -6.461e-7, 5.025e-7
0.030, -1.149e-6, -6.442e-7, 5.044e-7
0.029, -1.144e-6, -6.424e-7, 5.016e-7
0.028, -1.145e-6, -6.436e-7, 5.013e-7
0.027, -1.146e-6, -6.436e-7, 5.022e-7
0.026, -1.140e-6, -6.397e-7, 5.001e-7
0.025, -1.140e-6, -6.412e-7, 4.989e-7
0.024, -1.139e-6, -6.391e-7, 4.998e-7
0.023, -1.137e-6, -6.375e-7, 4.992e-7
0.022, -1.138e-6, -6.397e-7, 4.980e-7
0.021, -1.135e-6, -6.378e-7, 4.974e-7
0.020, -1.133e-6, -6.360e-7, 4.967e-7
0.019, -1.130e-6, -6.363e-7, 4.937e-7
0.018, -1.134e-6, -6.345e-7, 4.998e-7
0.017, -1.130e-6, -6.336e-7, 4.964e-7
0.016, -1.126e-6, -6.330e-7, 4.928e-7
0.015, -1.132e-6, -6.336e-7, 4.986e-7
0.014, -1.127e-6, -6.314e-7, 4.952e-7
0.013, -1.124e-6, -6.308e-7, 4.928e-7
0.012, -1.126e-6, -6.314e-7, 4.943e-7
0.011, -1.120e-6, -6.275e-7, 4.922e-7
0.010, -1.121e-6, -6.299e-7, 4.906e-7
0.009, -1.119e-6, -6.262e-7, 4.931e-7
0.008, -1.118e-6, -6.272e-7, 4.906e-7
0.007, -1.118e-6, -6.275e-7, 4.906e-7
0.006, -1.114e-6, -6.238e-7, 4.906e-7
0.005, -1.114e-6, -6.226e-7, 4.909e-7
0.004, -1.115e-6, -6.238e-7, 4.916e-7
0.003, -1.113e-6, -6.223e-7, 4.903e-7
0.002, -1.111e-6, -6.217e-7, 4.897e-7
0.001, -1.112e-6, -6.226e-7, 4.894e-7
-0.000, -1.108e-6, -6.192e-7, 4.891e-7
-0.001, -1.107e-6, -6.183e-7, 4.882e-7
-0.002, -1.106e-6, -6.192e-7, 4.864e-7
-0.003, -1.104e-6, -6.168e-7, 4.876e-7
-0.004, -1.099e-6, -6.149e-7, 4.839e-7
-0.005, -1.102e-6, -6.168e-7, 4.848e-7
-0.006, -1.101e-6, -6.146e-7, 4.867e-7
-0.007, -1.098e-6, -6.128e-7, 4.848e-7
-0.008, -1.097e-6, -6.137e-7, 4.836e-7
-0.009, -1.097e-6, -6.122e-7, 4.851e-7
-0.010, -1.094e-6, -6.104e-7, 4.839e-7
-0.011, -1.093e-6, -6.116e-7, 4.815e-7
-0.012, -1.094e-6, -6.107e-7, 4.830e-7
-0.013, -1.090e-6, -6.082e-7, 4.821e-7
-0.014, -1.089e-6, -6.082e-7, 4.806e-7
-0.015, -1.089e-6, -6.085e-7, 4.806e-7
-0.016, -1.084e-6, -6.043e-7, 4.800e-7
-0.017, -1.084e-6, -6.055e-7, 4.781e-7
-0.018, -1.084e-6, -6.037e-7, 4.803e-7
-0.019, -1.083e-6, -6.027e-7, 4.806e-7
-0.020, -1.085e-6, -6.052e-7, 4.800e-7
-0.021, -1.082e-6, -6.024e-7, 4.793e-7
-0.022, -1.080e-6, -5.997e-7, 4.803e-7
-0.023, -1.080e-6, -6.012e-7, 4.784e-7
-0.024, -1.080e-6, -6.015e-7, 4.781e-7
-0.025, -1.075e-6, -5.985e-7, 4.769e-7
-0.026, -1.074e-6, -5.982e-7, 4.760e-7
-0.027, -1.074e-6, -5.972e-7, 4.769e-7
-0.028, -1.075e-6, -5.976e-7, 4.775e-7
-0.029, -1.073e-6, -5.960e-7, 4.766e-7
-0.030, -1.070e-6, -5.942e-7, 4.763e-7
-0.031, -1.069e-6, -5.936e-7, 4.757e-7
-0.032, -1.067e-6, -5.936e-7, 4.736e-7
-0.033, -1.067e-6, -5.921e-7, 4.745e-7
-0.034, -1.065e-6, -5.911e-7, 4.736e-7
-0.035, -1.064e-6, -5.911e-7, 4.726e-7
-0.036, -1.062e-6, -5.899e-7, 4.723e-7
-0.037, -1.061e-6, -5.878e-7, 4.732e-7
-0.038, -1.062e-6, -5.896e-7, 4.726e-7
-0.039, -1.058e-6, -5.866e-7, 4.714e-7
-0.040, -1.058e-6, -5.869e-7, 4.714e-7
-0.041, -1.056e-6, -5.860e-7, 4.702e-7
-0.042, -1.056e-6, -5.841e-7, 4.723e-7
-0.043, -1.052e-6, -5.823e-7, 4.693e-7
-0.044, -1.053e-6, -5.838e-7, 4.696e-7
-0.045, -1.051e-6, -5.820e-7, 4.690e-7
-0.046, -1.050e-6, -5.826e-7, 4.678e-7
-0.047, -1.051e-6, -5.820e-7, 4.687e-7
-0.048, -1.046e-6, -5.789e-7, 4.674e-7
-0.049, -1.046e-6, -5.777e-7, 4.687e-7
-0.050, -1.045e-6, -5.789e-7, 4.656e-7
