Feb. 28, 2018   11:21:37
Square Wave Voltammetry
File: c:\users\electrochemist\desktop\2018\28022018_unbuffered_9,2\8_e6_9,2_0118_ph4,47_5.txt
Data Source:  Experiment
Instrument Model:  CHI1040A
Header: 
Note: 

Init E (V) = 0.5
Final E (V) = -0.05
Incr E (V) = 0.001
Amplitude (V) = 0.1
Frequency (Hz) = 150
Quiet Time (sec) = 0
Sensitivity (A/V) = 1e-6

Difference:

Forward:

Reverse:

Potential/V, Diff(i/A), For(i/A), Rev(i/A)

0.499, -7.983e-7, -2.015e-7, 5.968e-7
0.498, -1.023e-6, -5.014e-7, 5.218e-7
0.497, -1.014e-6, -5.185e-7, 4.952e-7
0.496, -1.015e-6, -5.283e-7, 4.864e-7
0.495, -1.009e-6, -5.310e-7, 4.778e-7
0.494, -1.010e-6, -5.365e-7, 4.736e-7
0.493, -1.006e-6, -5.393e-7, 4.668e-7
0.492, -1.005e-6, -5.414e-7, 4.638e-7
0.491, -1.004e-6, -5.445e-7, 4.595e-7
0.490, -1.005e-6, -5.463e-7, 4.592e-7
0.489, -1.005e-6, -5.487e-7, 4.568e-7
0.488, -1.004e-6, -5.496e-7, 4.543e-7
0.487, -1.005e-6, -5.521e-7, 4.528e-7
0.486, -1.004e-6, -5.533e-7, 4.507e-7
0.485, -1.006e-6, -5.554e-7, 4.504e-7
0.484, -1.005e-6, -5.576e-7, 4.473e-7
0.483, -1.003e-6, -5.579e-7, 4.452e-7
0.482, -1.007e-6, -5.591e-7, 4.482e-7
0.481, -1.009e-6, -5.637e-7, 4.455e-7
0.480, -1.010e-6, -5.637e-7, 4.461e-7
0.479, -1.012e-6, -5.670e-7, 4.446e-7
0.478, -1.014e-6, -5.683e-7, 4.461e-7
0.477, -1.013e-6, -5.673e-7, 4.455e-7
0.476, -1.016e-6, -5.704e-7, 4.452e-7
0.475, -1.017e-6, -5.731e-7, 4.436e-7
0.474, -1.016e-6, -5.722e-7, 4.443e-7
0.473, -1.019e-6, -5.759e-7, 4.430e-7
0.472, -1.021e-6, -5.771e-7, 4.440e-7
0.471, -1.021e-6, -5.771e-7, 4.440e-7
0.470, -1.024e-6, -5.802e-7, 4.440e-7
0.469, -1.025e-6, -5.811e-7, 4.440e-7
0.468, -1.027e-6, -5.832e-7, 4.440e-7
0.467, -1.028e-6, -5.832e-7, 4.446e-7
0.466, -1.029e-6, -5.863e-7, 4.427e-7
0.465, -1.034e-6, -5.878e-7, 4.458e-7
0.464, -1.034e-6, -5.902e-7, 4.433e-7
0.463, -1.036e-6, -5.896e-7, 4.461e-7
0.462, -1.036e-6, -5.911e-7, 4.446e-7
0.461, -1.038e-6, -5.942e-7, 4.436e-7
0.460, -1.043e-6, -5.960e-7, 4.470e-7
0.459, -1.041e-6, -5.966e-7, 4.443e-7
0.458, -1.047e-6, -6.012e-7, 4.458e-7
0.457, -1.047e-6, -6.015e-7, 4.458e-7
0.456, -1.048e-6, -6.018e-7, 4.461e-7
0.455, -1.048e-6, -6.033e-7, 4.446e-7
0.454, -1.052e-6, -6.046e-7, 4.479e-7
0.453, -1.056e-6, -6.079e-7, 4.476e-7
0.452, -1.058e-6, -6.101e-7, 4.476e-7
0.451, -1.061e-6, -6.125e-7, 4.485e-7
0.450, -1.060e-6, -6.116e-7, 4.488e-7
0.449, -1.065e-6, -6.156e-7, 4.491e-7
0.448, -1.066e-6, -6.180e-7, 4.476e-7
0.447, -1.068e-6, -6.171e-7, 4.507e-7
0.446, -1.072e-6, -6.214e-7, 4.510e-7
0.445, -1.073e-6, -6.210e-7, 4.519e-7
0.444, -1.075e-6, -6.229e-7, 4.519e-7
0.443, -1.076e-6, -6.259e-7, 4.498e-7
0.442, -1.078e-6, -6.278e-7, 4.507e-7
0.441, -1.083e-6, -6.284e-7, 4.546e-7
0.440, -1.086e-6, -6.336e-7, 4.522e-7
0.439, -1.090e-6, -6.351e-7, 4.549e-7
0.438, -1.085e-6, -6.329e-7, 4.522e-7
0.437, -1.090e-6, -6.372e-7, 4.531e-7
0.436, -1.095e-6, -6.387e-7, 4.559e-7
0.435, -1.096e-6, -6.397e-7, 4.568e-7
0.434, -1.099e-6, -6.442e-7, 4.549e-7
0.433, -1.102e-6, -6.445e-7, 4.574e-7
0.432, -1.105e-6, -6.464e-7, 4.583e-7
0.431, -1.110e-6, -6.516e-7, 4.586e-7
0.430, -1.111e-6, -6.510e-7, 4.598e-7
0.429, -1.111e-6, -6.528e-7, 4.586e-7
0.428, -1.116e-6, -6.561e-7, 4.601e-7
0.427, -1.119e-6, -6.580e-7, 4.613e-7
0.426, -1.117e-6, -6.561e-7, 4.607e-7
0.425, -1.124e-6, -6.616e-7, 4.623e-7
0.424, -1.125e-6, -6.619e-7, 4.635e-7
0.423, -1.129e-6, -6.644e-7, 4.644e-7
0.422, -1.132e-6, -6.687e-7, 4.638e-7
0.421, -1.136e-6, -6.693e-7, 4.668e-7
0.420, -1.136e-6, -6.699e-7, 4.662e-7
0.419, -1.140e-6, -6.741e-7, 4.659e-7
0.418, -1.144e-6, -6.754e-7, 4.684e-7
0.417, -1.143e-6, -6.751e-7, 4.684e-7
0.416, -1.148e-6, -6.796e-7, 4.681e-7
0.415, -1.150e-6, -6.806e-7, 4.696e-7
0.414, -1.154e-6, -6.821e-7, 4.720e-7
0.413, -1.156e-6, -6.860e-7, 4.702e-7
0.412, -1.161e-6, -6.876e-7, 4.736e-7
0.411, -1.162e-6, -6.894e-7, 4.726e-7
0.410, -1.164e-6, -6.925e-7, 4.711e-7
0.409, -1.169e-6, -6.946e-7, 4.745e-7
0.408, -1.171e-6, -6.955e-7, 4.751e-7
0.407, -1.173e-6, -6.986e-7, 4.748e-7
0.406, -1.179e-6, -7.007e-7, 4.778e-7
0.405, -1.181e-6, -7.028e-7, 4.778e-7
0.404, -1.185e-6, -7.074e-7, 4.772e-7
0.403, -1.187e-6, -7.074e-7, 4.794e-7
0.402, -1.189e-6, -7.089e-7, 4.800e-7
0.401, -1.190e-6, -7.120e-7, 4.781e-7
0.400, -1.197e-6, -7.144e-7, 4.827e-7
0.399, -1.196e-6, -7.150e-7, 4.812e-7
0.398, -1.204e-6, -7.208e-7, 4.827e-7
0.397, -1.208e-6, -7.233e-7, 4.848e-7
0.396, -1.206e-6, -7.214e-7, 4.845e-7
0.395, -1.210e-6, -7.257e-7, 4.845e-7
0.394, -1.216e-6, -7.279e-7, 4.879e-7
0.393, -1.221e-6, -7.303e-7, 4.906e-7
0.392, -1.224e-6, -7.343e-7, 4.894e-7
0.391, -1.225e-6, -7.343e-7, 4.903e-7
0.390, -1.225e-6, -7.358e-7, 4.894e-7
0.389, -1.232e-6, -7.398e-7, 4.922e-7
0.388, -1.234e-6, -7.410e-7, 4.934e-7
0.387, -1.237e-6, -7.431e-7, 4.934e-7
0.386, -1.245e-6, -7.486e-7, 4.967e-7
0.385, -1.243e-6, -7.486e-7, 4.943e-7
0.384, -1.247e-6, -7.492e-7, 4.974e-7
0.383, -1.251e-6, -7.541e-7, 4.974e-7
0.382, -1.255e-6, -7.556e-7, 4.992e-7
0.381, -1.258e-6, -7.584e-7, 5.001e-7
0.380, -1.262e-6, -7.626e-7, 4.989e-7
0.379, -1.268e-6, -7.645e-7, 5.038e-7
0.378, -1.267e-6, -7.645e-7, 5.022e-7
0.377, -1.272e-6, -7.675e-7, 5.041e-7
0.376, -1.276e-6, -7.697e-7, 5.059e-7
0.375, -1.280e-6, -7.727e-7, 5.077e-7
0.374, -1.281e-6, -7.745e-7, 5.068e-7
0.373, -1.288e-6, -7.779e-7, 5.099e-7
0.372, -1.287e-6, -7.791e-7, 5.077e-7
0.371, -1.294e-6, -7.828e-7, 5.117e-7
0.370, -1.296e-6, -7.846e-7, 5.111e-7
0.369, -1.298e-6, -7.855e-7, 5.129e-7
0.368, -1.302e-6, -7.892e-7, 5.132e-7
0.367, -1.305e-6, -7.901e-7, 5.148e-7
0.366, -1.309e-6, -7.935e-7, 5.160e-7
0.365, -1.313e-6, -7.959e-7, 5.169e-7
0.364, -1.314e-6, -7.950e-7, 5.193e-7
0.363, -1.320e-6, -7.993e-7, 5.205e-7
0.362, -1.323e-6, -8.017e-7, 5.218e-7
0.361, -1.328e-6, -8.044e-7, 5.233e-7
0.360, -1.331e-6, -8.075e-7, 5.236e-7
0.359, -1.333e-6, -8.087e-7, 5.239e-7
0.358, -1.336e-6, -8.096e-7, 5.263e-7
0.357, -1.339e-6, -8.124e-7, 5.267e-7
0.356, -1.345e-6, -8.173e-7, 5.279e-7
0.355, -1.349e-6, -8.173e-7, 5.321e-7
0.354, -1.352e-6, -8.200e-7, 5.324e-7
0.353, -1.357e-6, -8.264e-7, 5.306e-7
0.352, -1.359e-6, -8.252e-7, 5.343e-7
0.351, -1.363e-6, -8.270e-7, 5.361e-7
0.350, -1.364e-6, -8.289e-7, 5.352e-7
0.349, -1.369e-6, -8.322e-7, 5.367e-7
0.348, -1.370e-6, -8.325e-7, 5.370e-7
0.347, -1.376e-6, -8.362e-7, 5.398e-7
0.346, -1.378e-6, -8.383e-7, 5.395e-7
0.345, -1.382e-6, -8.405e-7, 5.416e-7
0.344, -1.385e-6, -8.420e-7, 5.434e-7
0.343, -1.389e-6, -8.450e-7, 5.444e-7
0.342, -1.391e-6, -8.459e-7, 5.450e-7
0.341, -1.393e-6, -8.490e-7, 5.444e-7
0.340, -1.400e-6, -8.508e-7, 5.489e-7
0.339, -1.403e-6, -8.527e-7, 5.508e-7
0.338, -1.404e-6, -8.560e-7, 5.483e-7
0.337, -1.410e-6, -8.582e-7, 5.523e-7
0.336, -1.408e-6, -8.557e-7, 5.526e-7
0.335, -1.413e-6, -8.600e-7, 5.529e-7
0.334, -1.415e-6, -8.609e-7, 5.544e-7
0.333, -1.422e-6, -8.640e-7, 5.581e-7
0.332, -1.423e-6, -8.664e-7, 5.569e-7
0.331, -1.427e-6, -8.664e-7, 5.605e-7
0.330, -1.429e-6, -8.691e-7, 5.596e-7
0.329, -1.435e-6, -8.716e-7, 5.630e-7
0.328, -1.436e-6, -8.731e-7, 5.627e-7
0.327, -1.439e-6, -8.740e-7, 5.645e-7
0.326, -1.445e-6, -8.777e-7, 5.672e-7
0.325, -1.446e-6, -8.780e-7, 5.678e-7
0.324, -1.450e-6, -8.792e-7, 5.706e-7
0.323, -1.452e-6, -8.835e-7, 5.685e-7
0.322, -1.458e-6, -8.868e-7, 5.715e-7
0.321, -1.460e-6, -8.865e-7, 5.730e-7
0.320, -1.460e-6, -8.881e-7, 5.724e-7
0.319, -1.466e-6, -8.893e-7, 5.770e-7
0.318, -1.469e-6, -8.917e-7, 5.770e-7
0.317, -1.471e-6, -8.945e-7, 5.764e-7
0.316, -1.477e-6, -8.957e-7, 5.816e-7
0.315, -1.475e-6, -8.942e-7, 5.804e-7
0.314, -1.479e-6, -8.963e-7, 5.828e-7
0.313, -1.482e-6, -8.987e-7, 5.837e-7
0.312, -1.485e-6, -9.003e-7, 5.846e-7
0.311, -1.488e-6, -9.027e-7, 5.855e-7
0.310, -1.491e-6, -9.012e-7, 5.895e-7
0.309, -1.493e-6, -9.039e-7, 5.895e-7
0.308, -1.497e-6, -9.073e-7, 5.901e-7
0.307, -1.498e-6, -9.055e-7, 5.926e-7
0.306, -1.502e-6, -9.079e-7, 5.938e-7
0.305, -1.501e-6, -9.085e-7, 5.923e-7
0.304, -1.507e-6, -9.116e-7, 5.959e-7
0.303, -1.507e-6, -9.109e-7, 5.962e-7
0.302, -1.508e-6, -9.116e-7, 5.965e-7
0.301, -1.515e-6, -9.146e-7, 6.005e-7
0.300, -1.516e-6, -9.158e-7, 5.999e-7
0.299, -1.516e-6, -9.155e-7, 6.008e-7
0.298, -1.523e-6, -9.171e-7, 6.063e-7
0.297, -1.521e-6, -9.167e-7, 6.045e-7
0.296, -1.526e-6, -9.195e-7, 6.063e-7
0.295, -1.529e-6, -9.198e-7, 6.093e-7
0.294, -1.527e-6, -9.192e-7, 6.081e-7
0.293, -1.531e-6, -9.225e-7, 6.084e-7
0.292, -1.534e-6, -9.216e-7, 6.121e-7
0.291, -1.534e-6, -9.225e-7, 6.118e-7
0.290, -1.540e-6, -9.259e-7, 6.139e-7
0.289, -1.542e-6, -9.253e-7, 6.167e-7
0.288, -1.540e-6, -9.250e-7, 6.155e-7
0.287, -1.544e-6, -9.265e-7, 6.176e-7
0.286, -1.547e-6, -9.274e-7, 6.200e-7
0.285, -1.547e-6, -9.274e-7, 6.200e-7
0.284, -1.551e-6, -9.290e-7, 6.219e-7
0.283, -1.552e-6, -9.280e-7, 6.237e-7
0.282, -1.551e-6, -9.277e-7, 6.234e-7
0.281, -1.554e-6, -9.296e-7, 6.240e-7
0.280, -1.556e-6, -9.280e-7, 6.277e-7
0.279, -1.556e-6, -9.280e-7, 6.280e-7
0.278, -1.558e-6, -9.311e-7, 6.270e-7
0.277, -1.561e-6, -9.293e-7, 6.322e-7
0.276, -1.561e-6, -9.302e-7, 6.313e-7
0.275, -1.563e-6, -9.311e-7, 6.319e-7
0.274, -1.565e-6, -9.299e-7, 6.347e-7
0.273, -1.566e-6, -9.317e-7, 6.344e-7
0.272, -1.568e-6, -9.314e-7, 6.362e-7
0.271, -1.572e-6, -9.323e-7, 6.393e-7
0.270, -1.571e-6, -9.311e-7, 6.396e-7
0.269, -1.571e-6, -9.314e-7, 6.393e-7
0.268, -1.576e-6, -9.320e-7, 6.435e-7
0.267, -1.573e-6, -9.308e-7, 6.426e-7
0.266, -1.576e-6, -9.329e-7, 6.429e-7
0.265, -1.574e-6, -9.317e-7, 6.426e-7
0.264, -1.579e-6, -9.317e-7, 6.469e-7
0.263, -1.581e-6, -9.317e-7, 6.490e-7
0.262, -1.583e-6, -9.335e-7, 6.493e-7
0.261, -1.580e-6, -9.308e-7, 6.490e-7
0.260, -1.580e-6, -9.320e-7, 6.484e-7
0.259, -1.580e-6, -9.302e-7, 6.502e-7
0.258, -1.582e-6, -9.299e-7, 6.518e-7
0.257, -1.581e-6, -9.296e-7, 6.512e-7
0.256, -1.582e-6, -9.286e-7, 6.530e-7
0.255, -1.583e-6, -9.280e-7, 6.551e-7
0.254, -1.583e-6, -9.280e-7, 6.548e-7
0.253, -1.585e-6, -9.265e-7, 6.585e-7
0.252, -1.582e-6, -9.262e-7, 6.560e-7
0.251, -1.587e-6, -9.286e-7, 6.579e-7
0.250, -1.583e-6, -9.238e-7, 6.594e-7
0.249, -1.584e-6, -9.250e-7, 6.588e-7
0.248, -1.586e-6, -9.256e-7, 6.600e-7
0.247, -1.585e-6, -9.228e-7, 6.624e-7
0.246, -1.585e-6, -9.225e-7, 6.621e-7
0.245, -1.588e-6, -9.250e-7, 6.628e-7
0.244, -1.586e-6, -9.207e-7, 6.655e-7
0.243, -1.586e-6, -9.204e-7, 6.655e-7
0.242, -1.587e-6, -9.216e-7, 6.652e-7
0.241, -1.590e-6, -9.195e-7, 6.704e-7
0.240, -1.586e-6, -9.183e-7, 6.673e-7
0.239, -1.585e-6, -9.183e-7, 6.667e-7
0.238, -1.586e-6, -9.174e-7, 6.689e-7
0.237, -1.585e-6, -9.137e-7, 6.710e-7
0.236, -1.586e-6, -9.158e-7, 6.698e-7
0.235, -1.584e-6, -9.140e-7, 6.701e-7
0.234, -1.579e-6, -9.100e-7, 6.689e-7
0.233, -1.583e-6, -9.131e-7, 6.695e-7
0.232, -1.583e-6, -9.094e-7, 6.734e-7
0.231, -1.579e-6, -9.079e-7, 6.713e-7
0.230, -1.578e-6, -9.064e-7, 6.713e-7
0.229, -1.581e-6, -9.064e-7, 6.743e-7
0.228, -1.579e-6, -9.052e-7, 6.740e-7
0.227, -1.578e-6, -9.048e-7, 6.734e-7
0.226, -1.576e-6, -9.012e-7, 6.747e-7
0.225, -1.579e-6, -9.030e-7, 6.759e-7
0.224, -1.576e-6, -9.006e-7, 6.753e-7
0.223, -1.575e-6, -8.978e-7, 6.771e-7
0.222, -1.576e-6, -8.990e-7, 6.768e-7
0.221, -1.572e-6, -8.960e-7, 6.762e-7
0.220, -1.573e-6, -8.957e-7, 6.774e-7
0.219, -1.570e-6, -8.939e-7, 6.762e-7
0.218, -1.571e-6, -8.945e-7, 6.768e-7
0.217, -1.572e-6, -8.905e-7, 6.817e-7
0.216, -1.569e-6, -8.905e-7, 6.780e-7
0.215, -1.567e-6, -8.890e-7, 6.780e-7
0.214, -1.565e-6, -8.859e-7, 6.792e-7
0.213, -1.564e-6, -8.853e-7, 6.789e-7
0.212, -1.561e-6, -8.847e-7, 6.768e-7
0.211, -1.561e-6, -8.823e-7, 6.786e-7
0.210, -1.558e-6, -8.798e-7, 6.786e-7
0.209, -1.560e-6, -8.817e-7, 6.780e-7
0.208, -1.559e-6, -8.771e-7, 6.817e-7
0.207, -1.556e-6, -8.765e-7, 6.798e-7
0.206, -1.555e-6, -8.749e-7, 6.798e-7
0.205, -1.553e-6, -8.731e-7, 6.798e-7
0.204, -1.552e-6, -8.722e-7, 6.798e-7
0.203, -1.548e-6, -8.704e-7, 6.777e-7
0.202, -1.550e-6, -8.698e-7, 6.804e-7
0.201, -1.545e-6, -8.661e-7, 6.789e-7
0.200, -1.542e-6, -8.646e-7, 6.777e-7
0.199, -1.543e-6, -8.636e-7, 6.792e-7
0.198, -1.540e-6, -8.621e-7, 6.777e-7
0.197, -1.540e-6, -8.606e-7, 6.789e-7
0.196, -1.536e-6, -8.579e-7, 6.786e-7
0.195, -1.533e-6, -8.569e-7, 6.762e-7
0.194, -1.534e-6, -8.560e-7, 6.780e-7
0.193, -1.533e-6, -8.536e-7, 6.795e-7
0.192, -1.527e-6, -8.505e-7, 6.768e-7
0.191, -1.526e-6, -8.505e-7, 6.759e-7
0.190, -1.526e-6, -8.481e-7, 6.783e-7
0.189, -1.521e-6, -8.466e-7, 6.747e-7
0.188, -1.518e-6, -8.435e-7, 6.743e-7
0.187, -1.521e-6, -8.438e-7, 6.771e-7
0.186, -1.517e-6, -8.429e-7, 6.740e-7
0.185, -1.515e-6, -8.408e-7, 6.740e-7
0.184, -1.514e-6, -8.398e-7, 6.743e-7
0.183, -1.507e-6, -8.350e-7, 6.725e-7
0.182, -1.509e-6, -8.356e-7, 6.734e-7
0.181, -1.503e-6, -8.313e-7, 6.716e-7
0.180, -1.502e-6, -8.295e-7, 6.722e-7
0.179, -1.500e-6, -8.289e-7, 6.707e-7
0.178, -1.500e-6, -8.279e-7, 6.716e-7
0.177, -1.498e-6, -8.258e-7, 6.722e-7
0.176, -1.493e-6, -8.249e-7, 6.682e-7
0.175, -1.490e-6, -8.212e-7, 6.685e-7
0.174, -1.486e-6, -8.200e-7, 6.664e-7
0.173, -1.485e-6, -8.203e-7, 6.649e-7
0.172, -1.482e-6, -8.170e-7, 6.655e-7
0.171, -1.482e-6, -8.154e-7, 6.670e-7
0.170, -1.481e-6, -8.154e-7, 6.652e-7
0.169, -1.477e-6, -8.124e-7, 6.649e-7
0.168, -1.473e-6, -8.099e-7, 6.631e-7
0.167, -1.471e-6, -8.106e-7, 6.609e-7
0.166, -1.471e-6, -8.081e-7, 6.624e-7
0.165, -1.466e-6, -8.041e-7, 6.618e-7
0.164, -1.464e-6, -8.057e-7, 6.585e-7
0.163, -1.459e-6, -8.008e-7, 6.585e-7
0.162, -1.456e-6, -7.993e-7, 6.570e-7
0.161, -1.458e-6, -8.002e-7, 6.576e-7
0.160, -1.455e-6, -7.980e-7, 6.573e-7
0.159, -1.450e-6, -7.959e-7, 6.542e-7
0.158, -1.447e-6, -7.947e-7, 6.527e-7
0.157, -1.445e-6, -7.916e-7, 6.533e-7
0.156, -1.442e-6, -7.907e-7, 6.515e-7
0.155, -1.442e-6, -7.922e-7, 6.496e-7
0.154, -1.436e-6, -7.864e-7, 6.493e-7
0.153, -1.434e-6, -7.861e-7, 6.475e-7
0.152, -1.430e-6, -7.849e-7, 6.454e-7
0.151, -1.433e-6, -7.858e-7, 6.475e-7
0.150, -1.429e-6, -7.834e-7, 6.457e-7
0.149, -1.424e-6, -7.813e-7, 6.429e-7
0.148, -1.422e-6, -7.788e-7, 6.435e-7
0.147, -1.419e-6, -7.764e-7, 6.429e-7
0.146, -1.417e-6, -7.773e-7, 6.399e-7
0.145, -1.416e-6, -7.764e-7, 6.399e-7
0.144, -1.413e-6, -7.736e-7, 6.399e-7
0.143, -1.410e-6, -7.727e-7, 6.374e-7
0.142, -1.406e-6, -7.697e-7, 6.362e-7
0.141, -1.403e-6, -7.694e-7, 6.331e-7
0.140, -1.400e-6, -7.684e-7, 6.313e-7
0.139, -1.397e-6, -7.645e-7, 6.325e-7
0.138, -1.393e-6, -7.626e-7, 6.301e-7
0.137, -1.394e-6, -7.629e-7, 6.310e-7
0.136, -1.389e-6, -7.602e-7, 6.292e-7
0.135, -1.386e-6, -7.599e-7, 6.261e-7
0.134, -1.385e-6, -7.593e-7, 6.258e-7
0.133, -1.382e-6, -7.568e-7, 6.252e-7
0.132, -1.376e-6, -7.550e-7, 6.209e-7
0.131, -1.377e-6, -7.538e-7, 6.231e-7
0.130, -1.375e-6, -7.538e-7, 6.216e-7
0.129, -1.372e-6, -7.517e-7, 6.203e-7
0.128, -1.368e-6, -7.510e-7, 6.167e-7
0.127, -1.365e-6, -7.480e-7, 6.173e-7
0.126, -1.362e-6, -7.474e-7, 6.148e-7
0.125, -1.363e-6, -7.483e-7, 6.145e-7
0.124, -1.359e-6, -7.449e-7, 6.136e-7
0.123, -1.355e-6, -7.434e-7, 6.112e-7
0.122, -1.352e-6, -7.434e-7, 6.087e-7
0.121, -1.351e-6, -7.401e-7, 6.106e-7
0.120, -1.347e-6, -7.379e-7, 6.090e-7
0.119, -1.347e-6, -7.388e-7, 6.078e-7
0.118, -1.341e-6, -7.361e-7, 6.054e-7
0.117, -1.338e-6, -7.364e-7, 6.020e-7
0.116, -1.338e-6, -7.364e-7, 6.017e-7
0.115, -1.334e-6, -7.324e-7, 6.017e-7
0.114, -1.333e-6, -7.327e-7, 5.999e-7
0.113, -1.331e-6, -7.324e-7, 5.990e-7
0.112, -1.329e-6, -7.312e-7, 5.974e-7
0.111, -1.323e-6, -7.294e-7, 5.935e-7
0.110, -1.323e-6, -7.297e-7, 5.932e-7
0.109, -1.320e-6, -7.263e-7, 5.938e-7
0.108, -1.318e-6, -7.263e-7, 5.913e-7
0.107, -1.314e-6, -7.251e-7, 5.892e-7
0.106, -1.312e-6, -7.236e-7, 5.880e-7
0.105, -1.308e-6, -7.208e-7, 5.874e-7
0.104, -1.308e-6, -7.224e-7, 5.855e-7
0.103, -1.305e-6, -7.196e-7, 5.858e-7
0.102, -1.302e-6, -7.190e-7, 5.828e-7
0.101, -1.301e-6, -7.190e-7, 5.825e-7
0.100, -1.299e-6, -7.169e-7, 5.822e-7
0.099, -1.295e-6, -7.166e-7, 5.788e-7
0.098, -1.294e-6, -7.156e-7, 5.788e-7
0.097, -1.290e-6, -7.114e-7, 5.782e-7
0.096, -1.287e-6, -7.120e-7, 5.749e-7
0.095, -1.285e-6, -7.111e-7, 5.739e-7
0.094, -1.286e-6, -7.099e-7, 5.758e-7
0.093, -1.280e-6, -7.086e-7, 5.718e-7
0.092, -1.279e-6, -7.077e-7, 5.709e-7
0.091, -1.276e-6, -7.062e-7, 5.700e-7
0.090, -1.273e-6, -7.056e-7, 5.669e-7
0.089, -1.270e-6, -7.056e-7, 5.645e-7
0.088, -1.269e-6, -7.028e-7, 5.666e-7
0.087, -1.266e-6, -7.028e-7, 5.633e-7
0.086, -1.264e-6, -7.016e-7, 5.627e-7
0.085, -1.262e-6, -6.998e-7, 5.627e-7
0.084, -1.256e-6, -6.961e-7, 5.599e-7
0.083, -1.256e-6, -6.976e-7, 5.587e-7
0.082, -1.257e-6, -6.976e-7, 5.593e-7
0.081, -1.253e-6, -6.967e-7, 5.559e-7
0.080, -1.250e-6, -6.949e-7, 5.547e-7
0.079, -1.248e-6, -6.946e-7, 5.538e-7
0.078, -1.244e-6, -6.909e-7, 5.532e-7
0.077, -1.242e-6, -6.915e-7, 5.508e-7
0.076, -1.243e-6, -6.915e-7, 5.514e-7
0.075, -1.241e-6, -6.900e-7, 5.514e-7
0.074, -1.237e-6, -6.885e-7, 5.486e-7
0.073, -1.237e-6, -6.882e-7, 5.489e-7
0.072, -1.233e-6, -6.860e-7, 5.465e-7
0.071, -1.232e-6, -6.882e-7, 5.437e-7
0.070, -1.231e-6, -6.845e-7, 5.468e-7
0.069, -1.230e-6, -6.860e-7, 5.443e-7
0.068, -1.225e-6, -6.839e-7, 5.410e-7
0.067, -1.222e-6, -6.821e-7, 5.404e-7
0.066, -1.219e-6, -6.806e-7, 5.389e-7
0.065, -1.220e-6, -6.799e-7, 5.398e-7
0.064, -1.219e-6, -6.790e-7, 5.404e-7
0.063, -1.216e-6, -6.790e-7, 5.373e-7
0.062, -1.212e-6, -6.772e-7, 5.352e-7
0.061, -1.211e-6, -6.751e-7, 5.358e-7
0.060, -1.209e-6, -6.751e-7, 5.340e-7
0.059, -1.209e-6, -6.760e-7, 5.334e-7
0.058, -1.208e-6, -6.741e-7, 5.340e-7
0.057, -1.204e-6, -6.723e-7, 5.318e-7
0.056, -1.202e-6, -6.711e-7, 5.306e-7
0.055, -1.199e-6, -6.711e-7, 5.282e-7
0.054, -1.199e-6, -6.693e-7, 5.294e-7
0.053, -1.197e-6, -6.696e-7, 5.279e-7
0.052, -1.196e-6, -6.677e-7, 5.285e-7
0.051, -1.193e-6, -6.671e-7, 5.254e-7
0.050, -1.193e-6, -6.671e-7, 5.254e-7
0.049, -1.187e-6, -6.641e-7, 5.233e-7
0.048, -1.188e-6, -6.644e-7, 5.236e-7
0.047, -1.186e-6, -6.632e-7, 5.230e-7
0.046, -1.185e-6, -6.619e-7, 5.230e-7
0.045, -1.182e-6, -6.616e-7, 5.202e-7
0.044, -1.181e-6, -6.607e-7, 5.199e-7
0.043, -1.178e-6, -6.592e-7, 5.184e-7
0.042, -1.176e-6, -6.586e-7, 5.178e-7
0.041, -1.174e-6, -6.571e-7, 5.169e-7
0.040, -1.174e-6, -6.571e-7, 5.166e-7
0.039, -1.170e-6, -6.549e-7, 5.154e-7
0.038, -1.168e-6, -6.546e-7, 5.138e-7
0.037, -1.169e-6, -6.534e-7, 5.154e-7
0.036, -1.167e-6, -6.522e-7, 5.144e-7
0.035, -1.163e-6, -6.507e-7, 5.123e-7
0.034, -1.165e-6, -6.519e-7, 5.132e-7
0.033, -1.159e-6, -6.494e-7, 5.093e-7
0.032, -1.161e-6, -6.503e-7, 5.111e-7
0.031, -1.160e-6, -6.476e-7, 5.123e-7
0.030, -1.156e-6, -6.476e-7, 5.086e-7
0.029, -1.154e-6, -6.470e-7, 5.068e-7
0.028, -1.153e-6, -6.445e-7, 5.083e-7
0.027, -1.150e-6, -6.433e-7, 5.068e-7
0.026, -1.150e-6, -6.442e-7, 5.059e-7
0.025, -1.148e-6, -6.415e-7, 5.062e-7
0.024, -1.146e-6, -6.418e-7, 5.044e-7
0.023, -1.144e-6, -6.406e-7, 5.035e-7
0.022, -1.144e-6, -6.391e-7, 5.053e-7
0.021, -1.143e-6, -6.384e-7, 5.044e-7
0.020, -1.139e-6, -6.378e-7, 5.010e-7
0.019, -1.141e-6, -6.378e-7, 5.032e-7
0.018, -1.139e-6, -6.369e-7, 5.019e-7
0.017, -1.137e-6, -6.363e-7, 5.004e-7
0.016, -1.135e-6, -6.339e-7, 5.013e-7
0.015, -1.134e-6, -6.351e-7, 4.992e-7
0.014, -1.134e-6, -6.333e-7, 5.004e-7
0.013, -1.131e-6, -6.317e-7, 4.992e-7
0.012, -1.129e-6, -6.317e-7, 4.977e-7
0.011, -1.127e-6, -6.299e-7, 4.967e-7
0.010, -1.124e-6, -6.275e-7, 4.967e-7
0.009, -1.123e-6, -6.278e-7, 4.955e-7
0.008, -1.120e-6, -6.256e-7, 4.946e-7
0.007, -1.121e-6, -6.256e-7, 4.952e-7
0.006, -1.118e-6, -6.259e-7, 4.922e-7
0.005, -1.117e-6, -6.250e-7, 4.922e-7
0.004, -1.116e-6, -6.223e-7, 4.934e-7
0.003, -1.115e-6, -6.214e-7, 4.934e-7
0.002, -1.114e-6, -6.217e-7, 4.922e-7
0.001, -1.113e-6, -6.207e-7, 4.925e-7
-0.000, -1.113e-6, -6.211e-7, 4.916e-7
-0.001, -1.110e-6, -6.198e-7, 4.900e-7
-0.002, -1.110e-6, -6.174e-7, 4.922e-7
-0.003, -1.104e-6, -6.171e-7, 4.867e-7
-0.004, -1.106e-6, -6.171e-7, 4.885e-7
-0.005, -1.106e-6, -6.165e-7, 4.891e-7
-0.006, -1.104e-6, -6.153e-7, 4.888e-7
-0.007, -1.102e-6, -6.153e-7, 4.870e-7
-0.008, -1.100e-6, -6.128e-7, 4.870e-7
-0.009, -1.098e-6, -6.125e-7, 4.858e-7
-0.010, -1.099e-6, -6.116e-7, 4.876e-7
-0.011, -1.098e-6, -6.110e-7, 4.867e-7
-0.012, -1.093e-6, -6.088e-7, 4.839e-7
-0.013, -1.093e-6, -6.076e-7, 4.851e-7
-0.014, -1.091e-6, -6.061e-7, 4.851e-7
-0.015, -1.090e-6, -6.076e-7, 4.827e-7
-0.016, -1.089e-6, -6.064e-7, 4.827e-7
-0.017, -1.089e-6, -6.046e-7, 4.848e-7
-0.018, -1.085e-6, -6.040e-7, 4.806e-7
-0.019, -1.086e-6, -6.046e-7, 4.815e-7
-0.020, -1.080e-6, -6.003e-7, 4.800e-7
-0.021, -1.081e-6, -6.015e-7, 4.797e-7
-0.022, -1.082e-6, -6.015e-7, 4.803e-7
-0.023, -1.079e-6, -5.988e-7, 4.800e-7
-0.024, -1.077e-6, -5.991e-7, 4.775e-7
-0.025, -1.076e-6, -5.976e-7, 4.784e-7
-0.026, -1.077e-6, -5.963e-7, 4.809e-7
-0.027, -1.073e-6, -5.963e-7, 4.769e-7
-0.028, -1.073e-6, -5.948e-7, 4.781e-7
-0.029, -1.071e-6, -5.927e-7, 4.781e-7
-0.030, -1.073e-6, -5.957e-7, 4.772e-7
-0.031, -1.070e-6, -5.948e-7, 4.751e-7
-0.032, -1.067e-6, -5.911e-7, 4.754e-7
-0.033, -1.065e-6, -5.905e-7, 4.748e-7
-0.034, -1.065e-6, -5.902e-7, 4.745e-7
-0.035, -1.064e-6, -5.893e-7, 4.748e-7
-0.036, -1.064e-6, -5.887e-7, 4.757e-7
-0.037, -1.063e-6, -5.902e-7, 4.726e-7
-0.038, -1.062e-6, -5.881e-7, 4.739e-7
-0.039, -1.059e-6, -5.866e-7, 4.720e-7
-0.040, -1.056e-6, -5.850e-7, 4.714e-7
-0.041, -1.056e-6, -5.844e-7, 4.717e-7
-0.042, -1.056e-6, -5.841e-7, 4.723e-7
-0.043, -1.054e-6, -5.826e-7, 4.714e-7
-0.044, -1.055e-6, -5.841e-7, 4.711e-7
-0.045, -1.053e-6, -5.814e-7, 4.717e-7
-0.046, -1.050e-6, -5.814e-7, 4.690e-7
-0.047, -1.049e-6, -5.786e-7, 4.699e-7
-0.048, -1.046e-6, -5.792e-7, 4.665e-7
-0.049, -1.046e-6, -5.777e-7, 4.681e-7
-0.050, -1.044e-6, -5.759e-7, 4.681e-7
