Mar. 20, 2018   11:47:31
Square Wave Voltammetry
File: c:\users\electrochemist\desktop\2018\20032018_unbufarray_unpap\9_g0_ph5,00_1.txt
Data Source:  Experiment
Instrument Model:  CHI1040A
Header: 
Note: 

Init E (V) = 0.7
Final E (V) = -0.4
Incr E (V) = 0.001
Amplitude (V) = 0.1
Frequency (Hz) = 152
Quiet Time (sec) = 2
Sensitivity (A/V) = 1e-5

Difference:

Forward:

Reverse:
Ep = -0.037V
ip = 6.130e-10A
Ah = 2.882e-10VA

Potential/V, Diff(i/A), For(i/A), Rev(i/A)

0.699, -1.422e-6, -5.041e-7, 9.179e-7
0.698, -1.724e-6, -9.039e-7, 8.202e-7
0.697, -1.721e-6, -9.314e-7, 7.897e-7
0.696, -1.721e-6, -9.466e-7, 7.745e-7
0.695, -1.715e-6, -9.466e-7, 7.684e-7
0.694, -1.718e-6, -9.497e-7, 7.684e-7
0.693, -1.715e-6, -9.527e-7, 7.623e-7
0.692, -1.709e-6, -9.497e-7, 7.592e-7
0.691, -1.709e-6, -9.527e-7, 7.562e-7
0.690, -1.718e-6, -9.619e-7, 7.562e-7
0.689, -1.712e-6, -9.527e-7, 7.592e-7
0.688, -1.703e-6, -9.558e-7, 7.470e-7
0.687, -1.709e-6, -9.619e-7, 7.470e-7
0.686, -1.706e-6, -9.588e-7, 7.470e-7
0.685, -1.700e-6, -9.588e-7, 7.409e-7
0.684, -1.703e-6, -9.588e-7, 7.439e-7
0.683, -1.700e-6, -9.588e-7, 7.409e-7
0.682, -1.703e-6, -9.649e-7, 7.378e-7
0.681, -1.700e-6, -9.588e-7, 7.409e-7
0.680, -1.691e-6, -9.558e-7, 7.348e-7
0.679, -1.703e-6, -9.619e-7, 7.409e-7
0.678, -1.697e-6, -9.588e-7, 7.378e-7
0.677, -1.703e-6, -9.710e-7, 7.317e-7
0.676, -1.706e-6, -9.710e-7, 7.348e-7
0.675, -1.700e-6, -9.649e-7, 7.348e-7
0.674, -1.700e-6, -9.710e-7, 7.287e-7
0.673, -1.706e-6, -9.741e-7, 7.317e-7
0.672, -1.700e-6, -9.680e-7, 7.317e-7
0.671, -1.697e-6, -9.710e-7, 7.256e-7
0.670, -1.709e-6, -9.771e-7, 7.317e-7
0.669, -1.700e-6, -9.710e-7, 7.287e-7
0.668, -1.694e-6, -9.741e-7, 7.195e-7
0.667, -1.706e-6, -9.741e-7, 7.317e-7
0.666, -1.700e-6, -9.710e-7, 7.287e-7
0.665, -1.700e-6, -9.741e-7, 7.256e-7
0.664, -1.709e-6, -9.802e-7, 7.287e-7
0.663, -1.703e-6, -9.802e-7, 7.226e-7
0.662, -1.703e-6, -9.802e-7, 7.226e-7
0.661, -1.703e-6, -9.771e-7, 7.256e-7
0.660, -1.700e-6, -9.771e-7, 7.226e-7
0.659, -1.706e-6, -9.832e-7, 7.226e-7
0.658, -1.694e-6, -9.771e-7, 7.165e-7
0.657, -1.706e-6, -9.832e-7, 7.226e-7
0.656, -1.709e-6, -9.863e-7, 7.226e-7
0.655, -1.700e-6, -9.832e-7, 7.165e-7
0.654, -1.706e-6, -9.894e-7, 7.165e-7
0.653, -1.712e-6, -9.894e-7, 7.226e-7
0.652, -1.712e-6, -9.894e-7, 7.226e-7
0.651, -1.709e-6, -9.924e-7, 7.165e-7
0.650, -1.712e-6, -9.894e-7, 7.226e-7
0.649, -1.712e-6, -9.924e-7, 7.195e-7
0.648, -1.706e-6, -9.955e-7, 7.104e-7
0.647, -1.718e-6, -9.955e-7, 7.226e-7
0.646, -1.709e-6, -9.924e-7, 7.165e-7
0.645, -1.715e-6, -9.985e-7, 7.165e-7
0.644, -1.721e-6, -9.955e-7, 7.256e-7
0.643, -1.715e-6, -9.955e-7, 7.195e-7
0.642, -1.727e-6, -1.005e-6, 7.226e-7
0.641, -1.718e-6, -9.985e-7, 7.195e-7
0.640, -1.715e-6, -1.002e-6, 7.134e-7
0.639, -1.724e-6, -1.005e-6, 7.195e-7
0.638, -1.715e-6, -9.985e-7, 7.165e-7
0.637, -1.727e-6, -1.008e-6, 7.195e-7
0.636, -1.730e-6, -1.008e-6, 7.226e-7
0.635, -1.724e-6, -1.008e-6, 7.165e-7
0.634, -1.727e-6, -1.011e-6, 7.165e-7
0.633, -1.730e-6, -1.011e-6, 7.195e-7
0.632, -1.727e-6, -1.008e-6, 7.195e-7
0.631, -1.730e-6, -1.017e-6, 7.134e-7
0.630, -1.739e-6, -1.014e-6, 7.256e-7
0.629, -1.736e-6, -1.017e-6, 7.195e-7
0.628, -1.736e-6, -1.020e-6, 7.165e-7
0.627, -1.736e-6, -1.014e-6, 7.226e-7
0.626, -1.739e-6, -1.023e-6, 7.165e-7
0.625, -1.739e-6, -1.026e-6, 7.134e-7
0.624, -1.742e-6, -1.020e-6, 7.226e-7
0.623, -1.742e-6, -1.023e-6, 7.195e-7
0.622, -1.749e-6, -1.026e-6, 7.226e-7
0.621, -1.749e-6, -1.023e-6, 7.256e-7
0.620, -1.758e-6, -1.032e-6, 7.256e-7
0.619, -1.752e-6, -1.032e-6, 7.195e-7
0.618, -1.758e-6, -1.032e-6, 7.256e-7
0.617, -1.758e-6, -1.035e-6, 7.226e-7
0.616, -1.755e-6, -1.032e-6, 7.226e-7
0.615, -1.764e-6, -1.038e-6, 7.256e-7
0.614, -1.764e-6, -1.038e-6, 7.256e-7
0.613, -1.764e-6, -1.038e-6, 7.256e-7
0.612, -1.767e-6, -1.038e-6, 7.287e-7
0.611, -1.770e-6, -1.047e-6, 7.226e-7
0.610, -1.770e-6, -1.041e-6, 7.287e-7
0.609, -1.773e-6, -1.047e-6, 7.256e-7
0.608, -1.773e-6, -1.044e-6, 7.287e-7
0.607, -1.776e-6, -1.047e-6, 7.287e-7
0.606, -1.773e-6, -1.047e-6, 7.256e-7
0.605, -1.779e-6, -1.047e-6, 7.317e-7
0.604, -1.782e-6, -1.050e-6, 7.317e-7
0.603, -1.779e-6, -1.053e-6, 7.256e-7
0.602, -1.785e-6, -1.053e-6, 7.317e-7
0.601, -1.785e-6, -1.056e-6, 7.287e-7
0.600, -1.785e-6, -1.053e-6, 7.317e-7
0.599, -1.794e-6, -1.060e-6, 7.348e-7
0.598, -1.794e-6, -1.063e-6, 7.317e-7
0.597, -1.794e-6, -1.063e-6, 7.317e-7
0.596, -1.800e-6, -1.063e-6, 7.378e-7
0.595, -1.797e-6, -1.066e-6, 7.317e-7
0.594, -1.807e-6, -1.069e-6, 7.378e-7
0.593, -1.800e-6, -1.063e-6, 7.378e-7
0.592, -1.810e-6, -1.072e-6, 7.378e-7
0.591, -1.810e-6, -1.072e-6, 7.378e-7
0.590, -1.803e-6, -1.069e-6, 7.348e-7
0.589, -1.803e-6, -1.069e-6, 7.348e-7
0.588, -1.816e-6, -1.081e-6, 7.348e-7
0.587, -1.819e-6, -1.078e-6, 7.409e-7
0.586, -1.813e-6, -1.081e-6, 7.317e-7
0.585, -1.825e-6, -1.084e-6, 7.409e-7
0.584, -1.813e-6, -1.078e-6, 7.348e-7
0.583, -1.825e-6, -1.087e-6, 7.378e-7
0.582, -1.822e-6, -1.084e-6, 7.378e-7
0.581, -1.828e-6, -1.087e-6, 7.409e-7
0.580, -1.831e-6, -1.090e-6, 7.409e-7
0.579, -1.834e-6, -1.090e-6, 7.439e-7
0.578, -1.837e-6, -1.093e-6, 7.439e-7
0.577, -1.834e-6, -1.093e-6, 7.409e-7
0.576, -1.837e-6, -1.096e-6, 7.409e-7
0.575, -1.837e-6, -1.096e-6, 7.409e-7
0.574, -1.840e-6, -1.096e-6, 7.439e-7
0.573, -1.837e-6, -1.096e-6, 7.409e-7
0.572, -1.837e-6, -1.096e-6, 7.409e-7
0.571, -1.849e-6, -1.102e-6, 7.470e-7
0.570, -1.837e-6, -1.096e-6, 7.409e-7
0.569, -1.843e-6, -1.099e-6, 7.439e-7
0.568, -1.849e-6, -1.102e-6, 7.470e-7
0.567, -1.852e-6, -1.105e-6, 7.470e-7
0.566, -1.861e-6, -1.111e-6, 7.500e-7
0.565, -1.855e-6, -1.108e-6, 7.470e-7
0.564, -1.855e-6, -1.108e-6, 7.470e-7
0.563, -1.861e-6, -1.114e-6, 7.470e-7
0.562, -1.868e-6, -1.111e-6, 7.562e-7
0.561, -1.861e-6, -1.114e-6, 7.470e-7
0.560, -1.865e-6, -1.118e-6, 7.470e-7
0.559, -1.871e-6, -1.121e-6, 7.500e-7
0.558, -1.874e-6, -1.124e-6, 7.500e-7
0.557, -1.880e-6, -1.121e-6, 7.592e-7
0.556, -1.871e-6, -1.121e-6, 7.500e-7
0.555, -1.886e-6, -1.130e-6, 7.562e-7
0.554, -1.886e-6, -1.130e-6, 7.562e-7
0.553, -1.886e-6, -1.130e-6, 7.562e-7
0.552, -1.895e-6, -1.139e-6, 7.562e-7
0.551, -1.892e-6, -1.133e-6, 7.592e-7
0.550, -1.886e-6, -1.133e-6, 7.531e-7
0.549, -1.904e-6, -1.142e-6, 7.623e-7
0.548, -1.895e-6, -1.139e-6, 7.562e-7
0.547, -1.889e-6, -1.133e-6, 7.562e-7
0.546, -1.910e-6, -1.151e-6, 7.592e-7
0.545, -1.913e-6, -1.148e-6, 7.653e-7
0.544, -1.907e-6, -1.145e-6, 7.623e-7
0.543, -1.904e-6, -1.148e-6, 7.562e-7
0.542, -1.919e-6, -1.151e-6, 7.684e-7
0.541, -1.913e-6, -1.151e-6, 7.623e-7
0.540, -1.922e-6, -1.157e-6, 7.653e-7
0.539, -1.919e-6, -1.154e-6, 7.653e-7
0.538, -1.926e-6, -1.157e-6, 7.684e-7
0.537, -1.929e-6, -1.157e-6, 7.714e-7
0.536, -1.935e-6, -1.163e-6, 7.714e-7
0.535, -1.938e-6, -1.169e-6, 7.684e-7
0.534, -1.944e-6, -1.172e-6, 7.714e-7
0.533, -1.938e-6, -1.166e-6, 7.714e-7
0.532, -1.947e-6, -1.172e-6, 7.745e-7
0.531, -1.947e-6, -1.172e-6, 7.745e-7
0.530, -1.953e-6, -1.175e-6, 7.775e-7
0.529, -1.953e-6, -1.179e-6, 7.745e-7
0.528, -1.959e-6, -1.182e-6, 7.775e-7
0.527, -1.956e-6, -1.179e-6, 7.775e-7
0.526, -1.962e-6, -1.188e-6, 7.745e-7
0.525, -1.965e-6, -1.185e-6, 7.806e-7
0.524, -1.968e-6, -1.188e-6, 7.806e-7
0.523, -1.977e-6, -1.194e-6, 7.836e-7
0.522, -1.974e-6, -1.191e-6, 7.836e-7
0.521, -1.980e-6, -1.200e-6, 7.806e-7
0.520, -1.974e-6, -1.197e-6, 7.775e-7
0.519, -1.980e-6, -1.197e-6, 7.836e-7
0.518, -1.990e-6, -1.206e-6, 7.836e-7
0.517, -1.996e-6, -1.203e-6, 7.928e-7
0.516, -1.993e-6, -1.206e-6, 7.867e-7
0.515, -1.999e-6, -1.209e-6, 7.897e-7
0.514, -1.999e-6, -1.206e-6, 7.928e-7
0.513, -2.002e-6, -1.215e-6, 7.867e-7
0.512, -2.002e-6, -1.212e-6, 7.897e-7
0.511, -2.005e-6, -1.209e-6, 7.958e-7
0.510, -2.008e-6, -1.218e-6, 7.897e-7
0.509, -2.014e-6, -1.224e-6, 7.897e-7
0.508, -2.014e-6, -1.218e-6, 7.958e-7
0.507, -2.017e-6, -1.227e-6, 7.897e-7
0.506, -2.023e-6, -1.224e-6, 7.989e-7
0.505, -2.023e-6, -1.227e-6, 7.958e-7
0.504, -2.020e-6, -1.230e-6, 7.897e-7
0.503, -2.032e-6, -1.233e-6, 7.989e-7
0.502, -2.029e-6, -1.230e-6, 7.989e-7
0.501, -2.032e-6, -1.237e-6, 7.958e-7
0.500, -2.042e-6, -1.240e-6, 8.019e-7
0.499, -2.045e-6, -1.243e-6, 8.019e-7
0.498, -2.048e-6, -1.246e-6, 8.019e-7
0.497, -2.057e-6, -1.249e-6, 8.080e-7
0.496, -2.051e-6, -1.246e-6, 8.050e-7
0.495, -2.057e-6, -1.252e-6, 8.050e-7
0.494, -2.060e-6, -1.252e-6, 8.080e-7
0.493, -2.054e-6, -1.255e-6, 7.989e-7
0.492, -2.063e-6, -1.258e-6, 8.050e-7
0.491, -2.066e-6, -1.258e-6, 8.080e-7
0.490, -2.066e-6, -1.261e-6, 8.050e-7
0.489, -2.075e-6, -1.267e-6, 8.080e-7
0.488, -2.081e-6, -1.267e-6, 8.141e-7
0.487, -2.078e-6, -1.267e-6, 8.111e-7
0.486, -2.084e-6, -1.270e-6, 8.141e-7
0.485, -2.084e-6, -1.270e-6, 8.141e-7
0.484, -2.087e-6, -1.276e-6, 8.111e-7
0.483, -2.093e-6, -1.279e-6, 8.141e-7
0.482, -2.096e-6, -1.279e-6, 8.172e-7
0.481, -2.099e-6, -1.285e-6, 8.141e-7
0.480, -2.103e-6, -1.285e-6, 8.172e-7
0.479, -2.106e-6, -1.288e-6, 8.172e-7
0.478, -2.115e-6, -1.295e-6, 8.202e-7
0.477, -2.112e-6, -1.291e-6, 8.202e-7
0.476, -2.124e-6, -1.298e-6, 8.263e-7
0.475, -2.124e-6, -1.298e-6, 8.263e-7
0.474, -2.121e-6, -1.298e-6, 8.233e-7
0.473, -2.124e-6, -1.301e-6, 8.233e-7
0.472, -2.136e-6, -1.307e-6, 8.294e-7
0.471, -2.133e-6, -1.310e-6, 8.233e-7
0.470, -2.136e-6, -1.313e-6, 8.233e-7
0.469, -2.145e-6, -1.313e-6, 8.324e-7
0.468, -2.142e-6, -1.313e-6, 8.294e-7
0.467, -2.151e-6, -1.322e-6, 8.294e-7
0.466, -2.154e-6, -1.319e-6, 8.355e-7
0.465, -2.161e-6, -1.328e-6, 8.324e-7
0.464, -2.161e-6, -1.328e-6, 8.324e-7
0.463, -2.170e-6, -1.331e-6, 8.385e-7
0.462, -2.170e-6, -1.334e-6, 8.355e-7
0.461, -2.173e-6, -1.340e-6, 8.324e-7
0.460, -2.182e-6, -1.337e-6, 8.446e-7
0.459, -2.185e-6, -1.343e-6, 8.416e-7
0.458, -2.188e-6, -1.346e-6, 8.416e-7
0.457, -2.194e-6, -1.349e-6, 8.446e-7
0.456, -2.200e-6, -1.352e-6, 8.477e-7
0.455, -2.203e-6, -1.356e-6, 8.477e-7
0.454, -2.203e-6, -1.356e-6, 8.477e-7
0.453, -2.203e-6, -1.359e-6, 8.446e-7
0.452, -2.222e-6, -1.368e-6, 8.538e-7
0.451, -2.212e-6, -1.365e-6, 8.477e-7
0.450, -2.218e-6, -1.368e-6, 8.507e-7
0.449, -2.237e-6, -1.374e-6, 8.630e-7
0.448, -2.231e-6, -1.380e-6, 8.507e-7
0.447, -2.234e-6, -1.380e-6, 8.538e-7
0.446, -2.240e-6, -1.380e-6, 8.599e-7
0.445, -2.243e-6, -1.383e-6, 8.599e-7
0.444, -2.252e-6, -1.392e-6, 8.599e-7
0.443, -2.246e-6, -1.392e-6, 8.538e-7
0.442, -2.261e-6, -1.398e-6, 8.630e-7
0.441, -2.264e-6, -1.401e-6, 8.630e-7
0.440, -2.280e-6, -1.404e-6, 8.752e-7
0.439, -2.273e-6, -1.407e-6, 8.660e-7
0.438, -2.280e-6, -1.410e-6, 8.691e-7
0.437, -2.283e-6, -1.410e-6, 8.721e-7
0.436, -2.286e-6, -1.417e-6, 8.691e-7
0.435, -2.295e-6, -1.420e-6, 8.752e-7
0.434, -2.292e-6, -1.420e-6, 8.721e-7
0.433, -2.304e-6, -1.429e-6, 8.752e-7
0.432, -2.307e-6, -1.426e-6, 8.813e-7
0.431, -2.307e-6, -1.429e-6, 8.782e-7
0.430, -2.319e-6, -1.438e-6, 8.813e-7
0.429, -2.319e-6, -1.435e-6, 8.843e-7
0.428, -2.319e-6, -1.444e-6, 8.752e-7
0.427, -2.328e-6, -1.447e-6, 8.813e-7
0.426, -2.331e-6, -1.441e-6, 8.904e-7
0.425, -2.331e-6, -1.447e-6, 8.843e-7
0.424, -2.347e-6, -1.456e-6, 8.904e-7
0.423, -2.350e-6, -1.456e-6, 8.935e-7
0.422, -2.353e-6, -1.465e-6, 8.874e-7
0.421, -2.350e-6, -1.462e-6, 8.874e-7
0.420, -2.365e-6, -1.465e-6, 8.996e-7
0.419, -2.359e-6, -1.472e-6, 8.874e-7
0.418, -2.374e-6, -1.481e-6, 8.935e-7
0.417, -2.371e-6, -1.478e-6, 8.935e-7
0.416, -2.374e-6, -1.481e-6, 8.935e-7
0.415, -2.389e-6, -1.487e-6, 9.026e-7
0.414, -2.389e-6, -1.487e-6, 9.026e-7
0.413, -2.399e-6, -1.493e-6, 9.057e-7
0.412, -2.402e-6, -1.496e-6, 9.057e-7
0.411, -2.399e-6, -1.496e-6, 9.026e-7
0.410, -2.405e-6, -1.502e-6, 9.026e-7
0.409, -2.414e-6, -1.505e-6, 9.087e-7
0.408, -2.414e-6, -1.508e-6, 9.057e-7
0.407, -2.423e-6, -1.514e-6, 9.087e-7
0.406, -2.426e-6, -1.514e-6, 9.118e-7
0.405, -2.432e-6, -1.520e-6, 9.118e-7
0.404, -2.432e-6, -1.520e-6, 9.118e-7
0.403, -2.438e-6, -1.523e-6, 9.148e-7
0.402, -2.441e-6, -1.529e-6, 9.118e-7
0.401, -2.453e-6, -1.536e-6, 9.179e-7
0.400, -2.453e-6, -1.533e-6, 9.209e-7
0.399, -2.460e-6, -1.542e-6, 9.179e-7
0.398, -2.472e-6, -1.548e-6, 9.240e-7
0.397, -2.466e-6, -1.542e-6, 9.240e-7
0.396, -2.484e-6, -1.557e-6, 9.270e-7
0.395, -2.484e-6, -1.554e-6, 9.301e-7
0.394, -2.481e-6, -1.557e-6, 9.240e-7
0.393, -2.496e-6, -1.566e-6, 9.301e-7
0.392, -2.502e-6, -1.569e-6, 9.331e-7
0.391, -2.499e-6, -1.572e-6, 9.270e-7
0.390, -2.508e-6, -1.575e-6, 9.331e-7
0.389, -2.505e-6, -1.572e-6, 9.331e-7
0.388, -2.521e-6, -1.587e-6, 9.331e-7
0.387, -2.530e-6, -1.587e-6, 9.423e-7
0.386, -2.527e-6, -1.591e-6, 9.362e-7
0.385, -2.533e-6, -1.597e-6, 9.362e-7
0.384, -2.548e-6, -1.600e-6, 9.484e-7
0.383, -2.548e-6, -1.603e-6, 9.453e-7
0.382, -2.554e-6, -1.609e-6, 9.453e-7
0.381, -2.554e-6, -1.609e-6, 9.453e-7
0.380, -2.560e-6, -1.612e-6, 9.484e-7
0.379, -2.566e-6, -1.618e-6, 9.484e-7
0.378, -2.572e-6, -1.621e-6, 9.515e-7
0.377, -2.579e-6, -1.627e-6, 9.515e-7
0.376, -2.588e-6, -1.633e-6, 9.545e-7
0.375, -2.594e-6, -1.633e-6, 9.606e-7
0.374, -2.597e-6, -1.639e-6, 9.576e-7
0.373, -2.606e-6, -1.642e-6, 9.637e-7
0.372, -2.612e-6, -1.645e-6, 9.667e-7
0.371, -2.612e-6, -1.648e-6, 9.637e-7
0.370, -2.627e-6, -1.658e-6, 9.698e-7
0.369, -2.630e-6, -1.661e-6, 9.698e-7
0.368, -2.640e-6, -1.667e-6, 9.728e-7
0.367, -2.652e-6, -1.670e-6, 9.820e-7
0.366, -2.652e-6, -1.673e-6, 9.789e-7
0.365, -2.655e-6, -1.676e-6, 9.789e-7
0.364, -2.664e-6, -1.682e-6, 9.820e-7
0.363, -2.664e-6, -1.682e-6, 9.820e-7
0.362, -2.679e-6, -1.691e-6, 9.881e-7
0.361, -2.682e-6, -1.694e-6, 9.881e-7
0.360, -2.688e-6, -1.700e-6, 9.881e-7
0.359, -2.698e-6, -1.706e-6, 9.911e-7
0.358, -2.698e-6, -1.703e-6, 9.942e-7
0.357, -2.704e-6, -1.713e-6, 9.911e-7
0.356, -2.719e-6, -1.719e-6, 1.000e-6
0.355, -2.719e-6, -1.719e-6, 1.000e-6
0.354, -2.722e-6, -1.725e-6, 9.972e-7
0.353, -2.731e-6, -1.728e-6, 1.003e-6
0.352, -2.737e-6, -1.731e-6, 1.006e-6
0.351, -2.743e-6, -1.734e-6, 1.009e-6
0.350, -2.753e-6, -1.740e-6, 1.012e-6
0.349, -2.749e-6, -1.740e-6, 1.009e-6
0.348, -2.768e-6, -1.755e-6, 1.012e-6
0.347, -2.777e-6, -1.755e-6, 1.022e-6
0.346, -2.774e-6, -1.758e-6, 1.016e-6
0.345, -2.783e-6, -1.764e-6, 1.019e-6
0.344, -2.789e-6, -1.764e-6, 1.025e-6
0.343, -2.789e-6, -1.771e-6, 1.019e-6
0.342, -2.807e-6, -1.780e-6, 1.028e-6
0.341, -2.804e-6, -1.777e-6, 1.028e-6
0.340, -2.811e-6, -1.786e-6, 1.025e-6
0.339, -2.820e-6, -1.789e-6, 1.031e-6
0.338, -2.826e-6, -1.789e-6, 1.037e-6
0.337, -2.829e-6, -1.795e-6, 1.034e-6
0.336, -2.832e-6, -1.798e-6, 1.034e-6
0.335, -2.838e-6, -1.798e-6, 1.040e-6
0.334, -2.847e-6, -1.807e-6, 1.040e-6
0.333, -2.856e-6, -1.810e-6, 1.046e-6
0.332, -2.859e-6, -1.813e-6, 1.046e-6
0.331, -2.872e-6, -1.822e-6, 1.049e-6
0.330, -2.878e-6, -1.825e-6, 1.052e-6
0.329, -2.881e-6, -1.829e-6, 1.052e-6
0.328, -2.887e-6, -1.832e-6, 1.055e-6
0.327, -2.887e-6, -1.832e-6, 1.055e-6
0.326, -2.893e-6, -1.838e-6, 1.055e-6
0.325, -2.899e-6, -1.841e-6, 1.058e-6
0.324, -2.908e-6, -1.847e-6, 1.061e-6
0.323, -2.914e-6, -1.850e-6, 1.064e-6
0.322, -2.917e-6, -1.850e-6, 1.067e-6
0.321, -2.926e-6, -1.856e-6, 1.070e-6
0.320, -2.930e-6, -1.862e-6, 1.067e-6
0.319, -2.942e-6, -1.865e-6, 1.077e-6
0.318, -2.942e-6, -1.868e-6, 1.074e-6
0.317, -2.957e-6, -1.880e-6, 1.077e-6
0.316, -2.954e-6, -1.874e-6, 1.080e-6
0.315, -2.957e-6, -1.877e-6, 1.080e-6
0.314, -2.966e-6, -1.883e-6, 1.083e-6
0.313, -2.972e-6, -1.883e-6, 1.089e-6
0.312, -2.981e-6, -1.893e-6, 1.089e-6
0.311, -2.987e-6, -1.896e-6, 1.092e-6
0.310, -2.994e-6, -1.899e-6, 1.095e-6
0.309, -2.994e-6, -1.902e-6, 1.092e-6
0.308, -3.003e-6, -1.902e-6, 1.101e-6
0.307, -3.009e-6, -1.911e-6, 1.098e-6
0.306, -3.018e-6, -1.914e-6, 1.104e-6
0.305, -3.027e-6, -1.917e-6, 1.110e-6
0.304, -3.033e-6, -1.920e-6, 1.113e-6
0.303, -3.036e-6, -1.932e-6, 1.104e-6
0.302, -3.042e-6, -1.926e-6, 1.116e-6
0.301, -3.045e-6, -1.929e-6, 1.116e-6
0.300, -3.058e-6, -1.938e-6, 1.119e-6
0.299, -3.064e-6, -1.944e-6, 1.119e-6
0.298, -3.064e-6, -1.938e-6, 1.125e-6
0.297, -3.079e-6, -1.954e-6, 1.125e-6
0.296, -3.085e-6, -1.951e-6, 1.135e-6
0.295, -3.079e-6, -1.954e-6, 1.125e-6
0.294, -3.097e-6, -1.966e-6, 1.131e-6
0.293, -3.100e-6, -1.960e-6, 1.141e-6
0.292, -3.091e-6, -1.963e-6, 1.128e-6
0.291, -3.110e-6, -1.969e-6, 1.141e-6
0.290, -3.116e-6, -1.969e-6, 1.147e-6
0.289, -3.125e-6, -1.975e-6, 1.150e-6
0.288, -3.134e-6, -1.981e-6, 1.153e-6
0.287, -3.134e-6, -1.984e-6, 1.150e-6
0.286, -3.137e-6, -1.984e-6, 1.153e-6
0.285, -3.146e-6, -1.987e-6, 1.159e-6
0.284, -3.152e-6, -1.996e-6, 1.156e-6
0.283, -3.164e-6, -1.999e-6, 1.165e-6
0.282, -3.164e-6, -1.993e-6, 1.171e-6
0.281, -3.177e-6, -2.006e-6, 1.171e-6
0.280, -3.180e-6, -2.009e-6, 1.171e-6
0.279, -3.189e-6, -2.009e-6, 1.180e-6
0.278, -3.189e-6, -2.012e-6, 1.177e-6
0.277, -3.195e-6, -2.018e-6, 1.177e-6
0.276, -3.207e-6, -2.021e-6, 1.186e-6
0.275, -3.207e-6, -2.021e-6, 1.186e-6
0.274, -3.216e-6, -2.027e-6, 1.189e-6
0.273, -3.222e-6, -2.024e-6, 1.199e-6
0.272, -3.219e-6, -2.027e-6, 1.193e-6
0.271, -3.235e-6, -2.036e-6, 1.199e-6
0.270, -3.238e-6, -2.036e-6, 1.202e-6
0.269, -3.253e-6, -2.042e-6, 1.211e-6
0.268, -3.247e-6, -2.039e-6, 1.208e-6
0.267, -3.256e-6, -2.045e-6, 1.211e-6
0.266, -3.259e-6, -2.048e-6, 1.211e-6
0.265, -3.268e-6, -2.048e-6, 1.220e-6
0.264, -3.262e-6, -2.048e-6, 1.214e-6
0.263, -3.277e-6, -2.057e-6, 1.220e-6
0.262, -3.283e-6, -2.057e-6, 1.226e-6
0.261, -3.274e-6, -2.054e-6, 1.220e-6
0.260, -3.296e-6, -2.067e-6, 1.229e-6
0.259, -3.293e-6, -2.060e-6, 1.232e-6
0.258, -3.293e-6, -2.064e-6, 1.229e-6
0.257, -3.305e-6, -2.070e-6, 1.235e-6
0.256, -3.308e-6, -2.067e-6, 1.241e-6
0.255, -3.311e-6, -2.076e-6, 1.235e-6
0.254, -3.320e-6, -2.076e-6, 1.244e-6
0.253, -3.317e-6, -2.073e-6, 1.244e-6
0.252, -3.320e-6, -2.076e-6, 1.244e-6
0.251, -3.335e-6, -2.082e-6, 1.254e-6
0.250, -3.332e-6, -2.076e-6, 1.257e-6
0.249, -3.338e-6, -2.085e-6, 1.254e-6
0.248, -3.338e-6, -2.085e-6, 1.254e-6
0.247, -3.345e-6, -2.085e-6, 1.260e-6
0.246, -3.351e-6, -2.091e-6, 1.260e-6
0.245, -3.357e-6, -2.091e-6, 1.266e-6
0.244, -3.357e-6, -2.091e-6, 1.266e-6
0.243, -3.369e-6, -2.094e-6, 1.275e-6
0.242, -3.363e-6, -2.091e-6, 1.272e-6
0.241, -3.366e-6, -2.091e-6, 1.275e-6
0.240, -3.372e-6, -2.097e-6, 1.275e-6
0.239, -3.378e-6, -2.097e-6, 1.281e-6
0.238, -3.381e-6, -2.100e-6, 1.281e-6
0.237, -3.384e-6, -2.100e-6, 1.284e-6
0.236, -3.384e-6, -2.097e-6, 1.287e-6
0.235, -3.393e-6, -2.103e-6, 1.290e-6
0.234, -3.396e-6, -2.103e-6, 1.293e-6
0.233, -3.396e-6, -2.103e-6, 1.293e-6
0.232, -3.399e-6, -2.106e-6, 1.293e-6
0.231, -3.403e-6, -2.103e-6, 1.299e-6
0.230, -3.399e-6, -2.103e-6, 1.296e-6
0.229, -3.403e-6, -2.100e-6, 1.302e-6
0.228, -3.421e-6, -2.106e-6, 1.315e-6
0.227, -3.406e-6, -2.103e-6, 1.302e-6
0.226, -3.427e-6, -2.115e-6, 1.312e-6
0.225, -3.418e-6, -2.106e-6, 1.312e-6
0.224, -3.424e-6, -2.112e-6, 1.312e-6
0.223, -3.430e-6, -2.109e-6, 1.321e-6
0.222, -3.427e-6, -2.109e-6, 1.318e-6
0.221, -3.427e-6, -2.112e-6, 1.315e-6
0.220, -3.439e-6, -2.109e-6, 1.330e-6
0.219, -3.436e-6, -2.112e-6, 1.324e-6
0.218, -3.442e-6, -2.115e-6, 1.327e-6
0.217, -3.448e-6, -2.112e-6, 1.336e-6
0.216, -3.439e-6, -2.112e-6, 1.327e-6
0.215, -3.448e-6, -2.115e-6, 1.333e-6
0.214, -3.448e-6, -2.109e-6, 1.339e-6
0.213, -3.454e-6, -2.112e-6, 1.342e-6
0.212, -3.457e-6, -2.115e-6, 1.342e-6
0.211, -3.460e-6, -2.112e-6, 1.348e-6
0.210, -3.460e-6, -2.112e-6, 1.348e-6
0.209, -3.467e-6, -2.121e-6, 1.345e-6
0.208, -3.470e-6, -2.112e-6, 1.357e-6
0.207, -3.464e-6, -2.112e-6, 1.351e-6
0.206, -3.470e-6, -2.115e-6, 1.354e-6
0.205, -3.470e-6, -2.109e-6, 1.360e-6
0.204, -3.467e-6, -2.106e-6, 1.360e-6
0.203, -3.482e-6, -2.115e-6, 1.366e-6
0.202, -3.473e-6, -2.106e-6, 1.366e-6
0.201, -3.479e-6, -2.109e-6, 1.370e-6
0.200, -3.479e-6, -2.109e-6, 1.370e-6
0.199, -3.476e-6, -2.106e-6, 1.370e-6
0.198, -3.488e-6, -2.112e-6, 1.376e-6
0.197, -3.488e-6, -2.106e-6, 1.382e-6
0.196, -3.488e-6, -2.106e-6, 1.382e-6
0.195, -3.488e-6, -2.109e-6, 1.379e-6
0.194, -3.488e-6, -2.103e-6, 1.385e-6
0.193, -3.485e-6, -2.106e-6, 1.379e-6
0.192, -3.494e-6, -2.106e-6, 1.388e-6
0.191, -3.485e-6, -2.097e-6, 1.388e-6
0.190, -3.491e-6, -2.100e-6, 1.391e-6
0.189, -3.497e-6, -2.100e-6, 1.397e-6
0.188, -3.491e-6, -2.097e-6, 1.394e-6
0.187, -3.491e-6, -2.097e-6, 1.394e-6
0.186, -3.494e-6, -2.097e-6, 1.397e-6
0.185, -3.491e-6, -2.091e-6, 1.400e-6
0.184, -3.491e-6, -2.094e-6, 1.397e-6
0.183, -3.494e-6, -2.091e-6, 1.403e-6
0.182, -3.488e-6, -2.088e-6, 1.400e-6
0.181, -3.494e-6, -2.091e-6, 1.403e-6
0.180, -3.485e-6, -2.079e-6, 1.406e-6
0.179, -3.485e-6, -2.085e-6, 1.400e-6
0.178, -3.494e-6, -2.085e-6, 1.409e-6
0.177, -3.488e-6, -2.079e-6, 1.409e-6
0.176, -3.479e-6, -2.076e-6, 1.403e-6
0.175, -3.488e-6, -2.076e-6, 1.412e-6
0.174, -3.485e-6, -2.073e-6, 1.412e-6
0.173, -3.476e-6, -2.070e-6, 1.406e-6
0.172, -3.488e-6, -2.073e-6, 1.415e-6
0.171, -3.482e-6, -2.064e-6, 1.418e-6
0.170, -3.479e-6, -2.067e-6, 1.412e-6
0.169, -3.482e-6, -2.064e-6, 1.418e-6
0.168, -3.473e-6, -2.057e-6, 1.415e-6
0.167, -3.479e-6, -2.064e-6, 1.415e-6
0.166, -3.473e-6, -2.057e-6, 1.415e-6
0.165, -3.476e-6, -2.054e-6, 1.421e-6
0.164, -3.467e-6, -2.048e-6, 1.418e-6
0.163, -3.467e-6, -2.048e-6, 1.418e-6
0.162, -3.460e-6, -2.042e-6, 1.418e-6
0.161, -3.460e-6, -2.042e-6, 1.418e-6
0.160, -3.464e-6, -2.042e-6, 1.421e-6
0.159, -3.457e-6, -2.039e-6, 1.418e-6
0.158, -3.457e-6, -2.036e-6, 1.421e-6
0.157, -3.448e-6, -2.030e-6, 1.418e-6
0.156, -3.448e-6, -2.030e-6, 1.418e-6
0.155, -3.445e-6, -2.027e-6, 1.418e-6
0.154, -3.436e-6, -2.018e-6, 1.418e-6
0.153, -3.439e-6, -2.021e-6, 1.418e-6
0.152, -3.436e-6, -2.018e-6, 1.418e-6
0.151, -3.433e-6, -2.012e-6, 1.421e-6
0.150, -3.430e-6, -2.012e-6, 1.418e-6
0.149, -3.427e-6, -2.006e-6, 1.421e-6
0.148, -3.424e-6, -1.999e-6, 1.424e-6
0.147, -3.427e-6, -2.009e-6, 1.418e-6
0.146, -3.415e-6, -1.993e-6, 1.421e-6
0.145, -3.409e-6, -1.993e-6, 1.415e-6
0.144, -3.415e-6, -1.996e-6, 1.418e-6
0.143, -3.415e-6, -1.987e-6, 1.427e-6
0.142, -3.406e-6, -1.987e-6, 1.418e-6
0.141, -3.403e-6, -1.984e-6, 1.418e-6
0.140, -3.399e-6, -1.978e-6, 1.421e-6
0.139, -3.399e-6, -1.981e-6, 1.418e-6
0.138, -3.396e-6, -1.975e-6, 1.421e-6
0.137, -3.384e-6, -1.969e-6, 1.415e-6
0.136, -3.384e-6, -1.969e-6, 1.415e-6
0.135, -3.387e-6, -1.966e-6, 1.421e-6
0.134, -3.369e-6, -1.954e-6, 1.415e-6
0.133, -3.372e-6, -1.960e-6, 1.412e-6
0.132, -3.378e-6, -1.951e-6, 1.427e-6
0.131, -3.357e-6, -1.948e-6, 1.409e-6
0.130, -3.363e-6, -1.951e-6, 1.412e-6
0.129, -3.360e-6, -1.941e-6, 1.418e-6
0.128, -3.354e-6, -1.941e-6, 1.412e-6
0.127, -3.351e-6, -1.941e-6, 1.409e-6
0.126, -3.348e-6, -1.932e-6, 1.415e-6
0.125, -3.335e-6, -1.929e-6, 1.406e-6
0.124, -3.338e-6, -1.929e-6, 1.409e-6
0.123, -3.329e-6, -1.923e-6, 1.406e-6
0.122, -3.323e-6, -1.920e-6, 1.403e-6
0.121, -3.326e-6, -1.920e-6, 1.406e-6
0.120, -3.320e-6, -1.914e-6, 1.406e-6
0.119, -3.311e-6, -1.911e-6, 1.400e-6
0.118, -3.311e-6, -1.908e-6, 1.403e-6
0.117, -3.305e-6, -1.905e-6, 1.400e-6
0.116, -3.302e-6, -1.902e-6, 1.400e-6
0.115, -3.296e-6, -1.896e-6, 1.400e-6
0.114, -3.290e-6, -1.896e-6, 1.394e-6
0.113, -3.287e-6, -1.896e-6, 1.391e-6
0.112, -3.283e-6, -1.887e-6, 1.397e-6
0.111, -3.280e-6, -1.887e-6, 1.394e-6
0.110, -3.271e-6, -1.880e-6, 1.391e-6
0.109, -3.271e-6, -1.880e-6, 1.391e-6
0.108, -3.262e-6, -1.874e-6, 1.388e-6
0.107, -3.265e-6, -1.871e-6, 1.394e-6
0.106, -3.256e-6, -1.865e-6, 1.391e-6
0.105, -3.250e-6, -1.865e-6, 1.385e-6
0.104, -3.247e-6, -1.862e-6, 1.385e-6
0.103, -3.238e-6, -1.856e-6, 1.382e-6
0.102, -3.232e-6, -1.856e-6, 1.376e-6
0.101, -3.238e-6, -1.853e-6, 1.385e-6
0.100, -3.222e-6, -1.847e-6, 1.376e-6
0.099, -3.232e-6, -1.853e-6, 1.379e-6
0.098, -3.213e-6, -1.841e-6, 1.373e-6
0.097, -3.201e-6, -1.838e-6, 1.363e-6
0.096, -3.201e-6, -1.835e-6, 1.366e-6
0.095, -3.195e-6, -1.829e-6, 1.366e-6
0.094, -3.186e-6, -1.825e-6, 1.360e-6
0.093, -3.189e-6, -1.829e-6, 1.360e-6
0.092, -3.177e-6, -1.819e-6, 1.357e-6
0.091, -3.177e-6, -1.819e-6, 1.357e-6
0.090, -3.174e-6, -1.819e-6, 1.354e-6
0.089, -3.164e-6, -1.810e-6, 1.354e-6
0.088, -3.155e-6, -1.807e-6, 1.348e-6
0.087, -3.158e-6, -1.810e-6, 1.348e-6
0.086, -3.146e-6, -1.801e-6, 1.345e-6
0.085, -3.137e-6, -1.801e-6, 1.336e-6
0.084, -3.143e-6, -1.798e-6, 1.345e-6
0.083, -3.125e-6, -1.789e-6, 1.336e-6
0.082, -3.131e-6, -1.792e-6, 1.339e-6
0.081, -3.122e-6, -1.786e-6, 1.336e-6
0.080, -3.113e-6, -1.783e-6, 1.330e-6
0.079, -3.110e-6, -1.783e-6, 1.327e-6
0.078, -3.103e-6, -1.774e-6, 1.330e-6
0.077, -3.094e-6, -1.774e-6, 1.321e-6
0.076, -3.097e-6, -1.774e-6, 1.324e-6
0.075, -3.094e-6, -1.771e-6, 1.324e-6
0.074, -3.079e-6, -1.764e-6, 1.315e-6
0.073, -3.079e-6, -1.761e-6, 1.318e-6
0.072, -3.070e-6, -1.758e-6, 1.312e-6
0.071, -3.061e-6, -1.755e-6, 1.305e-6
0.070, -3.055e-6, -1.749e-6, 1.305e-6
0.069, -3.058e-6, -1.749e-6, 1.308e-6
0.068, -3.042e-6, -1.743e-6, 1.299e-6
0.067, -3.045e-6, -1.743e-6, 1.302e-6
0.066, -3.033e-6, -1.737e-6, 1.296e-6
0.065, -3.024e-6, -1.737e-6, 1.287e-6
0.064, -3.030e-6, -1.737e-6, 1.293e-6
0.063, -3.021e-6, -1.731e-6, 1.290e-6
0.062, -3.024e-6, -1.731e-6, 1.293e-6
0.061, -3.015e-6, -1.725e-6, 1.290e-6
0.060, -3.006e-6, -1.725e-6, 1.281e-6
0.059, -2.997e-6, -1.719e-6, 1.278e-6
0.058, -2.994e-6, -1.716e-6, 1.278e-6
0.057, -2.987e-6, -1.716e-6, 1.272e-6
0.056, -2.994e-6, -1.713e-6, 1.281e-6
0.055, -2.981e-6, -1.710e-6, 1.272e-6
0.054, -2.981e-6, -1.713e-6, 1.269e-6
0.053, -2.972e-6, -1.703e-6, 1.269e-6
0.052, -2.963e-6, -1.700e-6, 1.263e-6
0.051, -2.960e-6, -1.700e-6, 1.260e-6
0.050, -2.972e-6, -1.710e-6, 1.263e-6
0.049, -2.942e-6, -1.688e-6, 1.254e-6
0.048, -2.954e-6, -1.697e-6, 1.257e-6
0.047, -2.945e-6, -1.691e-6, 1.254e-6
0.046, -2.933e-6, -1.685e-6, 1.247e-6
0.045, -2.936e-6, -1.688e-6, 1.247e-6
0.044, -2.930e-6, -1.679e-6, 1.251e-6
0.043, -2.920e-6, -1.679e-6, 1.241e-6
0.042, -2.920e-6, -1.682e-6, 1.238e-6
0.041, -2.914e-6, -1.676e-6, 1.238e-6
0.040, -2.905e-6, -1.667e-6, 1.238e-6
0.039, -2.911e-6, -1.676e-6, 1.235e-6
0.038, -2.902e-6, -1.670e-6, 1.232e-6
0.037, -2.893e-6, -1.667e-6, 1.226e-6
0.036, -2.902e-6, -1.667e-6, 1.235e-6
0.035, -2.896e-6, -1.667e-6, 1.229e-6
0.034, -2.881e-6, -1.658e-6, 1.223e-6
0.033, -2.887e-6, -1.661e-6, 1.226e-6
0.032, -2.878e-6, -1.658e-6, 1.220e-6
0.031, -2.872e-6, -1.655e-6, 1.217e-6
0.030, -2.868e-6, -1.652e-6, 1.217e-6
0.029, -2.865e-6, -1.652e-6, 1.214e-6
0.028, -2.862e-6, -1.648e-6, 1.214e-6
0.027, -2.859e-6, -1.648e-6, 1.211e-6
0.026, -2.847e-6, -1.642e-6, 1.205e-6
0.025, -2.850e-6, -1.642e-6, 1.208e-6
0.024, -2.847e-6, -1.639e-6, 1.208e-6
0.023, -2.844e-6, -1.642e-6, 1.202e-6
0.022, -2.841e-6, -1.639e-6, 1.202e-6
0.021, -2.835e-6, -1.633e-6, 1.202e-6
0.020, -2.832e-6, -1.636e-6, 1.196e-6
0.019, -2.832e-6, -1.633e-6, 1.199e-6
0.018, -2.823e-6, -1.627e-6, 1.196e-6
0.017, -2.823e-6, -1.633e-6, 1.189e-6
0.016, -2.820e-6, -1.627e-6, 1.193e-6
0.015, -2.801e-6, -1.621e-6, 1.180e-6
0.014, -2.801e-6, -1.624e-6, 1.177e-6
0.013, -2.807e-6, -1.621e-6, 1.186e-6
0.012, -2.795e-6, -1.615e-6, 1.180e-6
0.011, -2.801e-6, -1.618e-6, 1.183e-6
0.010, -2.789e-6, -1.609e-6, 1.180e-6
0.009, -2.780e-6, -1.609e-6, 1.171e-6
0.008, -2.789e-6, -1.612e-6, 1.177e-6
0.007, -2.780e-6, -1.603e-6, 1.177e-6
0.006, -2.768e-6, -1.606e-6, 1.162e-6
0.005, -2.780e-6, -1.609e-6, 1.171e-6
0.004, -2.765e-6, -1.597e-6, 1.168e-6
0.003, -2.762e-6, -1.603e-6, 1.159e-6
0.002, -2.765e-6, -1.600e-6, 1.165e-6
0.001, -2.753e-6, -1.594e-6, 1.159e-6
0.000, -2.749e-6, -1.594e-6, 1.156e-6
-0.001, -2.753e-6, -1.597e-6, 1.156e-6
-0.002, -2.746e-6, -1.594e-6, 1.153e-6
-0.003, -2.743e-6, -1.594e-6, 1.150e-6
-0.004, -2.737e-6, -1.584e-6, 1.153e-6
-0.005, -2.731e-6, -1.581e-6, 1.150e-6
-0.006, -2.734e-6, -1.584e-6, 1.150e-6
-0.007, -2.731e-6, -1.581e-6, 1.150e-6
-0.008, -2.722e-6, -1.578e-6, 1.144e-6
-0.009, -2.722e-6, -1.581e-6, 1.141e-6
-0.010, -2.713e-6, -1.575e-6, 1.138e-6
-0.011, -2.713e-6, -1.575e-6, 1.138e-6
-0.012, -2.713e-6, -1.572e-6, 1.141e-6
-0.013, -2.707e-6, -1.569e-6, 1.138e-6
-0.014, -2.704e-6, -1.572e-6, 1.131e-6
-0.015, -2.704e-6, -1.569e-6, 1.135e-6
-0.016, -2.695e-6, -1.566e-6, 1.128e-6
-0.017, -2.691e-6, -1.563e-6, 1.128e-6
-0.018, -2.691e-6, -1.563e-6, 1.128e-6
-0.019, -2.685e-6, -1.557e-6, 1.128e-6
-0.020, -2.682e-6, -1.560e-6, 1.122e-6
-0.021, -2.679e-6, -1.554e-6, 1.125e-6
-0.022, -2.676e-6, -1.551e-6, 1.125e-6
-0.023, -2.673e-6, -1.551e-6, 1.122e-6
-0.024, -2.673e-6, -1.551e-6, 1.122e-6
-0.025, -2.661e-6, -1.548e-6, 1.113e-6
-0.026, -2.673e-6, -1.551e-6, 1.122e-6
-0.027, -2.658e-6, -1.545e-6, 1.113e-6
-0.028, -2.658e-6, -1.548e-6, 1.110e-6
-0.029, -2.658e-6, -1.545e-6, 1.113e-6
-0.030, -2.655e-6, -1.539e-6, 1.116e-6
-0.031, -2.652e-6, -1.542e-6, 1.110e-6
-0.032, -2.649e-6, -1.536e-6, 1.113e-6
-0.033, -2.643e-6, -1.536e-6, 1.107e-6
-0.034, -2.643e-6, -1.539e-6, 1.104e-6
-0.035, -2.640e-6, -1.533e-6, 1.107e-6
-0.036, -2.630e-6, -1.529e-6, 1.101e-6
-0.037, -2.634e-6, -1.533e-6, 1.101e-6
-0.038, -2.630e-6, -1.529e-6, 1.101e-6
-0.039, -2.627e-6, -1.526e-6, 1.101e-6
-0.040, -2.630e-6, -1.529e-6, 1.101e-6
-0.041, -2.624e-6, -1.523e-6, 1.101e-6
-0.042, -2.612e-6, -1.520e-6, 1.092e-6
-0.043, -2.621e-6, -1.523e-6, 1.098e-6
-0.044, -2.615e-6, -1.520e-6, 1.095e-6
-0.045, -2.603e-6, -1.514e-6, 1.089e-6
-0.046, -2.612e-6, -1.520e-6, 1.092e-6
-0.047, -2.609e-6, -1.514e-6, 1.095e-6
-0.048, -2.606e-6, -1.514e-6, 1.092e-6
-0.049, -2.603e-6, -1.511e-6, 1.092e-6
-0.050, -2.600e-6, -1.511e-6, 1.089e-6
-0.051, -2.600e-6, -1.511e-6, 1.089e-6
-0.052, -2.600e-6, -1.508e-6, 1.092e-6
-0.053, -2.594e-6, -1.508e-6, 1.086e-6
-0.054, -2.594e-6, -1.508e-6, 1.086e-6
-0.055, -2.591e-6, -1.505e-6, 1.086e-6
-0.056, -2.582e-6, -1.502e-6, 1.080e-6
-0.057, -2.585e-6, -1.505e-6, 1.080e-6
-0.058, -2.591e-6, -1.502e-6, 1.089e-6
-0.059, -2.569e-6, -1.496e-6, 1.074e-6
-0.060, -2.579e-6, -1.499e-6, 1.080e-6
-0.061, -2.579e-6, -1.496e-6, 1.083e-6
-0.062, -2.572e-6, -1.496e-6, 1.077e-6
-0.063, -2.572e-6, -1.496e-6, 1.077e-6
-0.064, -2.566e-6, -1.490e-6, 1.077e-6
-0.065, -2.566e-6, -1.490e-6, 1.077e-6
-0.066, -2.566e-6, -1.490e-6, 1.077e-6
-0.067, -2.557e-6, -1.487e-6, 1.070e-6
-0.068, -2.557e-6, -1.487e-6, 1.070e-6
-0.069, -2.554e-6, -1.481e-6, 1.074e-6
-0.070, -2.554e-6, -1.484e-6, 1.070e-6
-0.071, -2.554e-6, -1.484e-6, 1.070e-6
-0.072, -2.551e-6, -1.478e-6, 1.074e-6
-0.073, -2.539e-6, -1.475e-6, 1.064e-6
-0.074, -2.551e-6, -1.481e-6, 1.070e-6
-0.075, -2.542e-6, -1.472e-6, 1.070e-6
-0.076, -2.539e-6, -1.475e-6, 1.064e-6
-0.077, -2.539e-6, -1.472e-6, 1.067e-6
-0.078, -2.536e-6, -1.468e-6, 1.067e-6
-0.079, -2.530e-6, -1.472e-6, 1.058e-6
-0.080, -2.533e-6, -1.468e-6, 1.064e-6
-0.081, -2.524e-6, -1.462e-6, 1.061e-6
-0.082, -2.530e-6, -1.465e-6, 1.064e-6
-0.083, -2.527e-6, -1.465e-6, 1.061e-6
-0.084, -2.514e-6, -1.453e-6, 1.061e-6
-0.085, -2.514e-6, -1.459e-6, 1.055e-6
-0.086, -2.518e-6, -1.456e-6, 1.061e-6
-0.087, -2.508e-6, -1.453e-6, 1.055e-6
-0.088, -2.508e-6, -1.453e-6, 1.055e-6
-0.089, -2.508e-6, -1.453e-6, 1.055e-6
-0.090, -2.502e-6, -1.450e-6, 1.052e-6
-0.091, -2.499e-6, -1.447e-6, 1.052e-6
-0.092, -2.493e-6, -1.441e-6, 1.052e-6
-0.093, -2.496e-6, -1.447e-6, 1.049e-6
-0.094, -2.493e-6, -1.444e-6, 1.049e-6
-0.095, -2.484e-6, -1.441e-6, 1.043e-6
-0.096, -2.481e-6, -1.438e-6, 1.043e-6
-0.097, -2.484e-6, -1.438e-6, 1.046e-6
-0.098, -2.484e-6, -1.438e-6, 1.046e-6
-0.099, -2.478e-6, -1.435e-6, 1.043e-6
-0.100, -2.484e-6, -1.438e-6, 1.046e-6
-0.101, -2.472e-6, -1.429e-6, 1.043e-6
-0.102, -2.466e-6, -1.429e-6, 1.037e-6
-0.103, -2.469e-6, -1.426e-6, 1.043e-6
-0.104, -2.466e-6, -1.426e-6, 1.040e-6
-0.105, -2.460e-6, -1.426e-6, 1.034e-6
-0.106, -2.460e-6, -1.420e-6, 1.040e-6
-0.107, -2.460e-6, -1.423e-6, 1.037e-6
-0.108, -2.457e-6, -1.420e-6, 1.037e-6
-0.109, -2.453e-6, -1.417e-6, 1.037e-6
-0.110, -2.450e-6, -1.417e-6, 1.034e-6
-0.111, -2.450e-6, -1.417e-6, 1.034e-6
-0.112, -2.441e-6, -1.410e-6, 1.031e-6
-0.113, -2.447e-6, -1.417e-6, 1.031e-6
-0.114, -2.444e-6, -1.410e-6, 1.034e-6
-0.115, -2.441e-6, -1.407e-6, 1.034e-6
-0.116, -2.435e-6, -1.407e-6, 1.028e-6
-0.117, -2.438e-6, -1.404e-6, 1.034e-6
-0.118, -2.429e-6, -1.401e-6, 1.028e-6
-0.119, -2.435e-6, -1.407e-6, 1.028e-6
-0.120, -2.435e-6, -1.404e-6, 1.031e-6
-0.121, -2.423e-6, -1.401e-6, 1.022e-6
-0.122, -2.417e-6, -1.398e-6, 1.019e-6
-0.123, -2.414e-6, -1.392e-6, 1.022e-6
-0.124, -2.411e-6, -1.392e-6, 1.019e-6
-0.125, -2.417e-6, -1.395e-6, 1.022e-6
-0.126, -2.417e-6, -1.395e-6, 1.022e-6
-0.127, -2.411e-6, -1.392e-6, 1.019e-6
-0.128, -2.408e-6, -1.389e-6, 1.019e-6
-0.129, -2.408e-6, -1.386e-6, 1.022e-6
-0.130, -2.405e-6, -1.389e-6, 1.016e-6
-0.131, -2.405e-6, -1.386e-6, 1.019e-6
-0.132, -2.402e-6, -1.383e-6, 1.019e-6
-0.133, -2.395e-6, -1.383e-6, 1.012e-6
-0.134, -2.399e-6, -1.383e-6, 1.016e-6
-0.135, -2.386e-6, -1.377e-6, 1.009e-6
-0.136, -2.380e-6, -1.371e-6, 1.009e-6
-0.137, -2.389e-6, -1.374e-6, 1.016e-6
-0.138, -2.386e-6, -1.374e-6, 1.012e-6
-0.139, -2.383e-6, -1.374e-6, 1.009e-6
-0.140, -2.383e-6, -1.374e-6, 1.009e-6
-0.141, -2.377e-6, -1.371e-6, 1.006e-6
-0.142, -2.383e-6, -1.374e-6, 1.009e-6
-0.143, -2.374e-6, -1.368e-6, 1.006e-6
-0.144, -2.368e-6, -1.368e-6, 1.000e-6
-0.145, -2.371e-6, -1.365e-6, 1.006e-6
-0.146, -2.368e-6, -1.365e-6, 1.003e-6
-0.147, -2.368e-6, -1.365e-6, 1.003e-6
-0.148, -2.365e-6, -1.362e-6, 1.003e-6
-0.149, -2.356e-6, -1.356e-6, 1.000e-6
-0.150, -2.356e-6, -1.359e-6, 9.972e-7
-0.151, -2.359e-6, -1.356e-6, 1.003e-6
-0.152, -2.350e-6, -1.352e-6, 9.972e-7
-0.153, -2.353e-6, -1.352e-6, 1.000e-6
-0.154, -2.347e-6, -1.349e-6, 9.972e-7
-0.155, -2.347e-6, -1.352e-6, 9.942e-7
-0.156, -2.347e-6, -1.349e-6, 9.972e-7
-0.157, -2.338e-6, -1.343e-6, 9.942e-7
-0.158, -2.334e-6, -1.346e-6, 9.881e-7
-0.159, -2.331e-6, -1.340e-6, 9.911e-7
-0.160, -2.331e-6, -1.337e-6, 9.942e-7
-0.161, -2.325e-6, -1.340e-6, 9.850e-7
-0.162, -2.328e-6, -1.340e-6, 9.881e-7
-0.163, -2.322e-6, -1.331e-6, 9.911e-7
-0.164, -2.325e-6, -1.337e-6, 9.881e-7
-0.165, -2.319e-6, -1.337e-6, 9.820e-7
-0.166, -2.319e-6, -1.331e-6, 9.881e-7
-0.167, -2.313e-6, -1.331e-6, 9.820e-7
-0.168, -2.310e-6, -1.328e-6, 9.820e-7
-0.169, -2.304e-6, -1.325e-6, 9.789e-7
-0.170, -2.301e-6, -1.325e-6, 9.759e-7
-0.171, -2.304e-6, -1.325e-6, 9.789e-7
-0.172, -2.298e-6, -1.322e-6, 9.759e-7
-0.173, -2.295e-6, -1.322e-6, 9.728e-7
-0.174, -2.292e-6, -1.316e-6, 9.759e-7
-0.175, -2.286e-6, -1.319e-6, 9.667e-7
-0.176, -2.289e-6, -1.316e-6, 9.728e-7
-0.177, -2.283e-6, -1.310e-6, 9.728e-7
-0.178, -2.273e-6, -1.310e-6, 9.637e-7
-0.179, -2.273e-6, -1.310e-6, 9.637e-7
-0.180, -2.273e-6, -1.310e-6, 9.637e-7
-0.181, -2.270e-6, -1.307e-6, 9.637e-7
-0.182, -2.267e-6, -1.307e-6, 9.606e-7
-0.183, -2.267e-6, -1.307e-6, 9.606e-7
-0.184, -2.264e-6, -1.304e-6, 9.606e-7
-0.185, -2.261e-6, -1.301e-6, 9.606e-7
-0.186, -2.258e-6, -1.298e-6, 9.606e-7
-0.187, -2.261e-6, -1.304e-6, 9.575e-7
-0.188, -2.258e-6, -1.298e-6, 9.606e-7
-0.189, -2.249e-6, -1.295e-6, 9.545e-7
-0.190, -2.252e-6, -1.298e-6, 9.545e-7
-0.191, -2.246e-6, -1.291e-6, 9.545e-7
-0.192, -2.237e-6, -1.291e-6, 9.453e-7
-0.193, -2.252e-6, -1.295e-6, 9.575e-7
-0.194, -2.237e-6, -1.288e-6, 9.484e-7
-0.195, -2.237e-6, -1.288e-6, 9.484e-7
-0.196, -2.237e-6, -1.285e-6, 9.514e-7
-0.197, -2.231e-6, -1.279e-6, 9.514e-7
-0.198, -2.231e-6, -1.285e-6, 9.453e-7
-0.199, -2.228e-6, -1.279e-6, 9.484e-7
-0.200, -2.225e-6, -1.279e-6, 9.453e-7
-0.201, -2.231e-6, -1.285e-6, 9.453e-7
-0.202, -2.222e-6, -1.276e-6, 9.453e-7
-0.203, -2.215e-6, -1.276e-6, 9.392e-7
-0.204, -2.218e-6, -1.279e-6, 9.392e-7
-0.205, -2.218e-6, -1.276e-6, 9.423e-7
-0.206, -2.203e-6, -1.270e-6, 9.331e-7
-0.207, -2.209e-6, -1.273e-6, 9.362e-7
-0.208, -2.206e-6, -1.270e-6, 9.362e-7
-0.209, -2.206e-6, -1.270e-6, 9.362e-7
-0.210, -2.209e-6, -1.273e-6, 9.362e-7
-0.211, -2.203e-6, -1.267e-6, 9.362e-7
-0.212, -2.200e-6, -1.270e-6, 9.301e-7
-0.213, -2.194e-6, -1.264e-6, 9.301e-7
-0.214, -2.197e-6, -1.264e-6, 9.331e-7
-0.215, -2.194e-6, -1.264e-6, 9.301e-7
-0.216, -2.191e-6, -1.261e-6, 9.301e-7
-0.217, -2.188e-6, -1.258e-6, 9.301e-7
-0.218, -2.185e-6, -1.261e-6, 9.240e-7
-0.219, -2.188e-6, -1.261e-6, 9.270e-7
-0.220, -2.188e-6, -1.258e-6, 9.301e-7
-0.221, -2.185e-6, -1.258e-6, 9.270e-7
-0.222, -2.179e-6, -1.252e-6, 9.270e-7
-0.223, -2.170e-6, -1.249e-6, 9.209e-7
-0.224, -2.179e-6, -1.255e-6, 9.240e-7
-0.225, -2.173e-6, -1.252e-6, 9.209e-7
-0.226, -2.176e-6, -1.255e-6, 9.209e-7
-0.227, -2.173e-6, -1.252e-6, 9.209e-7
-0.228, -2.170e-6, -1.249e-6, 9.209e-7
-0.229, -2.167e-6, -1.249e-6, 9.179e-7
-0.230, -2.167e-6, -1.246e-6, 9.209e-7
-0.231, -2.161e-6, -1.246e-6, 9.148e-7
-0.232, -2.157e-6, -1.246e-6, 9.118e-7
-0.233, -2.157e-6, -1.240e-6, 9.179e-7
-0.234, -2.151e-6, -1.240e-6, 9.118e-7
-0.235, -2.157e-6, -1.246e-6, 9.118e-7
-0.236, -2.148e-6, -1.237e-6, 9.118e-7
-0.237, -2.142e-6, -1.237e-6, 9.057e-7
-0.238, -2.151e-6, -1.240e-6, 9.118e-7
-0.239, -2.145e-6, -1.233e-6, 9.118e-7
-0.240, -2.142e-6, -1.237e-6, 9.057e-7
-0.241, -2.142e-6, -1.237e-6, 9.057e-7
-0.242, -2.136e-6, -1.227e-6, 9.087e-7
-0.243, -2.136e-6, -1.233e-6, 9.026e-7
-0.244, -2.136e-6, -1.230e-6, 9.057e-7
-0.245, -2.133e-6, -1.227e-6, 9.057e-7
-0.246, -2.127e-6, -1.227e-6, 8.996e-7
-0.247, -2.130e-6, -1.227e-6, 9.026e-7
-0.248, -2.124e-6, -1.221e-6, 9.026e-7
-0.249, -2.124e-6, -1.224e-6, 8.996e-7
-0.250, -2.118e-6, -1.221e-6, 8.965e-7
-0.251, -2.121e-6, -1.221e-6, 8.996e-7
-0.252, -2.118e-6, -1.221e-6, 8.965e-7
-0.253, -2.115e-6, -1.221e-6, 8.935e-7
-0.254, -2.115e-6, -1.218e-6, 8.965e-7
-0.255, -2.112e-6, -1.218e-6, 8.935e-7
-0.256, -2.106e-6, -1.215e-6, 8.904e-7
-0.257, -2.103e-6, -1.212e-6, 8.904e-7
-0.258, -2.103e-6, -1.215e-6, 8.874e-7
-0.259, -2.103e-6, -1.215e-6, 8.874e-7
-0.260, -2.103e-6, -1.212e-6, 8.904e-7
-0.261, -2.096e-6, -1.212e-6, 8.843e-7
-0.262, -2.096e-6, -1.209e-6, 8.874e-7
-0.263, -2.093e-6, -1.212e-6, 8.813e-7
-0.264, -2.096e-6, -1.212e-6, 8.843e-7
-0.265, -2.093e-6, -1.206e-6, 8.874e-7
-0.266, -2.087e-6, -1.206e-6, 8.813e-7
-0.267, -2.087e-6, -1.206e-6, 8.813e-7
-0.268, -2.084e-6, -1.200e-6, 8.843e-7
-0.269, -2.078e-6, -1.203e-6, 8.752e-7
-0.270, -2.084e-6, -1.203e-6, 8.813e-7
-0.271, -2.081e-6, -1.200e-6, 8.813e-7
-0.272, -2.078e-6, -1.203e-6, 8.752e-7
-0.273, -2.072e-6, -1.197e-6, 8.752e-7
-0.274, -2.072e-6, -1.200e-6, 8.721e-7
-0.275, -2.072e-6, -1.200e-6, 8.721e-7
-0.276, -2.072e-6, -1.197e-6, 8.752e-7
-0.277, -2.063e-6, -1.194e-6, 8.691e-7
-0.278, -2.063e-6, -1.191e-6, 8.721e-7
-0.279, -2.066e-6, -1.194e-6, 8.721e-7
-0.280, -2.066e-6, -1.197e-6, 8.691e-7
-0.281, -2.060e-6, -1.191e-6, 8.691e-7
-0.282, -2.060e-6, -1.191e-6, 8.691e-7
-0.283, -2.060e-6, -1.194e-6, 8.660e-7
-0.284, -2.063e-6, -1.191e-6, 8.721e-7
-0.285, -2.057e-6, -1.191e-6, 8.660e-7
-0.286, -2.060e-6, -1.194e-6, 8.660e-7
-0.287, -2.054e-6, -1.188e-6, 8.660e-7
-0.288, -2.048e-6, -1.185e-6, 8.629e-7
-0.289, -2.051e-6, -1.191e-6, 8.599e-7
-0.290, -2.054e-6, -1.188e-6, 8.660e-7
-0.291, -2.048e-6, -1.185e-6, 8.629e-7
-0.292, -2.051e-6, -1.188e-6, 8.629e-7
-0.293, -2.054e-6, -1.185e-6, 8.691e-7
-0.294, -2.042e-6, -1.185e-6, 8.568e-7
-0.295, -2.042e-6, -1.182e-6, 8.599e-7
-0.296, -2.042e-6, -1.182e-6, 8.599e-7
-0.297, -2.038e-6, -1.185e-6, 8.538e-7
-0.298, -2.045e-6, -1.182e-6, 8.629e-7
-0.299, -2.045e-6, -1.185e-6, 8.599e-7
-0.300, -2.045e-6, -1.185e-6, 8.599e-7
-0.301, -2.038e-6, -1.182e-6, 8.568e-7
-0.302, -2.032e-6, -1.176e-6, 8.568e-7
-0.303, -2.035e-6, -1.182e-6, 8.538e-7
-0.304, -2.032e-6, -1.179e-6, 8.538e-7
-0.305, -2.032e-6, -1.179e-6, 8.538e-7
-0.306, -2.032e-6, -1.179e-6, 8.538e-7
-0.307, -2.038e-6, -1.185e-6, 8.538e-7
-0.308, -2.026e-6, -1.176e-6, 8.507e-7
-0.309, -2.038e-6, -1.179e-6, 8.599e-7
-0.310, -2.035e-6, -1.179e-6, 8.568e-7
-0.311, -2.029e-6, -1.179e-6, 8.507e-7
-0.312, -2.023e-6, -1.176e-6, 8.477e-7
-0.313, -2.026e-6, -1.172e-6, 8.538e-7
-0.314, -2.026e-6, -1.179e-6, 8.477e-7
-0.315, -2.026e-6, -1.176e-6, 8.507e-7
-0.316, -2.026e-6, -1.179e-6, 8.477e-7
-0.317, -2.023e-6, -1.179e-6, 8.446e-7
-0.318, -2.023e-6, -1.172e-6, 8.507e-7
-0.319, -2.020e-6, -1.176e-6, 8.446e-7
-0.320, -2.020e-6, -1.176e-6, 8.446e-7
-0.321, -2.020e-6, -1.172e-6, 8.477e-7
-0.322, -2.014e-6, -1.172e-6, 8.416e-7
-0.323, -2.017e-6, -1.172e-6, 8.446e-7
-0.324, -2.023e-6, -1.176e-6, 8.477e-7
-0.325, -2.014e-6, -1.176e-6, 8.385e-7
-0.326, -2.014e-6, -1.172e-6, 8.416e-7
-0.327, -2.017e-6, -1.176e-6, 8.416e-7
-0.328, -2.008e-6, -1.172e-6, 8.355e-7
-0.329, -2.020e-6, -1.176e-6, 8.446e-7
-0.330, -2.002e-6, -1.163e-6, 8.385e-7
-0.331, -2.014e-6, -1.176e-6, 8.385e-7
-0.332, -2.011e-6, -1.172e-6, 8.385e-7
-0.333, -2.005e-6, -1.166e-6, 8.385e-7
-0.334, -2.005e-6, -1.169e-6, 8.355e-7
-0.335, -2.014e-6, -1.176e-6, 8.385e-7
-0.336, -2.005e-6, -1.169e-6, 8.355e-7
-0.337, -2.005e-6, -1.169e-6, 8.355e-7
-0.338, -2.002e-6, -1.172e-6, 8.294e-7
-0.339, -1.999e-6, -1.169e-6, 8.294e-7
-0.340, -2.005e-6, -1.172e-6, 8.324e-7
-0.341, -2.002e-6, -1.169e-6, 8.324e-7
-0.342, -2.002e-6, -1.169e-6, 8.324e-7
-0.343, -1.999e-6, -1.169e-6, 8.294e-7
-0.344, -2.002e-6, -1.169e-6, 8.324e-7
-0.345, -1.996e-6, -1.166e-6, 8.294e-7
-0.346, -1.996e-6, -1.166e-6, 8.294e-7
-0.347, -1.996e-6, -1.169e-6, 8.263e-7
-0.348, -2.002e-6, -1.176e-6, 8.263e-7
-0.349, -1.993e-6, -1.166e-6, 8.263e-7
-0.350, -1.990e-6, -1.166e-6, 8.233e-7
-0.351, -1.990e-6, -1.163e-6, 8.263e-7
-0.352, -1.996e-6, -1.172e-6, 8.233e-7
-0.353, -1.990e-6, -1.166e-6, 8.233e-7
-0.354, -1.987e-6, -1.166e-6, 8.202e-7
-0.355, -1.990e-6, -1.166e-6, 8.233e-7
-0.356, -1.987e-6, -1.169e-6, 8.172e-7
-0.357, -1.987e-6, -1.169e-6, 8.172e-7
-0.358, -1.990e-6, -1.169e-6, 8.202e-7
-0.359, -1.980e-6, -1.166e-6, 8.141e-7
-0.360, -1.990e-6, -1.169e-6, 8.202e-7
-0.361, -1.984e-6, -1.163e-6, 8.202e-7
-0.362, -1.993e-6, -1.176e-6, 8.172e-7
-0.363, -1.990e-6, -1.169e-6, 8.202e-7
-0.364, -1.977e-6, -1.163e-6, 8.141e-7
-0.365, -1.990e-6, -1.172e-6, 8.172e-7
-0.366, -1.990e-6, -1.172e-6, 8.172e-7
-0.367, -1.984e-6, -1.169e-6, 8.141e-7
-0.368, -1.980e-6, -1.169e-6, 8.111e-7
-0.369, -1.987e-6, -1.169e-6, 8.172e-7
-0.370, -1.987e-6, -1.172e-6, 8.141e-7
-0.371, -1.993e-6, -1.179e-6, 8.141e-7
-0.372, -1.990e-6, -1.172e-6, 8.172e-7
-0.373, -1.990e-6, -1.179e-6, 8.111e-7
-0.374, -1.984e-6, -1.172e-6, 8.111e-7
-0.375, -1.987e-6, -1.172e-6, 8.141e-7
-0.376, -1.984e-6, -1.172e-6, 8.111e-7
-0.377, -1.990e-6, -1.179e-6, 8.111e-7
-0.378, -1.987e-6, -1.176e-6, 8.111e-7
-0.379, -1.987e-6, -1.176e-6, 8.111e-7
-0.380, -1.987e-6, -1.179e-6, 8.080e-7
-0.381, -1.984e-6, -1.176e-6, 8.080e-7
-0.382, -1.987e-6, -1.179e-6, 8.080e-7
-0.383, -1.993e-6, -1.182e-6, 8.111e-7
-0.384, -1.990e-6, -1.185e-6, 8.050e-7
-0.385, -1.993e-6, -1.182e-6, 8.111e-7
-0.386, -1.993e-6, -1.182e-6, 8.111e-7
-0.387, -1.993e-6, -1.182e-6, 8.111e-7
-0.388, -1.993e-6, -1.188e-6, 8.050e-7
-0.389, -1.990e-6, -1.185e-6, 8.050e-7
-0.390, -1.987e-6, -1.182e-6, 8.050e-7
-0.391, -1.993e-6, -1.188e-6, 8.050e-7
-0.392, -1.990e-6, -1.185e-6, 8.050e-7
-0.393, -1.990e-6, -1.185e-6, 8.050e-7
-0.394, -1.990e-6, -1.185e-6, 8.050e-7
-0.395, -1.999e-6, -1.191e-6, 8.080e-7
-0.396, -1.996e-6, -1.191e-6, 8.050e-7
-0.397, -1.999e-6, -1.194e-6, 8.050e-7
-0.398, -2.002e-6, -1.197e-6, 8.050e-7
-0.399, -2.005e-6, -1.200e-6, 8.050e-7
-0.400, -2.002e-6, -1.194e-6, 8.080e-7
