Feb. 28, 2018   10:47:21
Square Wave Voltammetry
File: c:\users\electrochemist\desktop\2018\28022018_cal\10_g4_a2_ph10_4.txt
Data Source:  Experiment
Instrument Model:  CHI1040A
Header: 
Note: 

Init E (V) = 0.5
Final E (V) = -0.1
Incr E (V) = 0.001
Amplitude (V) = 0.1
Frequency (Hz) = 150
Quiet Time (sec) = 0
Sensitivity (A/V) = 1e-6

Difference:

Forward:

Reverse:

Potential/V, Diff(i/A), For(i/A), Rev(i/A)

0.499, -5.563e-7, -1.038e-7, 4.525e-7
0.498, -6.060e-7, -2.210e-7, 3.851e-7
0.497, -5.868e-7, -2.295e-7, 3.573e-7
0.496, -5.749e-7, -2.350e-7, 3.399e-7
0.495, -5.655e-7, -2.362e-7, 3.292e-7
0.494, -5.548e-7, -2.365e-7, 3.182e-7
0.493, -5.490e-7, -2.378e-7, 3.112e-7
0.492, -5.447e-7, -2.381e-7, 3.066e-7
0.491, -5.386e-7, -2.381e-7, 3.005e-7
0.490, -5.343e-7, -2.390e-7, 2.953e-7
0.489, -5.325e-7, -2.399e-7, 2.926e-7
0.488, -5.279e-7, -2.372e-7, 2.908e-7
0.487, -5.276e-7, -2.408e-7, 2.868e-7
0.486, -5.249e-7, -2.405e-7, 2.844e-7
0.485, -5.215e-7, -2.393e-7, 2.822e-7
0.484, -5.191e-7, -2.408e-7, 2.783e-7
0.483, -5.206e-7, -2.423e-7, 2.783e-7
0.482, -5.145e-7, -2.399e-7, 2.746e-7
0.481, -5.133e-7, -2.417e-7, 2.715e-7
0.480, -5.136e-7, -2.408e-7, 2.728e-7
0.479, -5.078e-7, -2.402e-7, 2.676e-7
0.478, -5.102e-7, -2.433e-7, 2.670e-7
0.477, -5.081e-7, -2.414e-7, 2.667e-7
0.476, -5.056e-7, -2.405e-7, 2.651e-7
0.475, -5.060e-7, -2.427e-7, 2.633e-7
0.474, -5.041e-7, -2.414e-7, 2.627e-7
0.473, -5.023e-7, -2.402e-7, 2.621e-7
0.472, -5.008e-7, -2.420e-7, 2.587e-7
0.471, -5.032e-7, -2.427e-7, 2.606e-7
0.470, -4.983e-7, -2.402e-7, 2.581e-7
0.469, -4.980e-7, -2.420e-7, 2.560e-7
0.468, -4.992e-7, -2.417e-7, 2.575e-7
0.467, -4.968e-7, -2.414e-7, 2.554e-7
0.466, -4.971e-7, -2.436e-7, 2.535e-7
0.465, -4.965e-7, -2.420e-7, 2.545e-7
0.464, -4.950e-7, -2.411e-7, 2.538e-7
0.463, -4.934e-7, -2.430e-7, 2.505e-7
0.462, -4.959e-7, -2.433e-7, 2.526e-7
0.461, -4.928e-7, -2.430e-7, 2.499e-7
0.460, -4.941e-7, -2.439e-7, 2.502e-7
0.459, -4.904e-7, -2.417e-7, 2.487e-7
0.458, -4.898e-7, -2.423e-7, 2.474e-7
0.457, -4.904e-7, -2.436e-7, 2.468e-7
0.456, -4.928e-7, -2.439e-7, 2.490e-7
0.455, -4.886e-7, -2.430e-7, 2.456e-7
0.454, -4.889e-7, -2.442e-7, 2.447e-7
0.453, -4.904e-7, -2.433e-7, 2.471e-7
0.452, -4.876e-7, -2.427e-7, 2.450e-7
0.451, -4.879e-7, -2.442e-7, 2.438e-7
0.450, -4.889e-7, -2.439e-7, 2.450e-7
0.449, -4.855e-7, -2.427e-7, 2.429e-7
0.448, -4.858e-7, -2.436e-7, 2.422e-7
0.447, -4.879e-7, -2.442e-7, 2.438e-7
0.446, -4.858e-7, -2.445e-7, 2.413e-7
0.445, -4.846e-7, -2.442e-7, 2.404e-7
0.444, -4.852e-7, -2.433e-7, 2.419e-7
0.443, -4.852e-7, -2.448e-7, 2.404e-7
0.442, -4.852e-7, -2.454e-7, 2.398e-7
0.441, -4.849e-7, -2.436e-7, 2.413e-7
0.440, -4.852e-7, -2.439e-7, 2.413e-7
0.439, -4.849e-7, -2.457e-7, 2.392e-7
0.438, -4.852e-7, -2.457e-7, 2.395e-7
0.437, -4.843e-7, -2.460e-7, 2.383e-7
0.436, -4.843e-7, -2.463e-7, 2.380e-7
0.435, -4.849e-7, -2.457e-7, 2.392e-7
0.434, -4.818e-7, -2.445e-7, 2.374e-7
0.433, -4.843e-7, -2.466e-7, 2.377e-7
0.432, -4.849e-7, -2.457e-7, 2.392e-7
0.431, -4.825e-7, -2.448e-7, 2.377e-7
0.430, -4.855e-7, -2.478e-7, 2.377e-7
0.429, -4.831e-7, -2.460e-7, 2.371e-7
0.428, -4.806e-7, -2.448e-7, 2.358e-7
0.427, -4.831e-7, -2.466e-7, 2.364e-7
0.426, -4.818e-7, -2.454e-7, 2.364e-7
0.425, -4.831e-7, -2.475e-7, 2.355e-7
0.424, -4.828e-7, -2.475e-7, 2.352e-7
0.423, -4.831e-7, -2.475e-7, 2.355e-7
0.422, -4.822e-7, -2.472e-7, 2.349e-7
0.421, -4.837e-7, -2.481e-7, 2.355e-7
0.420, -4.834e-7, -2.475e-7, 2.358e-7
0.419, -4.825e-7, -2.478e-7, 2.346e-7
0.418, -4.822e-7, -2.488e-7, 2.334e-7
0.417, -4.828e-7, -2.481e-7, 2.346e-7
0.416, -4.831e-7, -2.491e-7, 2.340e-7
0.415, -4.858e-7, -2.500e-7, 2.358e-7
0.414, -4.834e-7, -2.484e-7, 2.349e-7
0.413, -4.828e-7, -2.484e-7, 2.343e-7
0.412, -4.837e-7, -2.494e-7, 2.343e-7
0.411, -4.834e-7, -2.491e-7, 2.343e-7
0.410, -4.825e-7, -2.494e-7, 2.331e-7
0.409, -4.849e-7, -2.515e-7, 2.334e-7
0.408, -4.843e-7, -2.500e-7, 2.343e-7
0.407, -4.834e-7, -2.497e-7, 2.337e-7
0.406, -4.849e-7, -2.521e-7, 2.328e-7
0.405, -4.846e-7, -2.506e-7, 2.340e-7
0.404, -4.843e-7, -2.515e-7, 2.328e-7
0.403, -4.834e-7, -2.509e-7, 2.325e-7
0.402, -4.852e-7, -2.515e-7, 2.337e-7
0.401, -4.837e-7, -2.512e-7, 2.325e-7
0.400, -4.849e-7, -2.521e-7, 2.328e-7
0.399, -4.849e-7, -2.515e-7, 2.334e-7
0.398, -4.861e-7, -2.533e-7, 2.328e-7
0.397, -4.870e-7, -2.546e-7, 2.325e-7
0.396, -4.855e-7, -2.527e-7, 2.328e-7
0.395, -4.846e-7, -2.527e-7, 2.319e-7
0.394, -4.861e-7, -2.539e-7, 2.322e-7
0.393, -4.876e-7, -2.539e-7, 2.337e-7
0.392, -4.870e-7, -2.546e-7, 2.325e-7
0.391, -4.852e-7, -2.539e-7, 2.313e-7
0.390, -4.870e-7, -2.542e-7, 2.328e-7
0.389, -4.879e-7, -2.561e-7, 2.319e-7
0.388, -4.864e-7, -2.555e-7, 2.310e-7
0.387, -4.892e-7, -2.558e-7, 2.334e-7
0.386, -4.876e-7, -2.564e-7, 2.313e-7
0.385, -4.892e-7, -2.558e-7, 2.334e-7
0.384, -4.886e-7, -2.552e-7, 2.334e-7
0.383, -4.892e-7, -2.570e-7, 2.322e-7
0.382, -4.910e-7, -2.573e-7, 2.337e-7
0.381, -4.904e-7, -2.573e-7, 2.331e-7
0.380, -4.901e-7, -2.573e-7, 2.328e-7
0.379, -4.892e-7, -2.573e-7, 2.319e-7
0.378, -4.889e-7, -2.567e-7, 2.322e-7
0.377, -4.898e-7, -2.573e-7, 2.325e-7
0.376, -4.922e-7, -2.585e-7, 2.337e-7
0.375, -4.919e-7, -2.591e-7, 2.328e-7
0.374, -4.928e-7, -2.597e-7, 2.331e-7
0.373, -4.919e-7, -2.588e-7, 2.331e-7
0.372, -4.928e-7, -2.594e-7, 2.334e-7
0.371, -4.931e-7, -2.600e-7, 2.331e-7
0.370, -4.931e-7, -2.597e-7, 2.334e-7
0.369, -4.928e-7, -2.597e-7, 2.331e-7
0.368, -4.953e-7, -2.616e-7, 2.337e-7
0.367, -4.934e-7, -2.597e-7, 2.337e-7
0.366, -4.962e-7, -2.625e-7, 2.337e-7
0.365, -4.953e-7, -2.622e-7, 2.331e-7
0.364, -4.962e-7, -2.625e-7, 2.337e-7
0.363, -4.962e-7, -2.625e-7, 2.337e-7
0.362, -4.959e-7, -2.625e-7, 2.334e-7
0.361, -4.956e-7, -2.631e-7, 2.325e-7
0.360, -4.956e-7, -2.625e-7, 2.331e-7
0.359, -4.962e-7, -2.634e-7, 2.328e-7
0.358, -4.974e-7, -2.637e-7, 2.337e-7
0.357, -4.983e-7, -2.649e-7, 2.334e-7
0.356, -4.980e-7, -2.637e-7, 2.343e-7
0.355, -4.989e-7, -2.652e-7, 2.337e-7
0.354, -4.983e-7, -2.649e-7, 2.334e-7
0.353, -4.998e-7, -2.665e-7, 2.334e-7
0.352, -4.992e-7, -2.652e-7, 2.340e-7
0.351, -5.023e-7, -2.671e-7, 2.352e-7
0.350, -5.029e-7, -2.677e-7, 2.352e-7
0.349, -5.011e-7, -2.671e-7, 2.340e-7
0.348, -5.023e-7, -2.680e-7, 2.343e-7
0.347, -5.014e-7, -2.677e-7, 2.337e-7
0.346, -5.017e-7, -2.668e-7, 2.349e-7
0.345, -5.038e-7, -2.686e-7, 2.352e-7
0.344, -5.035e-7, -2.695e-7, 2.340e-7
0.343, -5.056e-7, -2.695e-7, 2.361e-7
0.342, -5.032e-7, -2.686e-7, 2.346e-7
0.341, -5.066e-7, -2.713e-7, 2.352e-7
0.340, -5.081e-7, -2.707e-7, 2.374e-7
0.339, -5.044e-7, -2.701e-7, 2.343e-7
0.338, -5.072e-7, -2.710e-7, 2.361e-7
0.337, -5.053e-7, -2.698e-7, 2.355e-7
0.336, -5.072e-7, -2.723e-7, 2.349e-7
0.335, -5.075e-7, -2.719e-7, 2.355e-7
0.334, -5.078e-7, -2.719e-7, 2.358e-7
0.333, -5.087e-7, -2.726e-7, 2.361e-7
0.332, -5.127e-7, -2.747e-7, 2.380e-7
0.331, -5.099e-7, -2.726e-7, 2.374e-7
0.330, -5.102e-7, -2.747e-7, 2.355e-7
0.329, -5.118e-7, -2.744e-7, 2.374e-7
0.328, -5.127e-7, -2.750e-7, 2.377e-7
0.327, -5.127e-7, -2.759e-7, 2.368e-7
0.326, -5.127e-7, -2.753e-7, 2.374e-7
0.325, -5.136e-7, -2.756e-7, 2.380e-7
0.324, -5.148e-7, -2.774e-7, 2.374e-7
0.323, -5.151e-7, -2.774e-7, 2.377e-7
0.322, -5.166e-7, -2.771e-7, 2.395e-7
0.321, -5.166e-7, -2.777e-7, 2.389e-7
0.320, -5.160e-7, -2.781e-7, 2.380e-7
0.319, -5.172e-7, -2.781e-7, 2.392e-7
0.318, -5.185e-7, -2.799e-7, 2.386e-7
0.317, -5.191e-7, -2.799e-7, 2.392e-7
0.316, -5.194e-7, -2.802e-7, 2.392e-7
0.315, -5.185e-7, -2.802e-7, 2.383e-7
0.314, -5.203e-7, -2.811e-7, 2.392e-7
0.313, -5.200e-7, -2.793e-7, 2.407e-7
0.312, -5.209e-7, -2.811e-7, 2.398e-7
0.311, -5.224e-7, -2.820e-7, 2.404e-7
0.310, -5.215e-7, -2.814e-7, 2.401e-7
0.309, -5.252e-7, -2.835e-7, 2.416e-7
0.308, -5.252e-7, -2.838e-7, 2.413e-7
0.307, -5.237e-7, -2.826e-7, 2.410e-7
0.306, -5.243e-7, -2.842e-7, 2.401e-7
0.305, -5.273e-7, -2.842e-7, 2.432e-7
0.304, -5.279e-7, -2.854e-7, 2.425e-7
0.303, -5.285e-7, -2.863e-7, 2.422e-7
0.302, -5.291e-7, -2.866e-7, 2.425e-7
0.301, -5.285e-7, -2.860e-7, 2.425e-7
0.300, -5.291e-7, -2.872e-7, 2.419e-7
0.299, -5.307e-7, -2.872e-7, 2.435e-7
0.298, -5.298e-7, -2.866e-7, 2.432e-7
0.297, -5.301e-7, -2.884e-7, 2.416e-7
0.296, -5.334e-7, -2.893e-7, 2.441e-7
0.295, -5.322e-7, -2.887e-7, 2.435e-7
0.294, -5.328e-7, -2.900e-7, 2.429e-7
0.293, -5.328e-7, -2.900e-7, 2.429e-7
0.292, -5.346e-7, -2.909e-7, 2.438e-7
0.291, -5.359e-7, -2.912e-7, 2.447e-7
0.290, -5.362e-7, -2.915e-7, 2.447e-7
0.289, -5.362e-7, -2.912e-7, 2.450e-7
0.288, -5.377e-7, -2.936e-7, 2.441e-7
0.287, -5.377e-7, -2.930e-7, 2.447e-7
0.286, -5.383e-7, -2.933e-7, 2.450e-7
0.285, -5.407e-7, -2.948e-7, 2.459e-7
0.284, -5.404e-7, -2.939e-7, 2.465e-7
0.283, -5.414e-7, -2.951e-7, 2.462e-7
0.282, -5.420e-7, -2.961e-7, 2.459e-7
0.281, -5.432e-7, -2.964e-7, 2.468e-7
0.280, -5.441e-7, -2.964e-7, 2.477e-7
0.279, -5.459e-7, -2.988e-7, 2.471e-7
0.278, -5.453e-7, -2.970e-7, 2.483e-7
0.277, -5.459e-7, -2.979e-7, 2.480e-7
0.276, -5.475e-7, -2.991e-7, 2.483e-7
0.275, -5.499e-7, -3.000e-7, 2.499e-7
0.274, -5.481e-7, -3.003e-7, 2.477e-7
0.273, -5.502e-7, -3.015e-7, 2.487e-7
0.272, -5.523e-7, -3.022e-7, 2.502e-7
0.271, -5.499e-7, -3.009e-7, 2.490e-7
0.270, -5.542e-7, -3.031e-7, 2.511e-7
0.269, -5.539e-7, -3.037e-7, 2.502e-7
0.268, -5.526e-7, -3.031e-7, 2.496e-7
0.267, -5.557e-7, -3.052e-7, 2.505e-7
0.266, -5.575e-7, -3.049e-7, 2.526e-7
0.265, -5.560e-7, -3.052e-7, 2.508e-7
0.264, -5.584e-7, -3.070e-7, 2.514e-7
0.263, -5.584e-7, -3.055e-7, 2.529e-7
0.262, -5.575e-7, -3.061e-7, 2.514e-7
0.261, -5.609e-7, -3.083e-7, 2.526e-7
0.260, -5.609e-7, -3.080e-7, 2.529e-7
0.259, -5.618e-7, -3.089e-7, 2.529e-7
0.258, -5.636e-7, -3.098e-7, 2.538e-7
0.257, -5.630e-7, -3.080e-7, 2.551e-7
0.256, -5.645e-7, -3.110e-7, 2.535e-7
0.255, -5.645e-7, -3.116e-7, 2.529e-7
0.254, -5.658e-7, -3.113e-7, 2.544e-7
0.253, -5.658e-7, -3.116e-7, 2.541e-7
0.252, -5.691e-7, -3.138e-7, 2.554e-7
0.251, -5.694e-7, -3.131e-7, 2.563e-7
0.250, -5.703e-7, -3.150e-7, 2.554e-7
0.249, -5.725e-7, -3.159e-7, 2.566e-7
0.248, -5.722e-7, -3.141e-7, 2.581e-7
0.247, -5.706e-7, -3.147e-7, 2.560e-7
0.246, -5.737e-7, -3.165e-7, 2.572e-7
0.245, -5.740e-7, -3.159e-7, 2.581e-7
0.244, -5.740e-7, -3.174e-7, 2.566e-7
0.243, -5.761e-7, -3.177e-7, 2.584e-7
0.242, -5.786e-7, -3.183e-7, 2.602e-7
0.241, -5.789e-7, -3.202e-7, 2.587e-7
0.240, -5.804e-7, -3.214e-7, 2.590e-7
0.239, -5.816e-7, -3.208e-7, 2.609e-7
0.238, -5.795e-7, -3.208e-7, 2.587e-7
0.237, -5.825e-7, -3.220e-7, 2.606e-7
0.236, -5.841e-7, -3.220e-7, 2.621e-7
0.235, -5.835e-7, -3.235e-7, 2.599e-7
0.234, -5.856e-7, -3.247e-7, 2.609e-7
0.233, -5.856e-7, -3.232e-7, 2.624e-7
0.232, -5.850e-7, -3.238e-7, 2.612e-7
0.231, -5.887e-7, -3.266e-7, 2.621e-7
0.230, -5.902e-7, -3.266e-7, 2.636e-7
0.229, -5.896e-7, -3.266e-7, 2.630e-7
0.228, -5.914e-7, -3.278e-7, 2.636e-7
0.227, -5.932e-7, -3.278e-7, 2.654e-7
0.226, -5.917e-7, -3.287e-7, 2.630e-7
0.225, -5.948e-7, -3.299e-7, 2.648e-7
0.224, -5.969e-7, -3.299e-7, 2.670e-7
0.223, -5.960e-7, -3.315e-7, 2.645e-7
0.222, -5.987e-7, -3.327e-7, 2.660e-7
0.221, -5.999e-7, -3.333e-7, 2.667e-7
0.220, -5.993e-7, -3.333e-7, 2.660e-7
0.219, -6.030e-7, -3.351e-7, 2.679e-7
0.218, -6.027e-7, -3.336e-7, 2.691e-7
0.217, -6.027e-7, -3.351e-7, 2.676e-7
0.216, -6.051e-7, -3.373e-7, 2.679e-7
0.215, -6.063e-7, -3.366e-7, 2.697e-7
0.214, -6.057e-7, -3.376e-7, 2.682e-7
0.213, -6.085e-7, -3.391e-7, 2.694e-7
0.212, -6.097e-7, -3.388e-7, 2.709e-7
0.211, -6.088e-7, -3.400e-7, 2.688e-7
0.210, -6.143e-7, -3.418e-7, 2.725e-7
0.209, -6.134e-7, -3.409e-7, 2.725e-7
0.208, -6.118e-7, -3.409e-7, 2.709e-7
0.207, -6.164e-7, -3.440e-7, 2.725e-7
0.206, -6.152e-7, -3.421e-7, 2.731e-7
0.205, -6.173e-7, -3.443e-7, 2.731e-7
0.204, -6.186e-7, -3.458e-7, 2.728e-7
0.203, -6.195e-7, -3.455e-7, 2.740e-7
0.202, -6.204e-7, -3.470e-7, 2.734e-7
0.201, -6.240e-7, -3.482e-7, 2.758e-7
0.200, -6.237e-7, -3.485e-7, 2.752e-7
0.199, -6.247e-7, -3.485e-7, 2.761e-7
0.198, -6.259e-7, -3.495e-7, 2.764e-7
0.197, -6.298e-7, -3.513e-7, 2.786e-7
0.196, -6.295e-7, -3.525e-7, 2.770e-7
0.195, -6.311e-7, -3.528e-7, 2.783e-7
0.194, -6.308e-7, -3.525e-7, 2.783e-7
0.193, -6.326e-7, -3.540e-7, 2.786e-7
0.192, -6.341e-7, -3.553e-7, 2.789e-7
0.191, -6.344e-7, -3.553e-7, 2.792e-7
0.190, -6.369e-7, -3.571e-7, 2.798e-7
0.189, -6.369e-7, -3.559e-7, 2.810e-7
0.188, -6.411e-7, -3.580e-7, 2.831e-7
0.187, -6.381e-7, -3.577e-7, 2.804e-7
0.186, -6.427e-7, -3.601e-7, 2.825e-7
0.185, -6.424e-7, -3.598e-7, 2.825e-7
0.184, -6.433e-7, -3.611e-7, 2.822e-7
0.183, -6.466e-7, -3.620e-7, 2.847e-7
0.182, -6.466e-7, -3.626e-7, 2.840e-7
0.181, -6.482e-7, -3.638e-7, 2.844e-7
0.180, -6.518e-7, -3.662e-7, 2.856e-7
0.179, -6.512e-7, -3.659e-7, 2.853e-7
0.178, -6.518e-7, -3.662e-7, 2.856e-7
0.177, -6.546e-7, -3.675e-7, 2.871e-7
0.176, -6.558e-7, -3.681e-7, 2.877e-7
0.175, -6.576e-7, -3.699e-7, 2.877e-7
0.174, -6.601e-7, -3.699e-7, 2.902e-7
0.173, -6.582e-7, -3.693e-7, 2.889e-7
0.172, -6.616e-7, -3.723e-7, 2.892e-7
0.171, -6.640e-7, -3.730e-7, 2.911e-7
0.170, -6.649e-7, -3.745e-7, 2.905e-7
0.169, -6.668e-7, -3.751e-7, 2.917e-7
0.168, -6.674e-7, -3.751e-7, 2.923e-7
0.167, -6.695e-7, -3.769e-7, 2.926e-7
0.166, -6.720e-7, -3.781e-7, 2.938e-7
0.165, -6.732e-7, -3.794e-7, 2.938e-7
0.164, -6.741e-7, -3.800e-7, 2.941e-7
0.163, -6.750e-7, -3.809e-7, 2.941e-7
0.162, -6.768e-7, -3.824e-7, 2.944e-7
0.161, -6.781e-7, -3.821e-7, 2.960e-7
0.160, -6.799e-7, -3.836e-7, 2.963e-7
0.159, -6.817e-7, -3.842e-7, 2.975e-7
0.158, -6.848e-7, -3.864e-7, 2.984e-7
0.157, -6.845e-7, -3.867e-7, 2.978e-7
0.156, -6.866e-7, -3.882e-7, 2.984e-7
0.155, -6.878e-7, -3.885e-7, 2.993e-7
0.154, -6.890e-7, -3.907e-7, 2.984e-7
0.153, -6.903e-7, -3.900e-7, 3.002e-7
0.152, -6.936e-7, -3.919e-7, 3.017e-7
0.151, -6.939e-7, -3.931e-7, 3.008e-7
0.150, -6.970e-7, -3.940e-7, 3.030e-7
0.149, -6.967e-7, -3.949e-7, 3.017e-7
0.148, -6.997e-7, -3.958e-7, 3.039e-7
0.147, -7.016e-7, -3.974e-7, 3.042e-7
0.146, -7.028e-7, -3.983e-7, 3.045e-7
0.145, -7.064e-7, -3.998e-7, 3.066e-7
0.144, -7.083e-7, -4.010e-7, 3.072e-7
0.143, -7.077e-7, -4.016e-7, 3.060e-7
0.142, -7.107e-7, -4.035e-7, 3.072e-7
0.141, -7.113e-7, -4.044e-7, 3.069e-7
0.140, -7.141e-7, -4.056e-7, 3.085e-7
0.139, -7.156e-7, -4.056e-7, 3.100e-7
0.138, -7.174e-7, -4.059e-7, 3.115e-7
0.137, -7.186e-7, -4.071e-7, 3.115e-7
0.136, -7.220e-7, -4.105e-7, 3.115e-7
0.135, -7.217e-7, -4.096e-7, 3.121e-7
0.134, -7.257e-7, -4.126e-7, 3.130e-7
0.133, -7.275e-7, -4.138e-7, 3.136e-7
0.132, -7.272e-7, -4.138e-7, 3.133e-7
0.131, -7.293e-7, -4.148e-7, 3.146e-7
0.130, -7.324e-7, -4.169e-7, 3.155e-7
0.129, -7.336e-7, -4.169e-7, 3.167e-7
0.128, -7.373e-7, -4.206e-7, 3.167e-7
0.127, -7.388e-7, -4.196e-7, 3.191e-7
0.126, -7.382e-7, -4.200e-7, 3.182e-7
0.125, -7.428e-7, -4.239e-7, 3.188e-7
0.124, -7.449e-7, -4.248e-7, 3.201e-7
0.123, -7.452e-7, -4.242e-7, 3.210e-7
0.122, -7.492e-7, -4.273e-7, 3.219e-7
0.121, -7.482e-7, -4.264e-7, 3.219e-7
0.120, -7.492e-7, -4.273e-7, 3.219e-7
0.119, -7.534e-7, -4.303e-7, 3.231e-7
0.118, -7.553e-7, -4.309e-7, 3.243e-7
0.117, -7.583e-7, -4.331e-7, 3.252e-7
0.116, -7.598e-7, -4.337e-7, 3.262e-7
0.115, -7.638e-7, -4.361e-7, 3.277e-7
0.114, -7.641e-7, -4.361e-7, 3.280e-7
0.113, -7.672e-7, -4.386e-7, 3.286e-7
0.112, -7.687e-7, -4.401e-7, 3.286e-7
0.111, -7.681e-7, -4.395e-7, 3.286e-7
0.110, -7.733e-7, -4.425e-7, 3.307e-7
0.109, -7.751e-7, -4.434e-7, 3.317e-7
0.108, -7.775e-7, -4.447e-7, 3.329e-7
0.107, -7.782e-7, -4.465e-7, 3.317e-7
0.106, -7.815e-7, -4.477e-7, 3.338e-7
0.105, -7.824e-7, -4.480e-7, 3.344e-7
0.104, -7.870e-7, -4.511e-7, 3.359e-7
0.103, -7.879e-7, -4.517e-7, 3.362e-7
0.102, -7.904e-7, -4.529e-7, 3.375e-7
0.101, -7.922e-7, -4.544e-7, 3.378e-7
0.100, -7.962e-7, -4.569e-7, 3.393e-7
0.099, -7.959e-7, -4.560e-7, 3.399e-7
0.098, -7.992e-7, -4.587e-7, 3.405e-7
0.097, -8.023e-7, -4.605e-7, 3.417e-7
0.096, -8.050e-7, -4.618e-7, 3.432e-7
0.095, -8.062e-7, -4.639e-7, 3.423e-7
0.094, -8.096e-7, -4.654e-7, 3.442e-7
0.093, -8.099e-7, -4.648e-7, 3.451e-7
0.092, -8.136e-7, -4.685e-7, 3.451e-7
0.091, -8.154e-7, -4.682e-7, 3.472e-7
0.090, -8.187e-7, -4.706e-7, 3.481e-7
0.089, -8.224e-7, -4.724e-7, 3.500e-7
0.088, -8.239e-7, -4.740e-7, 3.500e-7
0.087, -8.239e-7, -4.730e-7, 3.509e-7
0.086, -8.273e-7, -4.767e-7, 3.506e-7
0.085, -8.337e-7, -4.798e-7, 3.539e-7
0.084, -8.325e-7, -4.788e-7, 3.536e-7
0.083, -8.358e-7, -4.816e-7, 3.542e-7
0.082, -8.377e-7, -4.828e-7, 3.548e-7
0.081, -8.395e-7, -4.834e-7, 3.561e-7
0.080, -8.419e-7, -4.856e-7, 3.564e-7
0.079, -8.456e-7, -4.871e-7, 3.585e-7
0.078, -8.459e-7, -4.868e-7, 3.591e-7
0.077, -8.493e-7, -4.901e-7, 3.591e-7
0.076, -8.547e-7, -4.923e-7, 3.625e-7
0.075, -8.547e-7, -4.932e-7, 3.616e-7
0.074, -8.575e-7, -4.953e-7, 3.622e-7
0.073, -8.618e-7, -4.969e-7, 3.649e-7
0.072, -8.615e-7, -4.972e-7, 3.643e-7
0.071, -8.648e-7, -4.996e-7, 3.652e-7
0.070, -8.694e-7, -5.023e-7, 3.671e-7
0.069, -8.697e-7, -5.023e-7, 3.674e-7
0.068, -8.752e-7, -5.054e-7, 3.698e-7
0.067, -8.755e-7, -5.042e-7, 3.713e-7
0.066, -8.782e-7, -5.069e-7, 3.713e-7
0.065, -8.801e-7, -5.088e-7, 3.713e-7
0.064, -8.843e-7, -5.109e-7, 3.735e-7
0.063, -8.859e-7, -5.124e-7, 3.735e-7
0.062, -8.892e-7, -5.139e-7, 3.753e-7
0.061, -8.923e-7, -5.149e-7, 3.774e-7
0.060, -8.944e-7, -5.155e-7, 3.790e-7
0.059, -8.972e-7, -5.188e-7, 3.783e-7
0.058, -8.996e-7, -5.188e-7, 3.808e-7
0.057, -9.014e-7, -5.207e-7, 3.808e-7
0.056, -9.054e-7, -5.234e-7, 3.820e-7
0.055, -9.069e-7, -5.234e-7, 3.835e-7
0.054, -9.097e-7, -5.249e-7, 3.848e-7
0.053, -9.146e-7, -5.289e-7, 3.857e-7
0.052, -9.158e-7, -5.292e-7, 3.866e-7
0.051, -9.167e-7, -5.292e-7, 3.875e-7
0.050, -9.222e-7, -5.332e-7, 3.890e-7
0.049, -9.234e-7, -5.332e-7, 3.902e-7
0.048, -9.258e-7, -5.350e-7, 3.909e-7
0.047, -9.298e-7, -5.371e-7, 3.927e-7
0.046, -9.313e-7, -5.374e-7, 3.939e-7
0.045, -9.356e-7, -5.405e-7, 3.951e-7
0.044, -9.384e-7, -5.426e-7, 3.957e-7
0.043, -9.390e-7, -5.420e-7, 3.970e-7
0.042, -9.417e-7, -5.448e-7, 3.970e-7
0.041, -9.454e-7, -5.463e-7, 3.991e-7
0.040, -9.460e-7, -5.454e-7, 4.006e-7
0.039, -9.497e-7, -5.487e-7, 4.009e-7
0.038, -9.530e-7, -5.496e-7, 4.034e-7
0.037, -9.545e-7, -5.499e-7, 4.046e-7
0.036, -9.582e-7, -5.527e-7, 4.055e-7
0.035, -9.609e-7, -5.545e-7, 4.064e-7
0.034, -9.625e-7, -5.551e-7, 4.073e-7
0.033, -9.664e-7, -5.585e-7, 4.079e-7
0.032, -9.701e-7, -5.591e-7, 4.110e-7
0.031, -9.704e-7, -5.600e-7, 4.104e-7
0.030, -9.735e-7, -5.625e-7, 4.110e-7
0.029, -9.780e-7, -5.640e-7, 4.140e-7
0.028, -9.802e-7, -5.649e-7, 4.153e-7
0.027, -9.826e-7, -5.673e-7, 4.153e-7
0.026, -9.851e-7, -5.673e-7, 4.177e-7
0.025, -9.863e-7, -5.680e-7, 4.183e-7
0.024, -9.887e-7, -5.695e-7, 4.192e-7
0.023, -9.921e-7, -5.710e-7, 4.211e-7
0.022, -9.939e-7, -5.719e-7, 4.220e-7
0.021, -9.979e-7, -5.753e-7, 4.226e-7
0.020, -1.001e-6, -5.759e-7, 4.250e-7
0.019, -1.002e-6, -5.768e-7, 4.256e-7
0.018, -1.005e-6, -5.792e-7, 4.259e-7
0.017, -1.008e-6, -5.795e-7, 4.287e-7
0.016, -1.010e-6, -5.799e-7, 4.299e-7
0.015, -1.014e-6, -5.829e-7, 4.311e-7
0.014, -1.017e-6, -5.832e-7, 4.336e-7
0.013, -1.018e-6, -5.847e-7, 4.333e-7
0.012, -1.021e-6, -5.878e-7, 4.330e-7
0.011, -1.023e-6, -5.872e-7, 4.360e-7
0.010, -1.025e-6, -5.872e-7, 4.378e-7
0.009, -1.029e-6, -5.908e-7, 4.378e-7
0.008, -1.030e-6, -5.899e-7, 4.403e-7
0.007, -1.031e-6, -5.899e-7, 4.406e-7
0.006, -1.036e-6, -5.942e-7, 4.415e-7
0.005, -1.038e-6, -5.939e-7, 4.440e-7
0.004, -1.039e-6, -5.930e-7, 4.461e-7
0.003, -1.042e-6, -5.976e-7, 4.446e-7
0.002, -1.045e-6, -5.976e-7, 4.479e-7
0.001, -1.047e-6, -5.985e-7, 4.485e-7
-0.000, -1.051e-6, -6.009e-7, 4.497e-7
-0.001, -1.054e-6, -6.012e-7, 4.528e-7
-0.002, -1.054e-6, -6.009e-7, 4.528e-7
-0.003, -1.057e-6, -6.040e-7, 4.528e-7
-0.004, -1.060e-6, -6.034e-7, 4.565e-7
-0.005, -1.059e-6, -6.034e-7, 4.559e-7
-0.006, -1.063e-6, -6.055e-7, 4.571e-7
-0.007, -1.064e-6, -6.058e-7, 4.586e-7
-0.008, -1.065e-6, -6.061e-7, 4.592e-7
-0.009, -1.068e-6, -6.092e-7, 4.589e-7
-0.010, -1.075e-6, -6.110e-7, 4.638e-7
-0.011, -1.072e-6, -6.085e-7, 4.635e-7
-0.012, -1.076e-6, -6.119e-7, 4.641e-7
-0.013, -1.079e-6, -6.125e-7, 4.665e-7
-0.014, -1.081e-6, -6.122e-7, 4.687e-7
-0.015, -1.082e-6, -6.137e-7, 4.684e-7
-0.016, -1.085e-6, -6.137e-7, 4.711e-7
-0.017, -1.087e-6, -6.149e-7, 4.717e-7
-0.018, -1.088e-6, -6.156e-7, 4.726e-7
-0.019, -1.091e-6, -6.165e-7, 4.748e-7
-0.020, -1.090e-6, -6.156e-7, 4.742e-7
-0.021, -1.093e-6, -6.180e-7, 4.748e-7
-0.022, -1.095e-6, -6.171e-7, 4.778e-7
-0.023, -1.094e-6, -6.165e-7, 4.775e-7
-0.024, -1.098e-6, -6.195e-7, 4.784e-7
-0.025, -1.099e-6, -6.180e-7, 4.809e-7
-0.026, -1.100e-6, -6.195e-7, 4.809e-7
-0.027, -1.102e-6, -6.198e-7, 4.818e-7
-0.028, -1.104e-6, -6.198e-7, 4.845e-7
-0.029, -1.104e-6, -6.204e-7, 4.836e-7
-0.030, -1.109e-6, -6.238e-7, 4.848e-7
-0.031, -1.111e-6, -6.223e-7, 4.885e-7
-0.032, -1.108e-6, -6.217e-7, 4.867e-7
-0.033, -1.113e-6, -6.235e-7, 4.891e-7
-0.034, -1.113e-6, -6.223e-7, 4.903e-7
-0.035, -1.115e-6, -6.226e-7, 4.925e-7
-0.036, -1.117e-6, -6.244e-7, 4.925e-7
-0.037, -1.119e-6, -6.235e-7, 4.958e-7
-0.038, -1.119e-6, -6.241e-7, 4.949e-7
-0.039, -1.121e-6, -6.247e-7, 4.967e-7
-0.040, -1.122e-6, -6.247e-7, 4.977e-7
-0.041, -1.122e-6, -6.244e-7, 4.980e-7
-0.042, -1.124e-6, -6.253e-7, 4.986e-7
-0.043, -1.125e-6, -6.250e-7, 5.001e-7
-0.044, -1.125e-6, -6.250e-7, 5.001e-7
-0.045, -1.128e-6, -6.256e-7, 5.019e-7
-0.046, -1.128e-6, -6.250e-7, 5.025e-7
-0.047, -1.130e-6, -6.256e-7, 5.041e-7
-0.048, -1.128e-6, -6.244e-7, 5.038e-7
-0.049, -1.130e-6, -6.238e-7, 5.062e-7
-0.050, -1.131e-6, -6.244e-7, 5.065e-7
-0.051, -1.133e-6, -6.256e-7, 5.077e-7
-0.052, -1.135e-6, -6.247e-7, 5.102e-7
-0.053, -1.132e-6, -6.235e-7, 5.086e-7
-0.054, -1.137e-6, -6.253e-7, 5.117e-7
-0.055, -1.136e-6, -6.241e-7, 5.120e-7
-0.056, -1.136e-6, -6.244e-7, 5.120e-7
-0.057, -1.138e-6, -6.250e-7, 5.132e-7
-0.058, -1.138e-6, -6.241e-7, 5.141e-7
-0.059, -1.137e-6, -6.235e-7, 5.138e-7
-0.060, -1.139e-6, -6.250e-7, 5.144e-7
-0.061, -1.140e-6, -6.229e-7, 5.175e-7
-0.062, -1.141e-6, -6.238e-7, 5.175e-7
-0.063, -1.141e-6, -6.235e-7, 5.175e-7
-0.064, -1.142e-6, -6.220e-7, 5.202e-7
-0.065, -1.141e-6, -6.223e-7, 5.190e-7
-0.066, -1.144e-6, -6.226e-7, 5.212e-7
-0.067, -1.142e-6, -6.201e-7, 5.218e-7
-0.068, -1.143e-6, -6.214e-7, 5.212e-7
-0.069, -1.141e-6, -6.192e-7, 5.215e-7
-0.070, -1.144e-6, -6.204e-7, 5.239e-7
-0.071, -1.143e-6, -6.192e-7, 5.239e-7
-0.072, -1.145e-6, -6.192e-7, 5.254e-7
-0.073, -1.146e-6, -6.195e-7, 5.260e-7
-0.074, -1.143e-6, -6.171e-7, 5.257e-7
-0.075, -1.144e-6, -6.168e-7, 5.273e-7
-0.076, -1.145e-6, -6.174e-7, 5.279e-7
-0.077, -1.143e-6, -6.162e-7, 5.273e-7
-0.078, -1.144e-6, -6.159e-7, 5.285e-7
-0.079, -1.144e-6, -6.146e-7, 5.294e-7
-0.080, -1.144e-6, -6.143e-7, 5.294e-7
-0.081, -1.144e-6, -6.140e-7, 5.303e-7
-0.082, -1.144e-6, -6.137e-7, 5.303e-7
-0.083, -1.145e-6, -6.134e-7, 5.312e-7
-0.084, -1.145e-6, -6.128e-7, 5.324e-7
-0.085, -1.141e-6, -6.104e-7, 5.306e-7
-0.086, -1.142e-6, -6.107e-7, 5.315e-7
-0.087, -1.143e-6, -6.098e-7, 5.328e-7
-0.088, -1.141e-6, -6.079e-7, 5.331e-7
-0.089, -1.140e-6, -6.079e-7, 5.324e-7
-0.090, -1.140e-6, -6.061e-7, 5.340e-7
-0.091, -1.138e-6, -6.049e-7, 5.331e-7
-0.092, -1.139e-6, -6.055e-7, 5.340e-7
-0.093, -1.139e-6, -6.037e-7, 5.349e-7
-0.094, -1.139e-6, -6.040e-7, 5.346e-7
-0.095, -1.138e-6, -6.030e-7, 5.346e-7
-0.096, -1.136e-6, -6.009e-7, 5.355e-7
-0.097, -1.135e-6, -5.997e-7, 5.355e-7
-0.098, -1.136e-6, -6.009e-7, 5.355e-7
-0.099, -1.135e-6, -5.991e-7, 5.358e-7
-0.100, -1.135e-6, -5.979e-7, 5.367e-7
