Feb. 28, 2018   10:48:22
Square Wave Voltammetry
File: c:\users\electrochemist\desktop\2018\28022018_cal\11_g3_a5_ph10_1.txt
Data Source:  Experiment
Instrument Model:  CHI1040A
Header: 
Note: 

Init E (V) = 0.5
Final E (V) = -0.1
Incr E (V) = 0.001
Amplitude (V) = 0.1
Frequency (Hz) = 150
Quiet Time (sec) = 0
Sensitivity (A/V) = 1e-6

Difference:

Forward:

Reverse:

Potential/V, Diff(i/A), For(i/A), Rev(i/A)

0.499, -1.364e-6, -1.413e-7, 1.223e-6
0.498, -1.327e-6, -3.257e-7, 1.001e-6
0.497, -1.229e-6, -3.418e-7, 8.873e-7
0.496, -1.160e-6, -3.461e-7, 8.138e-7
0.495, -1.106e-6, -3.476e-7, 7.586e-7
0.494, -1.067e-6, -3.504e-7, 7.165e-7
0.493, -1.035e-6, -3.534e-7, 6.820e-7
0.492, -1.010e-6, -3.531e-7, 6.573e-7
0.491, -9.863e-7, -3.546e-7, 6.316e-7
0.490, -9.649e-7, -3.546e-7, 6.103e-7
0.489, -9.490e-7, -3.559e-7, 5.932e-7
0.488, -9.332e-7, -3.556e-7, 5.776e-7
0.487, -9.201e-7, -3.568e-7, 5.633e-7
0.486, -9.097e-7, -3.577e-7, 5.520e-7
0.485, -8.987e-7, -3.589e-7, 5.398e-7
0.484, -8.880e-7, -3.577e-7, 5.303e-7
0.483, -8.795e-7, -3.592e-7, 5.202e-7
0.482, -8.728e-7, -3.598e-7, 5.129e-7
0.481, -8.612e-7, -3.580e-7, 5.032e-7
0.480, -8.557e-7, -3.583e-7, 4.974e-7
0.479, -8.499e-7, -3.595e-7, 4.903e-7
0.478, -8.416e-7, -3.580e-7, 4.836e-7
0.477, -8.355e-7, -3.586e-7, 4.769e-7
0.476, -8.325e-7, -3.598e-7, 4.726e-7
0.475, -8.261e-7, -3.589e-7, 4.671e-7
0.474, -8.221e-7, -3.598e-7, 4.623e-7
0.473, -8.172e-7, -3.604e-7, 4.568e-7
0.472, -8.111e-7, -3.586e-7, 4.525e-7
0.471, -8.096e-7, -3.598e-7, 4.498e-7
0.470, -8.059e-7, -3.617e-7, 4.443e-7
0.469, -8.035e-7, -3.598e-7, 4.436e-7
0.468, -7.980e-7, -3.604e-7, 4.375e-7
0.467, -7.940e-7, -3.604e-7, 4.336e-7
0.466, -7.925e-7, -3.601e-7, 4.324e-7
0.465, -7.897e-7, -3.611e-7, 4.287e-7
0.464, -7.867e-7, -3.614e-7, 4.253e-7
0.463, -7.849e-7, -3.614e-7, 4.235e-7
0.462, -7.809e-7, -3.611e-7, 4.198e-7
0.461, -7.785e-7, -3.617e-7, 4.168e-7
0.460, -7.766e-7, -3.620e-7, 4.147e-7
0.459, -7.745e-7, -3.620e-7, 4.125e-7
0.458, -7.733e-7, -3.629e-7, 4.104e-7
0.457, -7.693e-7, -3.614e-7, 4.079e-7
0.456, -7.681e-7, -3.629e-7, 4.052e-7
0.455, -7.669e-7, -3.638e-7, 4.031e-7
0.454, -7.644e-7, -3.617e-7, 4.028e-7
0.453, -7.617e-7, -3.635e-7, 3.982e-7
0.452, -7.635e-7, -3.635e-7, 4.000e-7
0.451, -7.595e-7, -3.623e-7, 3.973e-7
0.450, -7.589e-7, -3.641e-7, 3.948e-7
0.449, -7.577e-7, -3.641e-7, 3.936e-7
0.448, -7.553e-7, -3.632e-7, 3.921e-7
0.447, -7.547e-7, -3.641e-7, 3.906e-7
0.446, -7.528e-7, -3.638e-7, 3.890e-7
0.445, -7.537e-7, -3.644e-7, 3.893e-7
0.444, -7.501e-7, -3.647e-7, 3.854e-7
0.443, -7.486e-7, -3.626e-7, 3.860e-7
0.442, -7.470e-7, -3.635e-7, 3.835e-7
0.441, -7.473e-7, -3.641e-7, 3.832e-7
0.440, -7.467e-7, -3.647e-7, 3.820e-7
0.439, -7.446e-7, -3.647e-7, 3.799e-7
0.438, -7.443e-7, -3.656e-7, 3.787e-7
0.437, -7.443e-7, -3.653e-7, 3.790e-7
0.436, -7.437e-7, -3.653e-7, 3.783e-7
0.435, -7.425e-7, -3.669e-7, 3.756e-7
0.434, -7.412e-7, -3.659e-7, 3.753e-7
0.433, -7.382e-7, -3.653e-7, 3.729e-7
0.432, -7.394e-7, -3.675e-7, 3.719e-7
0.431, -7.388e-7, -3.672e-7, 3.716e-7
0.430, -7.400e-7, -3.678e-7, 3.722e-7
0.429, -7.373e-7, -3.672e-7, 3.701e-7
0.428, -7.373e-7, -3.672e-7, 3.701e-7
0.427, -7.339e-7, -3.656e-7, 3.683e-7
0.426, -7.391e-7, -3.705e-7, 3.686e-7
0.425, -7.357e-7, -3.669e-7, 3.689e-7
0.424, -7.339e-7, -3.690e-7, 3.649e-7
0.423, -7.351e-7, -3.696e-7, 3.655e-7
0.422, -7.336e-7, -3.678e-7, 3.658e-7
0.421, -7.336e-7, -3.690e-7, 3.646e-7
0.420, -7.339e-7, -3.705e-7, 3.634e-7
0.419, -7.315e-7, -3.684e-7, 3.631e-7
0.418, -7.315e-7, -3.693e-7, 3.622e-7
0.417, -7.321e-7, -3.711e-7, 3.610e-7
0.416, -7.318e-7, -3.687e-7, 3.631e-7
0.415, -7.309e-7, -3.702e-7, 3.606e-7
0.414, -7.309e-7, -3.714e-7, 3.594e-7
0.413, -7.315e-7, -3.702e-7, 3.613e-7
0.412, -7.284e-7, -3.702e-7, 3.582e-7
0.411, -7.336e-7, -3.739e-7, 3.597e-7
0.410, -7.321e-7, -3.711e-7, 3.610e-7
0.409, -7.299e-7, -3.723e-7, 3.576e-7
0.408, -7.296e-7, -3.723e-7, 3.573e-7
0.407, -7.293e-7, -3.711e-7, 3.582e-7
0.406, -7.278e-7, -3.720e-7, 3.558e-7
0.405, -7.309e-7, -3.736e-7, 3.573e-7
0.404, -7.296e-7, -3.720e-7, 3.576e-7
0.403, -7.278e-7, -3.733e-7, 3.545e-7
0.402, -7.309e-7, -3.748e-7, 3.561e-7
0.401, -7.296e-7, -3.733e-7, 3.564e-7
0.400, -7.299e-7, -3.766e-7, 3.533e-7
0.399, -7.309e-7, -3.763e-7, 3.545e-7
0.398, -7.293e-7, -3.736e-7, 3.558e-7
0.397, -7.269e-7, -3.742e-7, 3.527e-7
0.396, -7.315e-7, -3.775e-7, 3.539e-7
0.395, -7.299e-7, -3.745e-7, 3.555e-7
0.394, -7.290e-7, -3.766e-7, 3.524e-7
0.393, -7.302e-7, -3.775e-7, 3.527e-7
0.392, -7.296e-7, -3.760e-7, 3.536e-7
0.391, -7.302e-7, -3.781e-7, 3.521e-7
0.390, -7.312e-7, -3.778e-7, 3.533e-7
0.389, -7.284e-7, -3.760e-7, 3.524e-7
0.388, -7.299e-7, -3.781e-7, 3.518e-7
0.387, -7.321e-7, -3.788e-7, 3.533e-7
0.386, -7.290e-7, -3.772e-7, 3.518e-7
0.385, -7.293e-7, -3.797e-7, 3.497e-7
0.384, -7.312e-7, -3.800e-7, 3.512e-7
0.383, -7.309e-7, -3.800e-7, 3.509e-7
0.382, -7.309e-7, -3.800e-7, 3.509e-7
0.381, -7.327e-7, -3.809e-7, 3.518e-7
0.380, -7.299e-7, -3.794e-7, 3.506e-7
0.379, -7.309e-7, -3.818e-7, 3.491e-7
0.378, -7.312e-7, -3.818e-7, 3.494e-7
0.377, -7.318e-7, -3.809e-7, 3.509e-7
0.376, -7.333e-7, -3.836e-7, 3.497e-7
0.375, -7.324e-7, -3.824e-7, 3.500e-7
0.374, -7.315e-7, -3.812e-7, 3.503e-7
0.373, -7.330e-7, -3.846e-7, 3.484e-7
0.372, -7.342e-7, -3.849e-7, 3.494e-7
0.371, -7.360e-7, -3.846e-7, 3.515e-7
0.370, -7.327e-7, -3.858e-7, 3.469e-7
0.369, -7.360e-7, -3.864e-7, 3.497e-7
0.368, -7.336e-7, -3.846e-7, 3.490e-7
0.367, -7.327e-7, -3.846e-7, 3.481e-7
0.366, -7.348e-7, -3.858e-7, 3.490e-7
0.365, -7.354e-7, -3.855e-7, 3.500e-7
0.364, -7.348e-7, -3.873e-7, 3.475e-7
0.363, -7.373e-7, -3.885e-7, 3.487e-7
0.362, -7.339e-7, -3.861e-7, 3.478e-7
0.361, -7.360e-7, -3.879e-7, 3.481e-7
0.360, -7.373e-7, -3.879e-7, 3.494e-7
0.359, -7.360e-7, -3.882e-7, 3.478e-7
0.358, -7.382e-7, -3.891e-7, 3.490e-7
0.357, -7.388e-7, -3.903e-7, 3.484e-7
0.356, -7.382e-7, -3.888e-7, 3.494e-7
0.355, -7.391e-7, -3.910e-7, 3.481e-7
0.354, -7.403e-7, -3.903e-7, 3.500e-7
0.353, -7.403e-7, -3.907e-7, 3.497e-7
0.352, -7.391e-7, -3.913e-7, 3.478e-7
0.351, -7.406e-7, -3.919e-7, 3.487e-7
0.350, -7.397e-7, -3.916e-7, 3.481e-7
0.349, -7.409e-7, -3.925e-7, 3.484e-7
0.348, -7.412e-7, -3.928e-7, 3.484e-7
0.347, -7.409e-7, -3.925e-7, 3.484e-7
0.346, -7.425e-7, -3.934e-7, 3.490e-7
0.345, -7.425e-7, -3.937e-7, 3.487e-7
0.344, -7.428e-7, -3.952e-7, 3.475e-7
0.343, -7.434e-7, -3.946e-7, 3.487e-7
0.342, -7.443e-7, -3.952e-7, 3.490e-7
0.341, -7.467e-7, -3.971e-7, 3.497e-7
0.340, -7.461e-7, -3.971e-7, 3.490e-7
0.339, -7.464e-7, -3.958e-7, 3.506e-7
0.338, -7.461e-7, -3.974e-7, 3.487e-7
0.337, -7.461e-7, -3.989e-7, 3.472e-7
0.336, -7.461e-7, -3.977e-7, 3.484e-7
0.335, -7.470e-7, -3.980e-7, 3.490e-7
0.334, -7.482e-7, -3.983e-7, 3.500e-7
0.333, -7.486e-7, -3.998e-7, 3.487e-7
0.332, -7.482e-7, -3.995e-7, 3.487e-7
0.331, -7.504e-7, -4.004e-7, 3.500e-7
0.330, -7.486e-7, -3.995e-7, 3.490e-7
0.329, -7.504e-7, -4.010e-7, 3.494e-7
0.328, -7.519e-7, -4.013e-7, 3.506e-7
0.327, -7.501e-7, -4.010e-7, 3.490e-7
0.326, -7.516e-7, -4.019e-7, 3.497e-7
0.325, -7.547e-7, -4.035e-7, 3.512e-7
0.324, -7.534e-7, -4.035e-7, 3.500e-7
0.323, -7.537e-7, -4.041e-7, 3.497e-7
0.322, -7.553e-7, -4.044e-7, 3.509e-7
0.321, -7.540e-7, -4.038e-7, 3.503e-7
0.320, -7.562e-7, -4.056e-7, 3.506e-7
0.319, -7.568e-7, -4.050e-7, 3.518e-7
0.318, -7.559e-7, -4.050e-7, 3.509e-7
0.317, -7.592e-7, -4.074e-7, 3.518e-7
0.316, -7.565e-7, -4.059e-7, 3.506e-7
0.315, -7.595e-7, -4.077e-7, 3.518e-7
0.314, -7.595e-7, -4.077e-7, 3.518e-7
0.313, -7.598e-7, -4.084e-7, 3.515e-7
0.312, -7.617e-7, -4.090e-7, 3.527e-7
0.311, -7.623e-7, -4.105e-7, 3.518e-7
0.310, -7.638e-7, -4.108e-7, 3.530e-7
0.309, -7.608e-7, -4.099e-7, 3.509e-7
0.308, -7.635e-7, -4.120e-7, 3.515e-7
0.307, -7.644e-7, -4.108e-7, 3.536e-7
0.306, -7.644e-7, -4.114e-7, 3.530e-7
0.305, -7.650e-7, -4.126e-7, 3.524e-7
0.304, -7.663e-7, -4.132e-7, 3.530e-7
0.303, -7.669e-7, -4.132e-7, 3.536e-7
0.302, -7.669e-7, -4.145e-7, 3.524e-7
0.301, -7.678e-7, -4.138e-7, 3.539e-7
0.300, -7.678e-7, -4.151e-7, 3.527e-7
0.299, -7.696e-7, -4.157e-7, 3.539e-7
0.298, -7.717e-7, -4.157e-7, 3.561e-7
0.297, -7.705e-7, -4.166e-7, 3.539e-7
0.296, -7.727e-7, -4.187e-7, 3.539e-7
0.295, -7.721e-7, -4.169e-7, 3.552e-7
0.294, -7.733e-7, -4.184e-7, 3.548e-7
0.293, -7.733e-7, -4.181e-7, 3.552e-7
0.292, -7.751e-7, -4.184e-7, 3.567e-7
0.291, -7.751e-7, -4.196e-7, 3.555e-7
0.290, -7.757e-7, -4.212e-7, 3.545e-7
0.289, -7.772e-7, -4.199e-7, 3.573e-7
0.288, -7.775e-7, -4.218e-7, 3.558e-7
0.287, -7.782e-7, -4.215e-7, 3.567e-7
0.286, -7.791e-7, -4.224e-7, 3.567e-7
0.285, -7.791e-7, -4.230e-7, 3.561e-7
0.284, -7.821e-7, -4.254e-7, 3.567e-7
0.283, -7.821e-7, -4.233e-7, 3.588e-7
0.282, -7.818e-7, -4.254e-7, 3.564e-7
0.281, -7.843e-7, -4.264e-7, 3.579e-7
0.280, -7.864e-7, -4.261e-7, 3.603e-7
0.279, -7.867e-7, -4.282e-7, 3.585e-7
0.278, -7.855e-7, -4.276e-7, 3.579e-7
0.277, -7.888e-7, -4.273e-7, 3.616e-7
0.276, -7.885e-7, -4.291e-7, 3.594e-7
0.275, -7.904e-7, -4.300e-7, 3.603e-7
0.274, -7.885e-7, -4.276e-7, 3.610e-7
0.273, -7.910e-7, -4.306e-7, 3.603e-7
0.272, -7.931e-7, -4.322e-7, 3.610e-7
0.271, -7.913e-7, -4.306e-7, 3.606e-7
0.270, -7.943e-7, -4.337e-7, 3.606e-7
0.269, -7.959e-7, -4.337e-7, 3.622e-7
0.268, -7.968e-7, -4.337e-7, 3.631e-7
0.267, -7.965e-7, -4.343e-7, 3.622e-7
0.266, -7.968e-7, -4.343e-7, 3.625e-7
0.265, -7.977e-7, -4.346e-7, 3.631e-7
0.264, -7.995e-7, -4.367e-7, 3.628e-7
0.263, -7.998e-7, -4.370e-7, 3.628e-7
0.262, -8.023e-7, -4.376e-7, 3.646e-7
0.261, -8.032e-7, -4.395e-7, 3.637e-7
0.260, -8.035e-7, -4.395e-7, 3.640e-7
0.259, -8.017e-7, -4.376e-7, 3.640e-7
0.258, -8.053e-7, -4.413e-7, 3.640e-7
0.257, -8.056e-7, -4.404e-7, 3.652e-7
0.256, -8.062e-7, -4.407e-7, 3.655e-7
0.255, -8.068e-7, -4.422e-7, 3.646e-7
0.254, -8.105e-7, -4.428e-7, 3.677e-7
0.253, -8.081e-7, -4.428e-7, 3.652e-7
0.252, -8.114e-7, -4.462e-7, 3.652e-7
0.251, -8.136e-7, -4.450e-7, 3.686e-7
0.250, -8.139e-7, -4.447e-7, 3.692e-7
0.249, -8.154e-7, -4.480e-7, 3.674e-7
0.248, -8.157e-7, -4.471e-7, 3.686e-7
0.247, -8.169e-7, -4.480e-7, 3.689e-7
0.246, -8.163e-7, -4.499e-7, 3.664e-7
0.245, -8.193e-7, -4.486e-7, 3.707e-7
0.244, -8.193e-7, -4.499e-7, 3.695e-7
0.243, -8.209e-7, -4.517e-7, 3.692e-7
0.242, -8.233e-7, -4.517e-7, 3.716e-7
0.241, -8.218e-7, -4.520e-7, 3.698e-7
0.240, -8.261e-7, -4.553e-7, 3.707e-7
0.239, -8.251e-7, -4.532e-7, 3.719e-7
0.238, -8.248e-7, -4.535e-7, 3.713e-7
0.237, -8.276e-7, -4.560e-7, 3.716e-7
0.236, -8.303e-7, -4.563e-7, 3.741e-7
0.235, -8.297e-7, -4.566e-7, 3.732e-7
0.234, -8.316e-7, -4.590e-7, 3.725e-7
0.233, -8.343e-7, -4.593e-7, 3.750e-7
0.232, -8.309e-7, -4.569e-7, 3.741e-7
0.231, -8.325e-7, -4.605e-7, 3.719e-7
0.230, -8.352e-7, -4.599e-7, 3.753e-7
0.229, -8.361e-7, -4.602e-7, 3.759e-7
0.228, -8.377e-7, -4.624e-7, 3.753e-7
0.227, -8.413e-7, -4.627e-7, 3.786e-7
0.226, -8.398e-7, -4.636e-7, 3.762e-7
0.225, -8.410e-7, -4.645e-7, 3.765e-7
0.224, -8.432e-7, -4.648e-7, 3.783e-7
0.223, -8.447e-7, -4.666e-7, 3.780e-7
0.222, -8.468e-7, -4.672e-7, 3.796e-7
0.221, -8.477e-7, -4.676e-7, 3.802e-7
0.220, -8.480e-7, -4.688e-7, 3.793e-7
0.219, -8.490e-7, -4.697e-7, 3.793e-7
0.218, -8.508e-7, -4.700e-7, 3.808e-7
0.217, -8.526e-7, -4.718e-7, 3.808e-7
0.216, -8.541e-7, -4.730e-7, 3.811e-7
0.215, -8.547e-7, -4.724e-7, 3.823e-7
0.214, -8.547e-7, -4.724e-7, 3.823e-7
0.213, -8.575e-7, -4.752e-7, 3.823e-7
0.212, -8.566e-7, -4.734e-7, 3.832e-7
0.211, -8.581e-7, -4.758e-7, 3.823e-7
0.210, -8.621e-7, -4.788e-7, 3.832e-7
0.209, -8.609e-7, -4.767e-7, 3.841e-7
0.208, -8.636e-7, -4.779e-7, 3.857e-7
0.207, -8.663e-7, -4.810e-7, 3.854e-7
0.206, -8.663e-7, -4.792e-7, 3.872e-7
0.205, -8.673e-7, -4.813e-7, 3.860e-7
0.204, -8.700e-7, -4.828e-7, 3.872e-7
0.203, -8.715e-7, -4.825e-7, 3.890e-7
0.202, -8.721e-7, -4.856e-7, 3.866e-7
0.201, -8.743e-7, -4.853e-7, 3.890e-7
0.200, -8.770e-7, -4.874e-7, 3.896e-7
0.199, -8.767e-7, -4.874e-7, 3.893e-7
0.198, -8.770e-7, -4.880e-7, 3.890e-7
0.197, -8.789e-7, -4.871e-7, 3.918e-7
0.196, -8.819e-7, -4.895e-7, 3.924e-7
0.195, -8.819e-7, -4.911e-7, 3.909e-7
0.194, -8.837e-7, -4.917e-7, 3.921e-7
0.193, -8.853e-7, -4.923e-7, 3.930e-7
0.192, -8.880e-7, -4.947e-7, 3.933e-7
0.191, -8.901e-7, -4.944e-7, 3.957e-7
0.190, -8.908e-7, -4.953e-7, 3.954e-7
0.189, -8.911e-7, -4.965e-7, 3.945e-7
0.188, -8.923e-7, -4.981e-7, 3.942e-7
0.187, -8.953e-7, -4.987e-7, 3.967e-7
0.186, -8.962e-7, -4.990e-7, 3.973e-7
0.185, -8.978e-7, -5.008e-7, 3.970e-7
0.184, -8.990e-7, -5.011e-7, 3.979e-7
0.183, -8.996e-7, -5.011e-7, 3.985e-7
0.182, -9.017e-7, -5.023e-7, 3.994e-7
0.181, -9.057e-7, -5.048e-7, 4.009e-7
0.180, -9.048e-7, -5.048e-7, 4.000e-7
0.179, -9.075e-7, -5.057e-7, 4.018e-7
0.178, -9.075e-7, -5.069e-7, 4.006e-7
0.177, -9.100e-7, -5.072e-7, 4.028e-7
0.176, -9.121e-7, -5.088e-7, 4.034e-7
0.175, -9.139e-7, -5.109e-7, 4.031e-7
0.174, -9.143e-7, -5.103e-7, 4.040e-7
0.173, -9.155e-7, -5.115e-7, 4.040e-7
0.172, -9.197e-7, -5.145e-7, 4.052e-7
0.171, -9.201e-7, -5.136e-7, 4.064e-7
0.170, -9.231e-7, -5.155e-7, 4.076e-7
0.169, -9.240e-7, -5.170e-7, 4.070e-7
0.168, -9.262e-7, -5.179e-7, 4.082e-7
0.167, -9.258e-7, -5.185e-7, 4.073e-7
0.166, -9.292e-7, -5.200e-7, 4.092e-7
0.165, -9.313e-7, -5.200e-7, 4.113e-7
0.164, -9.332e-7, -5.231e-7, 4.101e-7
0.163, -9.347e-7, -5.237e-7, 4.110e-7
0.162, -9.353e-7, -5.246e-7, 4.107e-7
0.161, -9.378e-7, -5.249e-7, 4.128e-7
0.160, -9.387e-7, -5.274e-7, 4.113e-7
0.159, -9.414e-7, -5.280e-7, 4.134e-7
0.158, -9.448e-7, -5.301e-7, 4.147e-7
0.157, -9.466e-7, -5.307e-7, 4.159e-7
0.156, -9.466e-7, -5.304e-7, 4.162e-7
0.155, -9.493e-7, -5.326e-7, 4.168e-7
0.154, -9.506e-7, -5.344e-7, 4.162e-7
0.153, -9.530e-7, -5.350e-7, 4.180e-7
0.152, -9.548e-7, -5.365e-7, 4.183e-7
0.151, -9.573e-7, -5.374e-7, 4.198e-7
0.150, -9.591e-7, -5.387e-7, 4.205e-7
0.149, -9.619e-7, -5.405e-7, 4.214e-7
0.148, -9.619e-7, -5.411e-7, 4.208e-7
0.147, -9.646e-7, -5.417e-7, 4.229e-7
0.146, -9.667e-7, -5.442e-7, 4.226e-7
0.145, -9.704e-7, -5.460e-7, 4.244e-7
0.144, -9.710e-7, -5.463e-7, 4.247e-7
0.143, -9.735e-7, -5.481e-7, 4.253e-7
0.142, -9.753e-7, -5.493e-7, 4.259e-7
0.141, -9.765e-7, -5.503e-7, 4.263e-7
0.140, -9.783e-7, -5.512e-7, 4.272e-7
0.139, -9.820e-7, -5.536e-7, 4.284e-7
0.138, -9.814e-7, -5.527e-7, 4.287e-7
0.137, -9.847e-7, -5.548e-7, 4.299e-7
0.136, -9.887e-7, -5.579e-7, 4.308e-7
0.135, -9.875e-7, -5.573e-7, 4.302e-7
0.134, -9.918e-7, -5.606e-7, 4.311e-7
0.133, -9.936e-7, -5.603e-7, 4.333e-7
0.132, -9.963e-7, -5.622e-7, 4.342e-7
0.131, -9.979e-7, -5.649e-7, 4.330e-7
0.130, -9.997e-7, -5.646e-7, 4.351e-7
0.129, -1.001e-6, -5.661e-7, 4.348e-7
0.128, -1.005e-6, -5.680e-7, 4.369e-7
0.127, -1.006e-6, -5.689e-7, 4.372e-7
0.126, -1.008e-6, -5.692e-7, 4.385e-7
0.125, -1.012e-6, -5.719e-7, 4.400e-7
0.124, -1.012e-6, -5.725e-7, 4.397e-7
0.123, -1.016e-6, -5.753e-7, 4.406e-7
0.122, -1.017e-6, -5.759e-7, 4.415e-7
0.121, -1.021e-6, -5.771e-7, 4.436e-7
0.120, -1.021e-6, -5.783e-7, 4.424e-7
0.119, -1.024e-6, -5.811e-7, 4.427e-7
0.118, -1.027e-6, -5.817e-7, 4.452e-7
0.117, -1.031e-6, -5.835e-7, 4.470e-7
0.116, -1.032e-6, -5.872e-7, 4.449e-7
0.115, -1.034e-6, -5.857e-7, 4.488e-7
0.114, -1.033e-6, -5.872e-7, 4.461e-7
0.113, -1.038e-6, -5.905e-7, 4.470e-7
0.112, -1.040e-6, -5.899e-7, 4.497e-7
0.111, -1.042e-6, -5.918e-7, 4.501e-7
0.110, -1.047e-6, -5.948e-7, 4.519e-7
0.109, -1.049e-6, -5.948e-7, 4.540e-7
0.108, -1.049e-6, -5.954e-7, 4.531e-7
0.107, -1.055e-6, -6.006e-7, 4.540e-7
0.106, -1.056e-6, -5.994e-7, 4.562e-7
0.105, -1.055e-6, -6.003e-7, 4.549e-7
0.104, -1.063e-6, -6.055e-7, 4.571e-7
0.103, -1.063e-6, -6.037e-7, 4.598e-7
0.102, -1.064e-6, -6.067e-7, 4.574e-7
0.101, -1.068e-6, -6.095e-7, 4.583e-7
0.100, -1.071e-6, -6.101e-7, 4.613e-7
0.099, -1.073e-6, -6.119e-7, 4.610e-7
0.098, -1.076e-6, -6.134e-7, 4.626e-7
0.097, -1.081e-6, -6.146e-7, 4.659e-7
0.096, -1.080e-6, -6.156e-7, 4.641e-7
0.095, -1.085e-6, -6.189e-7, 4.659e-7
0.094, -1.085e-6, -6.186e-7, 4.662e-7
0.093, -1.088e-6, -6.217e-7, 4.665e-7
0.092, -1.092e-6, -6.238e-7, 4.687e-7
0.091, -1.094e-6, -6.235e-7, 4.708e-7
0.090, -1.096e-6, -6.262e-7, 4.702e-7
0.089, -1.101e-6, -6.293e-7, 4.714e-7
0.088, -1.102e-6, -6.284e-7, 4.732e-7
0.087, -1.102e-6, -6.296e-7, 4.726e-7
0.086, -1.109e-6, -6.336e-7, 4.751e-7
0.085, -1.112e-6, -6.348e-7, 4.769e-7
0.084, -1.114e-6, -6.378e-7, 4.763e-7
0.083, -1.117e-6, -6.394e-7, 4.775e-7
0.082, -1.118e-6, -6.397e-7, 4.784e-7
0.081, -1.120e-6, -6.415e-7, 4.787e-7
0.080, -1.124e-6, -6.442e-7, 4.800e-7
0.079, -1.126e-6, -6.442e-7, 4.821e-7
0.078, -1.128e-6, -6.473e-7, 4.812e-7
0.077, -1.134e-6, -6.497e-7, 4.839e-7
0.076, -1.137e-6, -6.494e-7, 4.873e-7
0.075, -1.139e-6, -6.534e-7, 4.851e-7
0.074, -1.141e-6, -6.549e-7, 4.864e-7
0.073, -1.144e-6, -6.558e-7, 4.882e-7
0.072, -1.148e-6, -6.583e-7, 4.894e-7
0.071, -1.152e-6, -6.604e-7, 4.913e-7
0.070, -1.155e-6, -6.616e-7, 4.937e-7
0.069, -1.157e-6, -6.653e-7, 4.919e-7
0.068, -1.161e-6, -6.656e-7, 4.949e-7
0.067, -1.161e-6, -6.653e-7, 4.955e-7
0.066, -1.166e-6, -6.696e-7, 4.964e-7
0.065, -1.167e-6, -6.702e-7, 4.970e-7
0.064, -1.171e-6, -6.717e-7, 4.992e-7
0.063, -1.174e-6, -6.748e-7, 4.989e-7
0.062, -1.179e-6, -6.772e-7, 5.016e-7
0.061, -1.179e-6, -6.775e-7, 5.016e-7
0.060, -1.182e-6, -6.793e-7, 5.025e-7
0.059, -1.185e-6, -6.818e-7, 5.035e-7
0.058, -1.189e-6, -6.839e-7, 5.047e-7
0.057, -1.194e-6, -6.867e-7, 5.071e-7
0.056, -1.196e-6, -6.876e-7, 5.083e-7
0.055, -1.198e-6, -6.891e-7, 5.089e-7
0.054, -1.201e-6, -6.915e-7, 5.093e-7
0.053, -1.205e-6, -6.934e-7, 5.117e-7
0.052, -1.207e-6, -6.937e-7, 5.135e-7
0.051, -1.208e-6, -6.964e-7, 5.120e-7
0.050, -1.214e-6, -6.992e-7, 5.151e-7
0.049, -1.217e-6, -6.998e-7, 5.172e-7
0.048, -1.220e-6, -7.034e-7, 5.166e-7
0.047, -1.224e-6, -7.053e-7, 5.184e-7
0.046, -1.227e-6, -7.065e-7, 5.202e-7
0.045, -1.231e-6, -7.099e-7, 5.215e-7
0.044, -1.233e-6, -7.111e-7, 5.218e-7
0.043, -1.234e-6, -7.105e-7, 5.236e-7
0.042, -1.240e-6, -7.147e-7, 5.251e-7
0.041, -1.243e-6, -7.163e-7, 5.270e-7
0.040, -1.246e-6, -7.178e-7, 5.282e-7
0.039, -1.246e-6, -7.184e-7, 5.276e-7
0.038, -1.251e-6, -7.211e-7, 5.303e-7
0.037, -1.255e-6, -7.230e-7, 5.324e-7
0.036, -1.258e-6, -7.251e-7, 5.331e-7
0.035, -1.260e-6, -7.266e-7, 5.337e-7
0.034, -1.262e-6, -7.282e-7, 5.343e-7
0.033, -1.267e-6, -7.309e-7, 5.358e-7
0.032, -1.271e-6, -7.333e-7, 5.376e-7
0.031, -1.274e-6, -7.352e-7, 5.385e-7
0.030, -1.277e-6, -7.367e-7, 5.404e-7
0.029, -1.281e-6, -7.388e-7, 5.422e-7
0.028, -1.283e-6, -7.391e-7, 5.440e-7
0.027, -1.286e-6, -7.413e-7, 5.447e-7
0.026, -1.288e-6, -7.428e-7, 5.456e-7
0.025, -1.292e-6, -7.453e-7, 5.468e-7
0.024, -1.296e-6, -7.477e-7, 5.480e-7
0.023, -1.298e-6, -7.483e-7, 5.501e-7
0.022, -1.301e-6, -7.498e-7, 5.508e-7
0.021, -1.306e-6, -7.523e-7, 5.538e-7
0.020, -1.309e-6, -7.538e-7, 5.556e-7
0.019, -1.310e-6, -7.547e-7, 5.556e-7
0.018, -1.313e-6, -7.575e-7, 5.559e-7
0.017, -1.316e-6, -7.584e-7, 5.578e-7
0.016, -1.319e-6, -7.596e-7, 5.596e-7
0.015, -1.322e-6, -7.608e-7, 5.611e-7
0.014, -1.328e-6, -7.651e-7, 5.630e-7
0.013, -1.328e-6, -7.657e-7, 5.620e-7
0.012, -1.332e-6, -7.678e-7, 5.645e-7
0.011, -1.334e-6, -7.684e-7, 5.660e-7
0.010, -1.339e-6, -7.712e-7, 5.681e-7
0.009, -1.341e-6, -7.718e-7, 5.694e-7
0.008, -1.344e-6, -7.727e-7, 5.715e-7
0.007, -1.347e-6, -7.752e-7, 5.721e-7
0.006, -1.351e-6, -7.770e-7, 5.736e-7
0.005, -1.354e-6, -7.785e-7, 5.755e-7
0.004, -1.356e-6, -7.797e-7, 5.764e-7
0.003, -1.359e-6, -7.806e-7, 5.788e-7
0.002, -1.362e-6, -7.822e-7, 5.801e-7
0.001, -1.366e-6, -7.858e-7, 5.804e-7
-0.000, -1.367e-6, -7.852e-7, 5.819e-7
-0.001, -1.372e-6, -7.886e-7, 5.834e-7
-0.002, -1.374e-6, -7.892e-7, 5.852e-7
-0.003, -1.378e-6, -7.901e-7, 5.880e-7
-0.004, -1.379e-6, -7.916e-7, 5.871e-7
-0.005, -1.383e-6, -7.935e-7, 5.895e-7
-0.006, -1.386e-6, -7.944e-7, 5.920e-7
-0.007, -1.389e-6, -7.971e-7, 5.920e-7
-0.008, -1.391e-6, -7.977e-7, 5.935e-7
-0.009, -1.393e-6, -7.983e-7, 5.950e-7
-0.010, -1.396e-6, -7.993e-7, 5.971e-7
-0.011, -1.399e-6, -8.020e-7, 5.971e-7
-0.012, -1.402e-6, -8.023e-7, 5.993e-7
-0.013, -1.403e-6, -8.023e-7, 6.005e-7
-0.014, -1.407e-6, -8.060e-7, 6.008e-7
-0.015, -1.412e-6, -8.072e-7, 6.048e-7
-0.016, -1.411e-6, -8.075e-7, 6.032e-7
-0.017, -1.416e-6, -8.087e-7, 6.069e-7
-0.018, -1.416e-6, -8.090e-7, 6.072e-7
-0.019, -1.420e-6, -8.118e-7, 6.084e-7
-0.020, -1.422e-6, -8.121e-7, 6.100e-7
-0.021, -1.425e-6, -8.127e-7, 6.124e-7
-0.022, -1.426e-6, -8.139e-7, 6.118e-7
-0.023, -1.431e-6, -8.170e-7, 6.142e-7
-0.024, -1.432e-6, -8.164e-7, 6.161e-7
-0.025, -1.436e-6, -8.182e-7, 6.182e-7
-0.026, -1.436e-6, -8.176e-7, 6.185e-7
-0.027, -1.440e-6, -8.197e-7, 6.200e-7
-0.028, -1.442e-6, -8.206e-7, 6.219e-7
-0.029, -1.446e-6, -8.209e-7, 6.252e-7
-0.030, -1.446e-6, -8.218e-7, 6.240e-7
-0.031, -1.448e-6, -8.225e-7, 6.255e-7
-0.032, -1.452e-6, -8.246e-7, 6.277e-7
-0.033, -1.453e-6, -8.246e-7, 6.286e-7
-0.034, -1.455e-6, -8.258e-7, 6.292e-7
-0.035, -1.459e-6, -8.273e-7, 6.319e-7
-0.036, -1.459e-6, -8.255e-7, 6.335e-7
-0.037, -1.462e-6, -8.289e-7, 6.331e-7
-0.038, -1.467e-6, -8.304e-7, 6.368e-7
-0.039, -1.465e-6, -8.276e-7, 6.371e-7
-0.040, -1.467e-6, -8.301e-7, 6.368e-7
-0.041, -1.471e-6, -8.310e-7, 6.396e-7
-0.042, -1.471e-6, -8.307e-7, 6.405e-7
-0.043, -1.474e-6, -8.328e-7, 6.414e-7
-0.044, -1.476e-6, -8.328e-7, 6.432e-7
-0.045, -1.477e-6, -8.325e-7, 6.441e-7
-0.046, -1.478e-6, -8.337e-7, 6.438e-7
-0.047, -1.481e-6, -8.344e-7, 6.469e-7
-0.048, -1.481e-6, -8.328e-7, 6.478e-7
-0.049, -1.483e-6, -8.359e-7, 6.469e-7
-0.050, -1.485e-6, -8.350e-7, 6.499e-7
-0.051, -1.486e-6, -8.341e-7, 6.518e-7
-0.052, -1.488e-6, -8.359e-7, 6.521e-7
-0.053, -1.489e-6, -8.353e-7, 6.539e-7
-0.054, -1.491e-6, -8.368e-7, 6.545e-7
-0.055, -1.492e-6, -8.386e-7, 6.536e-7
-0.056, -1.494e-6, -8.380e-7, 6.563e-7
-0.057, -1.494e-6, -8.362e-7, 6.582e-7
-0.058, -1.497e-6, -8.395e-7, 6.579e-7
-0.059, -1.499e-6, -8.374e-7, 6.612e-7
-0.060, -1.496e-6, -8.368e-7, 6.597e-7
-0.061, -1.501e-6, -8.389e-7, 6.618e-7
-0.062, -1.504e-6, -8.386e-7, 6.649e-7
-0.063, -1.502e-6, -8.371e-7, 6.649e-7
-0.064, -1.503e-6, -8.398e-7, 6.631e-7
-0.065, -1.507e-6, -8.389e-7, 6.676e-7
-0.066, -1.506e-6, -8.386e-7, 6.673e-7
-0.067, -1.507e-6, -8.402e-7, 6.667e-7
-0.068, -1.508e-6, -8.383e-7, 6.695e-7
-0.069, -1.506e-6, -8.377e-7, 6.685e-7
-0.070, -1.509e-6, -8.392e-7, 6.695e-7
-0.071, -1.511e-6, -8.377e-7, 6.728e-7
-0.072, -1.510e-6, -8.377e-7, 6.725e-7
-0.073, -1.511e-6, -8.395e-7, 6.716e-7
-0.074, -1.513e-6, -8.389e-7, 6.743e-7
-0.075, -1.511e-6, -8.362e-7, 6.750e-7
-0.076, -1.513e-6, -8.389e-7, 6.743e-7
-0.077, -1.514e-6, -8.374e-7, 6.765e-7
-0.078, -1.513e-6, -8.365e-7, 6.768e-7
-0.079, -1.516e-6, -8.389e-7, 6.774e-7
-0.080, -1.517e-6, -8.374e-7, 6.792e-7
-0.081, -1.517e-6, -8.368e-7, 6.798e-7
-0.082, -1.517e-6, -8.380e-7, 6.789e-7
-0.083, -1.518e-6, -8.356e-7, 6.823e-7
-0.084, -1.515e-6, -8.334e-7, 6.814e-7
-0.085, -1.515e-6, -8.350e-7, 6.804e-7
-0.086, -1.519e-6, -8.334e-7, 6.853e-7
-0.087, -1.517e-6, -8.341e-7, 6.832e-7
-0.088, -1.519e-6, -8.347e-7, 6.844e-7
-0.089, -1.517e-6, -8.319e-7, 6.850e-7
-0.090, -1.516e-6, -8.310e-7, 6.850e-7
-0.091, -1.517e-6, -8.331e-7, 6.841e-7
-0.092, -1.518e-6, -8.313e-7, 6.869e-7
-0.093, -1.516e-6, -8.301e-7, 6.862e-7
-0.094, -1.518e-6, -8.307e-7, 6.878e-7
-0.095, -1.518e-6, -8.289e-7, 6.887e-7
-0.096, -1.515e-6, -8.279e-7, 6.875e-7
-0.097, -1.518e-6, -8.295e-7, 6.890e-7
-0.098, -1.517e-6, -8.273e-7, 6.899e-7
-0.099, -1.515e-6, -8.270e-7, 6.884e-7
-0.100, -1.516e-6, -8.264e-7, 6.896e-7
