Feb. 28, 2018   10:50:16
Square Wave Voltammetry
File: c:\users\electrochemist\desktop\2018\28022018_cal\12_g3_a6_ph10_2.txt
Data Source:  Experiment
Instrument Model:  CHI1040A
Header: 
Note: 

Init E (V) = 0.5
Final E (V) = -0.1
Incr E (V) = 0.001
Amplitude (V) = 0.1
Frequency (Hz) = 150
Quiet Time (sec) = 0
Sensitivity (A/V) = 1e-6

Difference:

Forward:

Reverse:

Potential/V, Diff(i/A), For(i/A), Rev(i/A)

0.499, -7.379e-7, -1.328e-7, 6.051e-7
0.498, -8.117e-7, -2.985e-7, 5.132e-7
0.497, -7.940e-7, -3.147e-7, 4.794e-7
0.496, -7.797e-7, -3.186e-7, 4.610e-7
0.495, -7.669e-7, -3.217e-7, 4.452e-7
0.494, -7.577e-7, -3.260e-7, 4.317e-7
0.493, -7.501e-7, -3.260e-7, 4.241e-7
0.492, -7.425e-7, -3.272e-7, 4.153e-7
0.491, -7.363e-7, -3.284e-7, 4.079e-7
0.490, -7.342e-7, -3.287e-7, 4.055e-7
0.489, -7.293e-7, -3.287e-7, 4.006e-7
0.488, -7.278e-7, -3.327e-7, 3.951e-7
0.487, -7.244e-7, -3.315e-7, 3.930e-7
0.486, -7.183e-7, -3.315e-7, 3.869e-7
0.485, -7.177e-7, -3.330e-7, 3.848e-7
0.484, -7.159e-7, -3.330e-7, 3.829e-7
0.483, -7.135e-7, -3.342e-7, 3.793e-7
0.482, -7.141e-7, -3.366e-7, 3.774e-7
0.481, -7.104e-7, -3.342e-7, 3.762e-7
0.480, -7.052e-7, -3.336e-7, 3.716e-7
0.479, -7.049e-7, -3.357e-7, 3.692e-7
0.478, -7.031e-7, -3.339e-7, 3.692e-7
0.477, -7.022e-7, -3.366e-7, 3.655e-7
0.476, -7.016e-7, -3.360e-7, 3.655e-7
0.475, -7.009e-7, -3.360e-7, 3.649e-7
0.474, -6.958e-7, -3.339e-7, 3.619e-7
0.473, -6.982e-7, -3.366e-7, 3.616e-7
0.472, -6.964e-7, -3.366e-7, 3.597e-7
0.471, -6.942e-7, -3.363e-7, 3.579e-7
0.470, -6.958e-7, -3.388e-7, 3.570e-7
0.469, -6.933e-7, -3.376e-7, 3.558e-7
0.468, -6.924e-7, -3.376e-7, 3.548e-7
0.467, -6.915e-7, -3.394e-7, 3.521e-7
0.466, -6.927e-7, -3.379e-7, 3.548e-7
0.465, -6.900e-7, -3.385e-7, 3.515e-7
0.464, -6.906e-7, -3.406e-7, 3.500e-7
0.463, -6.912e-7, -3.400e-7, 3.512e-7
0.462, -6.866e-7, -3.394e-7, 3.472e-7
0.461, -6.863e-7, -3.391e-7, 3.472e-7
0.460, -6.869e-7, -3.400e-7, 3.469e-7
0.459, -6.851e-7, -3.400e-7, 3.451e-7
0.458, -6.872e-7, -3.409e-7, 3.463e-7
0.457, -6.851e-7, -3.406e-7, 3.445e-7
0.456, -6.820e-7, -3.397e-7, 3.423e-7
0.455, -6.848e-7, -3.421e-7, 3.426e-7
0.454, -6.854e-7, -3.412e-7, 3.442e-7
0.453, -6.842e-7, -3.412e-7, 3.429e-7
0.452, -6.839e-7, -3.421e-7, 3.417e-7
0.451, -6.839e-7, -3.418e-7, 3.420e-7
0.450, -6.802e-7, -3.415e-7, 3.387e-7
0.449, -6.829e-7, -3.437e-7, 3.393e-7
0.448, -6.811e-7, -3.415e-7, 3.396e-7
0.447, -6.808e-7, -3.418e-7, 3.390e-7
0.446, -6.826e-7, -3.443e-7, 3.384e-7
0.445, -6.817e-7, -3.443e-7, 3.375e-7
0.444, -6.808e-7, -3.440e-7, 3.368e-7
0.443, -6.836e-7, -3.449e-7, 3.387e-7
0.442, -6.805e-7, -3.434e-7, 3.371e-7
0.441, -6.805e-7, -3.452e-7, 3.353e-7
0.440, -6.808e-7, -3.455e-7, 3.353e-7
0.439, -6.817e-7, -3.458e-7, 3.359e-7
0.438, -6.814e-7, -3.464e-7, 3.350e-7
0.437, -6.823e-7, -3.476e-7, 3.347e-7
0.436, -6.805e-7, -3.455e-7, 3.350e-7
0.435, -6.805e-7, -3.467e-7, 3.338e-7
0.434, -6.793e-7, -3.464e-7, 3.329e-7
0.433, -6.793e-7, -3.458e-7, 3.335e-7
0.432, -6.814e-7, -3.476e-7, 3.338e-7
0.431, -6.829e-7, -3.479e-7, 3.350e-7
0.430, -6.787e-7, -3.467e-7, 3.320e-7
0.429, -6.805e-7, -3.479e-7, 3.326e-7
0.428, -6.820e-7, -3.492e-7, 3.329e-7
0.427, -6.811e-7, -3.488e-7, 3.323e-7
0.426, -6.808e-7, -3.495e-7, 3.314e-7
0.425, -6.814e-7, -3.501e-7, 3.314e-7
0.424, -6.808e-7, -3.498e-7, 3.310e-7
0.423, -6.811e-7, -3.492e-7, 3.320e-7
0.422, -6.799e-7, -3.492e-7, 3.307e-7
0.421, -6.826e-7, -3.510e-7, 3.317e-7
0.420, -6.826e-7, -3.510e-7, 3.317e-7
0.419, -6.817e-7, -3.510e-7, 3.307e-7
0.418, -6.826e-7, -3.507e-7, 3.320e-7
0.417, -6.811e-7, -3.513e-7, 3.298e-7
0.416, -6.836e-7, -3.531e-7, 3.304e-7
0.415, -6.845e-7, -3.537e-7, 3.307e-7
0.414, -6.832e-7, -3.534e-7, 3.298e-7
0.413, -6.814e-7, -3.513e-7, 3.301e-7
0.412, -6.814e-7, -3.525e-7, 3.289e-7
0.411, -6.826e-7, -3.534e-7, 3.292e-7
0.410, -6.851e-7, -3.546e-7, 3.304e-7
0.409, -6.826e-7, -3.540e-7, 3.286e-7
0.408, -6.848e-7, -3.556e-7, 3.292e-7
0.407, -6.857e-7, -3.543e-7, 3.314e-7
0.406, -6.872e-7, -3.565e-7, 3.307e-7
0.405, -6.854e-7, -3.565e-7, 3.289e-7
0.404, -6.845e-7, -3.556e-7, 3.289e-7
0.403, -6.872e-7, -3.583e-7, 3.289e-7
0.402, -6.884e-7, -3.586e-7, 3.298e-7
0.401, -6.890e-7, -3.571e-7, 3.320e-7
0.400, -6.875e-7, -3.577e-7, 3.298e-7
0.399, -6.884e-7, -3.586e-7, 3.298e-7
0.398, -6.894e-7, -3.592e-7, 3.301e-7
0.397, -6.897e-7, -3.598e-7, 3.298e-7
0.396, -6.878e-7, -3.589e-7, 3.289e-7
0.395, -6.894e-7, -3.598e-7, 3.295e-7
0.394, -6.897e-7, -3.601e-7, 3.295e-7
0.393, -6.881e-7, -3.601e-7, 3.280e-7
0.392, -6.897e-7, -3.611e-7, 3.286e-7
0.391, -6.903e-7, -3.623e-7, 3.280e-7
0.390, -6.903e-7, -3.629e-7, 3.274e-7
0.389, -6.918e-7, -3.620e-7, 3.298e-7
0.388, -6.912e-7, -3.620e-7, 3.292e-7
0.387, -6.942e-7, -3.650e-7, 3.292e-7
0.386, -6.945e-7, -3.644e-7, 3.301e-7
0.385, -6.933e-7, -3.629e-7, 3.304e-7
0.384, -6.933e-7, -3.650e-7, 3.283e-7
0.383, -6.952e-7, -3.647e-7, 3.304e-7
0.382, -6.942e-7, -3.638e-7, 3.304e-7
0.381, -6.973e-7, -3.678e-7, 3.295e-7
0.380, -6.988e-7, -3.678e-7, 3.310e-7
0.379, -6.958e-7, -3.672e-7, 3.286e-7
0.378, -6.994e-7, -3.684e-7, 3.310e-7
0.377, -6.994e-7, -3.681e-7, 3.314e-7
0.376, -6.973e-7, -3.675e-7, 3.298e-7
0.375, -6.997e-7, -3.684e-7, 3.314e-7
0.374, -6.979e-7, -3.675e-7, 3.304e-7
0.373, -7.000e-7, -3.708e-7, 3.292e-7
0.372, -7.019e-7, -3.711e-7, 3.307e-7
0.371, -6.988e-7, -3.693e-7, 3.295e-7
0.370, -7.003e-7, -3.708e-7, 3.295e-7
0.369, -7.040e-7, -3.726e-7, 3.314e-7
0.368, -7.040e-7, -3.717e-7, 3.323e-7
0.367, -7.037e-7, -3.733e-7, 3.304e-7
0.366, -7.046e-7, -3.736e-7, 3.310e-7
0.365, -7.046e-7, -3.726e-7, 3.320e-7
0.364, -7.040e-7, -3.742e-7, 3.298e-7
0.363, -7.071e-7, -3.754e-7, 3.317e-7
0.362, -7.080e-7, -3.757e-7, 3.323e-7
0.361, -7.074e-7, -3.754e-7, 3.320e-7
0.360, -7.104e-7, -3.778e-7, 3.326e-7
0.359, -7.089e-7, -3.766e-7, 3.323e-7
0.358, -7.107e-7, -3.772e-7, 3.335e-7
0.357, -7.110e-7, -3.769e-7, 3.341e-7
0.356, -7.113e-7, -3.775e-7, 3.338e-7
0.355, -7.116e-7, -3.791e-7, 3.326e-7
0.354, -7.113e-7, -3.778e-7, 3.335e-7
0.353, -7.122e-7, -3.788e-7, 3.335e-7
0.352, -7.147e-7, -3.815e-7, 3.332e-7
0.351, -7.138e-7, -3.806e-7, 3.332e-7
0.350, -7.165e-7, -3.821e-7, 3.344e-7
0.349, -7.165e-7, -3.818e-7, 3.347e-7
0.348, -7.162e-7, -3.812e-7, 3.350e-7
0.347, -7.180e-7, -3.827e-7, 3.353e-7
0.346, -7.180e-7, -3.830e-7, 3.350e-7
0.345, -7.196e-7, -3.839e-7, 3.356e-7
0.344, -7.199e-7, -3.842e-7, 3.356e-7
0.343, -7.208e-7, -3.855e-7, 3.353e-7
0.342, -7.226e-7, -3.867e-7, 3.359e-7
0.341, -7.196e-7, -3.839e-7, 3.356e-7
0.340, -7.244e-7, -3.876e-7, 3.368e-7
0.339, -7.235e-7, -3.873e-7, 3.362e-7
0.338, -7.244e-7, -3.867e-7, 3.378e-7
0.337, -7.248e-7, -3.879e-7, 3.368e-7
0.336, -7.281e-7, -3.882e-7, 3.399e-7
0.335, -7.260e-7, -3.891e-7, 3.368e-7
0.334, -7.290e-7, -3.925e-7, 3.365e-7
0.333, -7.290e-7, -3.903e-7, 3.387e-7
0.332, -7.290e-7, -3.903e-7, 3.387e-7
0.331, -7.336e-7, -3.937e-7, 3.399e-7
0.330, -7.327e-7, -3.925e-7, 3.402e-7
0.329, -7.309e-7, -3.925e-7, 3.384e-7
0.328, -7.348e-7, -3.949e-7, 3.399e-7
0.327, -7.351e-7, -3.940e-7, 3.411e-7
0.326, -7.345e-7, -3.952e-7, 3.393e-7
0.325, -7.376e-7, -3.977e-7, 3.399e-7
0.324, -7.382e-7, -3.955e-7, 3.426e-7
0.323, -7.357e-7, -3.958e-7, 3.399e-7
0.322, -7.403e-7, -3.980e-7, 3.423e-7
0.321, -7.400e-7, -3.968e-7, 3.433e-7
0.320, -7.391e-7, -3.974e-7, 3.417e-7
0.319, -7.421e-7, -3.998e-7, 3.423e-7
0.318, -7.434e-7, -3.989e-7, 3.445e-7
0.317, -7.418e-7, -3.995e-7, 3.423e-7
0.316, -7.449e-7, -4.016e-7, 3.433e-7
0.315, -7.467e-7, -4.010e-7, 3.457e-7
0.314, -7.440e-7, -4.016e-7, 3.423e-7
0.313, -7.501e-7, -4.047e-7, 3.454e-7
0.312, -7.489e-7, -4.026e-7, 3.463e-7
0.311, -7.473e-7, -4.041e-7, 3.433e-7
0.310, -7.525e-7, -4.071e-7, 3.454e-7
0.309, -7.516e-7, -4.050e-7, 3.466e-7
0.308, -7.528e-7, -4.084e-7, 3.445e-7
0.307, -7.547e-7, -4.077e-7, 3.469e-7
0.306, -7.550e-7, -4.071e-7, 3.478e-7
0.305, -7.547e-7, -4.093e-7, 3.454e-7
0.304, -7.571e-7, -4.096e-7, 3.475e-7
0.303, -7.574e-7, -4.096e-7, 3.478e-7
0.302, -7.565e-7, -4.108e-7, 3.457e-7
0.301, -7.598e-7, -4.123e-7, 3.475e-7
0.300, -7.601e-7, -4.108e-7, 3.494e-7
0.299, -7.601e-7, -4.117e-7, 3.484e-7
0.298, -7.632e-7, -4.138e-7, 3.494e-7
0.297, -7.641e-7, -4.129e-7, 3.512e-7
0.296, -7.650e-7, -4.157e-7, 3.494e-7
0.295, -7.666e-7, -4.163e-7, 3.503e-7
0.294, -7.669e-7, -4.157e-7, 3.512e-7
0.293, -7.675e-7, -4.169e-7, 3.506e-7
0.292, -7.696e-7, -4.178e-7, 3.518e-7
0.291, -7.708e-7, -4.175e-7, 3.533e-7
0.290, -7.702e-7, -4.193e-7, 3.509e-7
0.289, -7.742e-7, -4.196e-7, 3.545e-7
0.288, -7.727e-7, -4.190e-7, 3.536e-7
0.287, -7.730e-7, -4.209e-7, 3.521e-7
0.286, -7.754e-7, -4.230e-7, 3.524e-7
0.285, -7.763e-7, -4.212e-7, 3.552e-7
0.284, -7.763e-7, -4.224e-7, 3.539e-7
0.283, -7.800e-7, -4.254e-7, 3.545e-7
0.282, -7.797e-7, -4.236e-7, 3.561e-7
0.281, -7.803e-7, -4.257e-7, 3.545e-7
0.280, -7.833e-7, -4.282e-7, 3.552e-7
0.279, -7.833e-7, -4.261e-7, 3.573e-7
0.278, -7.867e-7, -4.297e-7, 3.570e-7
0.277, -7.885e-7, -4.303e-7, 3.582e-7
0.276, -7.876e-7, -4.288e-7, 3.588e-7
0.275, -7.879e-7, -4.309e-7, 3.570e-7
0.274, -7.907e-7, -4.319e-7, 3.588e-7
0.273, -7.922e-7, -4.315e-7, 3.606e-7
0.272, -7.928e-7, -4.325e-7, 3.603e-7
0.271, -7.959e-7, -4.352e-7, 3.606e-7
0.270, -7.949e-7, -4.337e-7, 3.613e-7
0.269, -7.949e-7, -4.349e-7, 3.600e-7
0.268, -7.983e-7, -4.367e-7, 3.616e-7
0.267, -7.986e-7, -4.361e-7, 3.625e-7
0.266, -8.001e-7, -4.386e-7, 3.616e-7
0.265, -8.013e-7, -4.373e-7, 3.640e-7
0.264, -8.032e-7, -4.395e-7, 3.637e-7
0.263, -8.035e-7, -4.407e-7, 3.628e-7
0.262, -8.065e-7, -4.413e-7, 3.652e-7
0.261, -8.056e-7, -4.410e-7, 3.646e-7
0.260, -8.068e-7, -4.425e-7, 3.643e-7
0.259, -8.093e-7, -4.434e-7, 3.658e-7
0.258, -8.105e-7, -4.438e-7, 3.667e-7
0.257, -8.099e-7, -4.447e-7, 3.652e-7
0.256, -8.136e-7, -4.462e-7, 3.674e-7
0.255, -8.139e-7, -4.468e-7, 3.671e-7
0.254, -8.151e-7, -4.483e-7, 3.667e-7
0.253, -8.175e-7, -4.489e-7, 3.686e-7
0.252, -8.163e-7, -4.480e-7, 3.683e-7
0.251, -8.184e-7, -4.499e-7, 3.686e-7
0.250, -8.224e-7, -4.523e-7, 3.701e-7
0.249, -8.209e-7, -4.508e-7, 3.701e-7
0.248, -8.261e-7, -4.544e-7, 3.716e-7
0.247, -8.264e-7, -4.547e-7, 3.716e-7
0.246, -8.245e-7, -4.532e-7, 3.713e-7
0.245, -8.300e-7, -4.566e-7, 3.735e-7
0.244, -8.313e-7, -4.566e-7, 3.747e-7
0.243, -8.322e-7, -4.575e-7, 3.747e-7
0.242, -8.316e-7, -4.581e-7, 3.735e-7
0.241, -8.349e-7, -4.590e-7, 3.759e-7
0.240, -8.343e-7, -4.596e-7, 3.747e-7
0.239, -8.361e-7, -4.611e-7, 3.750e-7
0.238, -8.383e-7, -4.624e-7, 3.759e-7
0.237, -8.404e-7, -4.630e-7, 3.774e-7
0.236, -8.416e-7, -4.642e-7, 3.774e-7
0.235, -8.425e-7, -4.654e-7, 3.771e-7
0.234, -8.447e-7, -4.660e-7, 3.786e-7
0.233, -8.465e-7, -4.676e-7, 3.790e-7
0.232, -8.450e-7, -4.666e-7, 3.783e-7
0.231, -8.480e-7, -4.679e-7, 3.802e-7
0.230, -8.499e-7, -4.700e-7, 3.799e-7
0.229, -8.511e-7, -4.700e-7, 3.811e-7
0.228, -8.535e-7, -4.715e-7, 3.820e-7
0.227, -8.547e-7, -4.724e-7, 3.823e-7
0.226, -8.572e-7, -4.734e-7, 3.838e-7
0.225, -8.566e-7, -4.737e-7, 3.829e-7
0.224, -8.590e-7, -4.755e-7, 3.835e-7
0.223, -8.636e-7, -4.773e-7, 3.863e-7
0.222, -8.627e-7, -4.764e-7, 3.863e-7
0.221, -8.654e-7, -4.788e-7, 3.866e-7
0.220, -8.651e-7, -4.782e-7, 3.869e-7
0.219, -8.679e-7, -4.804e-7, 3.875e-7
0.218, -8.691e-7, -4.822e-7, 3.869e-7
0.217, -8.721e-7, -4.831e-7, 3.890e-7
0.216, -8.715e-7, -4.825e-7, 3.890e-7
0.215, -8.728e-7, -4.840e-7, 3.887e-7
0.214, -8.761e-7, -4.846e-7, 3.915e-7
0.213, -8.776e-7, -4.859e-7, 3.918e-7
0.212, -8.782e-7, -4.883e-7, 3.899e-7
0.211, -8.813e-7, -4.892e-7, 3.921e-7
0.210, -8.831e-7, -4.895e-7, 3.936e-7
0.209, -8.831e-7, -4.920e-7, 3.912e-7
0.208, -8.865e-7, -4.917e-7, 3.948e-7
0.207, -8.880e-7, -4.938e-7, 3.942e-7
0.206, -8.892e-7, -4.941e-7, 3.951e-7
0.205, -8.917e-7, -4.956e-7, 3.960e-7
0.204, -8.920e-7, -4.950e-7, 3.970e-7
0.203, -8.941e-7, -4.972e-7, 3.970e-7
0.202, -8.975e-7, -4.984e-7, 3.991e-7
0.201, -8.962e-7, -4.990e-7, 3.973e-7
0.200, -9.014e-7, -5.014e-7, 4.000e-7
0.199, -9.020e-7, -5.020e-7, 4.000e-7
0.198, -9.039e-7, -5.030e-7, 4.009e-7
0.197, -9.063e-7, -5.039e-7, 4.025e-7
0.196, -9.057e-7, -5.039e-7, 4.018e-7
0.195, -9.085e-7, -5.057e-7, 4.028e-7
0.194, -9.127e-7, -5.078e-7, 4.049e-7
0.193, -9.112e-7, -5.072e-7, 4.040e-7
0.192, -9.155e-7, -5.100e-7, 4.055e-7
0.191, -9.164e-7, -5.112e-7, 4.052e-7
0.190, -9.197e-7, -5.124e-7, 4.073e-7
0.189, -9.194e-7, -5.130e-7, 4.064e-7
0.188, -9.234e-7, -5.142e-7, 4.092e-7
0.187, -9.243e-7, -5.139e-7, 4.104e-7
0.186, -9.265e-7, -5.170e-7, 4.095e-7
0.185, -9.286e-7, -5.185e-7, 4.101e-7
0.184, -9.310e-7, -5.194e-7, 4.116e-7
0.183, -9.313e-7, -5.200e-7, 4.113e-7
0.182, -9.362e-7, -5.237e-7, 4.125e-7
0.181, -9.356e-7, -5.216e-7, 4.140e-7
0.180, -9.365e-7, -5.240e-7, 4.125e-7
0.179, -9.402e-7, -5.243e-7, 4.159e-7
0.178, -9.432e-7, -5.261e-7, 4.171e-7
0.177, -9.454e-7, -5.283e-7, 4.171e-7
0.176, -9.463e-7, -5.295e-7, 4.168e-7
0.175, -9.503e-7, -5.304e-7, 4.198e-7
0.174, -9.493e-7, -5.307e-7, 4.186e-7
0.173, -9.539e-7, -5.338e-7, 4.201e-7
0.172, -9.561e-7, -5.347e-7, 4.214e-7
0.171, -9.564e-7, -5.365e-7, 4.198e-7
0.170, -9.603e-7, -5.377e-7, 4.226e-7
0.169, -9.606e-7, -5.377e-7, 4.229e-7
0.168, -9.634e-7, -5.393e-7, 4.241e-7
0.167, -9.658e-7, -5.408e-7, 4.250e-7
0.166, -9.677e-7, -5.420e-7, 4.256e-7
0.165, -9.735e-7, -5.463e-7, 4.272e-7
0.164, -9.716e-7, -5.445e-7, 4.272e-7
0.163, -9.735e-7, -5.448e-7, 4.287e-7
0.162, -9.777e-7, -5.496e-7, 4.281e-7
0.161, -9.805e-7, -5.496e-7, 4.308e-7
0.160, -9.811e-7, -5.503e-7, 4.308e-7
0.159, -9.851e-7, -5.539e-7, 4.311e-7
0.158, -9.887e-7, -5.551e-7, 4.336e-7
0.157, -9.878e-7, -5.551e-7, 4.327e-7
0.156, -9.908e-7, -5.561e-7, 4.348e-7
0.155, -9.939e-7, -5.585e-7, 4.354e-7
0.154, -9.939e-7, -5.591e-7, 4.348e-7
0.153, -9.991e-7, -5.628e-7, 4.363e-7
0.152, -9.997e-7, -5.612e-7, 4.385e-7
0.151, -1.002e-6, -5.631e-7, 4.388e-7
0.150, -1.004e-6, -5.649e-7, 4.388e-7
0.149, -1.009e-6, -5.676e-7, 4.412e-7
0.148, -1.011e-6, -5.692e-7, 4.418e-7
0.147, -1.012e-6, -5.707e-7, 4.409e-7
0.146, -1.015e-6, -5.707e-7, 4.443e-7
0.145, -1.017e-6, -5.734e-7, 4.436e-7
0.144, -1.021e-6, -5.756e-7, 4.452e-7
0.143, -1.022e-6, -5.762e-7, 4.458e-7
0.142, -1.026e-6, -5.777e-7, 4.482e-7
0.141, -1.028e-6, -5.792e-7, 4.491e-7
0.140, -1.031e-6, -5.808e-7, 4.501e-7
0.139, -1.033e-6, -5.829e-7, 4.501e-7
0.138, -1.037e-6, -5.853e-7, 4.513e-7
0.137, -1.038e-6, -5.853e-7, 4.522e-7
0.136, -1.042e-6, -5.881e-7, 4.537e-7
0.135, -1.044e-6, -5.899e-7, 4.537e-7
0.134, -1.045e-6, -5.902e-7, 4.546e-7
0.133, -1.050e-6, -5.939e-7, 4.559e-7
0.132, -1.051e-6, -5.939e-7, 4.568e-7
0.131, -1.054e-6, -5.948e-7, 4.592e-7
0.130, -1.058e-6, -5.982e-7, 4.598e-7
0.129, -1.060e-6, -6.006e-7, 4.598e-7
0.128, -1.060e-6, -5.997e-7, 4.601e-7
0.127, -1.065e-6, -6.030e-7, 4.617e-7
0.126, -1.068e-6, -6.046e-7, 4.632e-7
0.125, -1.073e-6, -6.073e-7, 4.653e-7
0.124, -1.076e-6, -6.107e-7, 4.656e-7
0.123, -1.078e-6, -6.110e-7, 4.665e-7
0.122, -1.079e-6, -6.110e-7, 4.681e-7
0.121, -1.081e-6, -6.137e-7, 4.671e-7
0.120, -1.089e-6, -6.171e-7, 4.717e-7
0.119, -1.088e-6, -6.171e-7, 4.708e-7
0.118, -1.091e-6, -6.189e-7, 4.720e-7
0.117, -1.096e-6, -6.220e-7, 4.742e-7
0.116, -1.095e-6, -6.217e-7, 4.732e-7
0.115, -1.101e-6, -6.259e-7, 4.754e-7
0.114, -1.103e-6, -6.265e-7, 4.766e-7
0.113, -1.107e-6, -6.287e-7, 4.784e-7
0.112, -1.110e-6, -6.314e-7, 4.781e-7
0.111, -1.115e-6, -6.333e-7, 4.815e-7
0.110, -1.117e-6, -6.348e-7, 4.824e-7
0.109, -1.118e-6, -6.369e-7, 4.809e-7
0.108, -1.122e-6, -6.378e-7, 4.842e-7
0.107, -1.125e-6, -6.381e-7, 4.864e-7
0.106, -1.128e-6, -6.430e-7, 4.851e-7
0.105, -1.132e-6, -6.449e-7, 4.870e-7
0.104, -1.135e-6, -6.452e-7, 4.903e-7
0.103, -1.138e-6, -6.491e-7, 4.888e-7
0.102, -1.142e-6, -6.494e-7, 4.922e-7
0.101, -1.144e-6, -6.507e-7, 4.931e-7
0.100, -1.148e-6, -6.543e-7, 4.934e-7
0.099, -1.153e-6, -6.571e-7, 4.961e-7
0.098, -1.154e-6, -6.571e-7, 4.970e-7
0.097, -1.157e-6, -6.601e-7, 4.970e-7
0.096, -1.163e-6, -6.635e-7, 4.998e-7
0.095, -1.166e-6, -6.644e-7, 5.013e-7
0.094, -1.168e-6, -6.683e-7, 4.998e-7
0.093, -1.174e-6, -6.693e-7, 5.044e-7
0.092, -1.172e-6, -6.683e-7, 5.041e-7
0.091, -1.179e-6, -6.738e-7, 5.050e-7
0.090, -1.184e-6, -6.757e-7, 5.083e-7
0.089, -1.186e-6, -6.760e-7, 5.096e-7
0.088, -1.188e-6, -6.806e-7, 5.074e-7
0.087, -1.193e-6, -6.803e-7, 5.123e-7
0.086, -1.195e-6, -6.824e-7, 5.123e-7
0.085, -1.200e-6, -6.867e-7, 5.129e-7
0.084, -1.205e-6, -6.891e-7, 5.160e-7
0.083, -1.206e-6, -6.888e-7, 5.172e-7
0.082, -1.208e-6, -6.922e-7, 5.163e-7
0.081, -1.213e-6, -6.937e-7, 5.196e-7
0.080, -1.216e-6, -6.949e-7, 5.209e-7
0.079, -1.221e-6, -6.986e-7, 5.221e-7
0.078, -1.225e-6, -7.007e-7, 5.245e-7
0.077, -1.226e-6, -7.013e-7, 5.245e-7
0.076, -1.232e-6, -7.056e-7, 5.263e-7
0.075, -1.237e-6, -7.077e-7, 5.291e-7
0.074, -1.239e-6, -7.089e-7, 5.300e-7
0.073, -1.243e-6, -7.129e-7, 5.303e-7
0.072, -1.248e-6, -7.147e-7, 5.331e-7
0.071, -1.251e-6, -7.160e-7, 5.346e-7
0.070, -1.255e-6, -7.205e-7, 5.343e-7
0.069, -1.260e-6, -7.221e-7, 5.376e-7
0.068, -1.260e-6, -7.218e-7, 5.385e-7
0.067, -1.265e-6, -7.279e-7, 5.370e-7
0.066, -1.270e-6, -7.282e-7, 5.422e-7
0.065, -1.272e-6, -7.297e-7, 5.425e-7
0.064, -1.277e-6, -7.330e-7, 5.437e-7
0.063, -1.281e-6, -7.343e-7, 5.468e-7
0.062, -1.283e-6, -7.370e-7, 5.465e-7
0.061, -1.289e-6, -7.407e-7, 5.486e-7
0.060, -1.293e-6, -7.416e-7, 5.514e-7
0.059, -1.297e-6, -7.440e-7, 5.526e-7
0.058, -1.298e-6, -7.449e-7, 5.535e-7
0.057, -1.305e-6, -7.486e-7, 5.562e-7
0.056, -1.305e-6, -7.486e-7, 5.569e-7
0.055, -1.311e-6, -7.532e-7, 5.578e-7
0.054, -1.315e-6, -7.550e-7, 5.599e-7
0.053, -1.317e-6, -7.559e-7, 5.614e-7
0.052, -1.324e-6, -7.605e-7, 5.633e-7
0.051, -1.327e-6, -7.605e-7, 5.663e-7
0.050, -1.329e-6, -7.626e-7, 5.666e-7
0.049, -1.334e-6, -7.669e-7, 5.669e-7
0.048, -1.341e-6, -7.694e-7, 5.715e-7
0.047, -1.342e-6, -7.706e-7, 5.718e-7
0.046, -1.348e-6, -7.739e-7, 5.736e-7
0.045, -1.352e-6, -7.745e-7, 5.773e-7
0.044, -1.353e-6, -7.773e-7, 5.761e-7
0.043, -1.359e-6, -7.803e-7, 5.788e-7
0.042, -1.364e-6, -7.828e-7, 5.816e-7
0.041, -1.366e-6, -7.837e-7, 5.828e-7
0.040, -1.370e-6, -7.864e-7, 5.840e-7
0.039, -1.376e-6, -7.892e-7, 5.865e-7
0.038, -1.377e-6, -7.898e-7, 5.871e-7
0.037, -1.384e-6, -7.947e-7, 5.889e-7
0.036, -1.385e-6, -7.938e-7, 5.916e-7
0.035, -1.387e-6, -7.959e-7, 5.913e-7
0.034, -1.395e-6, -8.008e-7, 5.947e-7
0.033, -1.399e-6, -8.020e-7, 5.974e-7
0.032, -1.401e-6, -8.035e-7, 5.974e-7
0.031, -1.407e-6, -8.072e-7, 5.999e-7
0.030, -1.411e-6, -8.084e-7, 6.029e-7
0.029, -1.412e-6, -8.090e-7, 6.032e-7
0.028, -1.419e-6, -8.133e-7, 6.054e-7
0.027, -1.423e-6, -8.151e-7, 6.075e-7
0.026, -1.427e-6, -8.182e-7, 6.087e-7
0.025, -1.431e-6, -8.200e-7, 6.106e-7
0.024, -1.436e-6, -8.215e-7, 6.142e-7
0.023, -1.437e-6, -8.237e-7, 6.136e-7
0.022, -1.443e-6, -8.264e-7, 6.164e-7
0.021, -1.445e-6, -8.264e-7, 6.188e-7
0.020, -1.450e-6, -8.304e-7, 6.191e-7
0.019, -1.454e-6, -8.319e-7, 6.219e-7
0.018, -1.458e-6, -8.337e-7, 6.240e-7
0.017, -1.461e-6, -8.365e-7, 6.243e-7
0.016, -1.465e-6, -8.383e-7, 6.267e-7
0.015, -1.470e-6, -8.398e-7, 6.298e-7
0.014, -1.474e-6, -8.417e-7, 6.322e-7
0.013, -1.478e-6, -8.447e-7, 6.335e-7
0.012, -1.480e-6, -8.453e-7, 6.350e-7
0.011, -1.485e-6, -8.493e-7, 6.359e-7
0.010, -1.490e-6, -8.521e-7, 6.380e-7
0.009, -1.491e-6, -8.511e-7, 6.402e-7
0.008, -1.496e-6, -8.542e-7, 6.423e-7
0.007, -1.499e-6, -8.566e-7, 6.423e-7
0.006, -1.504e-6, -8.572e-7, 6.466e-7
0.005, -1.506e-6, -8.588e-7, 6.475e-7
0.004, -1.512e-6, -8.624e-7, 6.499e-7
0.003, -1.515e-6, -8.624e-7, 6.524e-7
0.002, -1.518e-6, -8.649e-7, 6.533e-7
0.001, -1.520e-6, -8.658e-7, 6.542e-7
-0.000, -1.524e-6, -8.676e-7, 6.566e-7
-0.001, -1.528e-6, -8.691e-7, 6.591e-7
-0.002, -1.532e-6, -8.725e-7, 6.597e-7
-0.003, -1.536e-6, -8.734e-7, 6.631e-7
-0.004, -1.539e-6, -8.743e-7, 6.643e-7
-0.005, -1.544e-6, -8.777e-7, 6.661e-7
-0.006, -1.548e-6, -8.783e-7, 6.698e-7
-0.007, -1.551e-6, -8.804e-7, 6.707e-7
-0.008, -1.552e-6, -8.829e-7, 6.695e-7
-0.009, -1.559e-6, -8.847e-7, 6.743e-7
-0.010, -1.560e-6, -8.850e-7, 6.750e-7
-0.011, -1.563e-6, -8.862e-7, 6.768e-7
-0.012, -1.567e-6, -8.878e-7, 6.795e-7
-0.013, -1.569e-6, -8.893e-7, 6.798e-7
-0.014, -1.573e-6, -8.908e-7, 6.826e-7
-0.015, -1.576e-6, -8.914e-7, 6.841e-7
-0.016, -1.579e-6, -8.929e-7, 6.866e-7
-0.017, -1.583e-6, -8.948e-7, 6.884e-7
-0.018, -1.587e-6, -8.972e-7, 6.896e-7
-0.019, -1.588e-6, -8.960e-7, 6.917e-7
-0.020, -1.593e-6, -8.987e-7, 6.939e-7
-0.021, -1.594e-6, -8.994e-7, 6.948e-7
-0.022, -1.598e-6, -9.012e-7, 6.972e-7
-0.023, -1.601e-6, -9.021e-7, 6.988e-7
-0.024, -1.604e-6, -9.045e-7, 6.997e-7
-0.025, -1.607e-6, -9.061e-7, 7.012e-7
-0.026, -1.611e-6, -9.064e-7, 7.049e-7
-0.027, -1.611e-6, -9.064e-7, 7.046e-7
-0.028, -1.614e-6, -9.085e-7, 7.058e-7
-0.029, -1.618e-6, -9.085e-7, 7.097e-7
-0.030, -1.621e-6, -9.094e-7, 7.116e-7
-0.031, -1.623e-6, -9.110e-7, 7.122e-7
-0.032, -1.627e-6, -9.113e-7, 7.155e-7
-0.033, -1.629e-6, -9.125e-7, 7.162e-7
-0.034, -1.631e-6, -9.140e-7, 7.171e-7
-0.035, -1.633e-6, -9.143e-7, 7.189e-7
-0.036, -1.637e-6, -9.161e-7, 7.204e-7
-0.037, -1.638e-6, -9.164e-7, 7.216e-7
-0.038, -1.642e-6, -9.171e-7, 7.250e-7
-0.039, -1.643e-6, -9.180e-7, 7.250e-7
-0.040, -1.647e-6, -9.186e-7, 7.281e-7
-0.041, -1.649e-6, -9.204e-7, 7.284e-7
-0.042, -1.648e-6, -9.201e-7, 7.284e-7
-0.043, -1.653e-6, -9.216e-7, 7.317e-7
-0.044, -1.655e-6, -9.210e-7, 7.335e-7
-0.045, -1.657e-6, -9.216e-7, 7.351e-7
-0.046, -1.660e-6, -9.225e-7, 7.372e-7
-0.047, -1.661e-6, -9.225e-7, 7.381e-7
-0.048, -1.663e-6, -9.238e-7, 7.396e-7
-0.049, -1.664e-6, -9.238e-7, 7.400e-7
-0.050, -1.666e-6, -9.232e-7, 7.427e-7
-0.051, -1.668e-6, -9.250e-7, 7.433e-7
-0.052, -1.670e-6, -9.256e-7, 7.445e-7
-0.053, -1.671e-6, -9.250e-7, 7.464e-7
-0.054, -1.673e-6, -9.250e-7, 7.479e-7
-0.055, -1.678e-6, -9.274e-7, 7.503e-7
-0.056, -1.676e-6, -9.241e-7, 7.519e-7
-0.057, -1.679e-6, -9.262e-7, 7.525e-7
-0.058, -1.681e-6, -9.265e-7, 7.543e-7
-0.059, -1.681e-6, -9.250e-7, 7.558e-7
-0.060, -1.681e-6, -9.253e-7, 7.558e-7
-0.061, -1.684e-6, -9.271e-7, 7.570e-7
-0.062, -1.685e-6, -9.274e-7, 7.580e-7
-0.063, -1.685e-6, -9.265e-7, 7.586e-7
-0.064, -1.687e-6, -9.256e-7, 7.610e-7
-0.065, -1.688e-6, -9.262e-7, 7.619e-7
-0.066, -1.690e-6, -9.268e-7, 7.631e-7
-0.067, -1.691e-6, -9.265e-7, 7.647e-7
-0.068, -1.692e-6, -9.259e-7, 7.659e-7
-0.069, -1.692e-6, -9.250e-7, 7.671e-7
-0.070, -1.695e-6, -9.256e-7, 7.689e-7
-0.071, -1.693e-6, -9.241e-7, 7.686e-7
-0.072, -1.695e-6, -9.262e-7, 7.683e-7
-0.073, -1.698e-6, -9.259e-7, 7.723e-7
-0.074, -1.698e-6, -9.259e-7, 7.720e-7
-0.075, -1.697e-6, -9.253e-7, 7.720e-7
-0.076, -1.699e-6, -9.244e-7, 7.741e-7
-0.077, -1.697e-6, -9.225e-7, 7.747e-7
-0.078, -1.698e-6, -9.222e-7, 7.757e-7
-0.079, -1.698e-6, -9.210e-7, 7.772e-7
-0.080, -1.701e-6, -9.225e-7, 7.787e-7
-0.081, -1.700e-6, -9.219e-7, 7.781e-7
-0.082, -1.702e-6, -9.216e-7, 7.802e-7
-0.083, -1.701e-6, -9.204e-7, 7.802e-7
-0.084, -1.702e-6, -9.210e-7, 7.815e-7
-0.085, -1.701e-6, -9.192e-7, 7.815e-7
-0.086, -1.703e-6, -9.183e-7, 7.845e-7
-0.087, -1.703e-6, -9.198e-7, 7.833e-7
-0.088, -1.704e-6, -9.186e-7, 7.851e-7
-0.089, -1.702e-6, -9.161e-7, 7.860e-7
-0.090, -1.703e-6, -9.186e-7, 7.842e-7
-0.091, -1.703e-6, -9.161e-7, 7.866e-7
-0.092, -1.700e-6, -9.143e-7, 7.860e-7
-0.093, -1.701e-6, -9.143e-7, 7.863e-7
-0.094, -1.701e-6, -9.131e-7, 7.882e-7
-0.095, -1.699e-6, -9.113e-7, 7.879e-7
-0.096, -1.703e-6, -9.128e-7, 7.903e-7
-0.097, -1.701e-6, -9.113e-7, 7.900e-7
-0.098, -1.700e-6, -9.100e-7, 7.897e-7
-0.099, -1.699e-6, -9.103e-7, 7.891e-7
-0.100, -1.699e-6, -9.085e-7, 7.909e-7
