Feb. 28, 2018   10:36:57
Square Wave Voltammetry
File: c:\users\electrochemist\desktop\2018\28022018_cal\2_g4_a2_ph4_3.txt
Data Source:  Experiment
Instrument Model:  CHI1040A
Header: 
Note: 

Init E (V) = 0.5
Final E (V) = -0.1
Incr E (V) = 0.001
Amplitude (V) = 0.1
Frequency (Hz) = 150
Quiet Time (sec) = 0
Sensitivity (A/V) = 1e-6

Difference:

Forward:

Reverse:

Potential/V, Diff(i/A), For(i/A), Rev(i/A)

0.499, -5.725e-7, -1.191e-7, 4.534e-7
0.498, -6.713e-7, -2.793e-7, 3.921e-7
0.497, -6.607e-7, -2.887e-7, 3.719e-7
0.496, -6.561e-7, -2.951e-7, 3.610e-7
0.495, -6.515e-7, -3.012e-7, 3.503e-7
0.494, -6.466e-7, -3.015e-7, 3.451e-7
0.493, -6.408e-7, -3.022e-7, 3.387e-7
0.492, -6.375e-7, -3.043e-7, 3.332e-7
0.491, -6.384e-7, -3.070e-7, 3.314e-7
0.490, -6.344e-7, -3.055e-7, 3.289e-7
0.489, -6.320e-7, -3.064e-7, 3.256e-7
0.488, -6.329e-7, -3.092e-7, 3.237e-7
0.487, -6.305e-7, -3.095e-7, 3.210e-7
0.486, -6.298e-7, -3.113e-7, 3.185e-7
0.485, -6.302e-7, -3.113e-7, 3.188e-7
0.484, -6.292e-7, -3.119e-7, 3.173e-7
0.483, -6.289e-7, -3.144e-7, 3.146e-7
0.482, -6.286e-7, -3.131e-7, 3.155e-7
0.481, -6.292e-7, -3.150e-7, 3.143e-7
0.480, -6.274e-7, -3.150e-7, 3.124e-7
0.479, -6.308e-7, -3.177e-7, 3.130e-7
0.478, -6.262e-7, -3.150e-7, 3.112e-7
0.477, -6.277e-7, -3.180e-7, 3.097e-7
0.476, -6.289e-7, -3.189e-7, 3.100e-7
0.475, -6.259e-7, -3.174e-7, 3.085e-7
0.474, -6.292e-7, -3.205e-7, 3.088e-7
0.473, -6.289e-7, -3.208e-7, 3.082e-7
0.472, -6.277e-7, -3.202e-7, 3.075e-7
0.471, -6.295e-7, -3.208e-7, 3.088e-7
0.470, -6.323e-7, -3.235e-7, 3.088e-7
0.469, -6.298e-7, -3.226e-7, 3.072e-7
0.468, -6.305e-7, -3.241e-7, 3.063e-7
0.467, -6.320e-7, -3.232e-7, 3.088e-7
0.466, -6.323e-7, -3.257e-7, 3.066e-7
0.465, -6.302e-7, -3.257e-7, 3.045e-7
0.464, -6.329e-7, -3.281e-7, 3.048e-7
0.463, -6.332e-7, -3.269e-7, 3.063e-7
0.462, -6.363e-7, -3.302e-7, 3.060e-7
0.461, -6.338e-7, -3.296e-7, 3.042e-7
0.460, -6.326e-7, -3.278e-7, 3.048e-7
0.459, -6.338e-7, -3.302e-7, 3.036e-7
0.458, -6.366e-7, -3.318e-7, 3.048e-7
0.457, -6.390e-7, -3.327e-7, 3.063e-7
0.456, -6.369e-7, -3.336e-7, 3.033e-7
0.455, -6.375e-7, -3.330e-7, 3.045e-7
0.454, -6.387e-7, -3.333e-7, 3.054e-7
0.453, -6.381e-7, -3.348e-7, 3.033e-7
0.452, -6.411e-7, -3.354e-7, 3.057e-7
0.451, -6.414e-7, -3.360e-7, 3.054e-7
0.450, -6.408e-7, -3.357e-7, 3.051e-7
0.449, -6.442e-7, -3.388e-7, 3.054e-7
0.448, -6.430e-7, -3.373e-7, 3.057e-7
0.447, -6.451e-7, -3.394e-7, 3.057e-7
0.446, -6.475e-7, -3.400e-7, 3.075e-7
0.445, -6.466e-7, -3.400e-7, 3.066e-7
0.444, -6.466e-7, -3.424e-7, 3.042e-7
0.443, -6.485e-7, -3.421e-7, 3.063e-7
0.442, -6.488e-7, -3.412e-7, 3.075e-7
0.441, -6.509e-7, -3.434e-7, 3.075e-7
0.440, -6.485e-7, -3.421e-7, 3.063e-7
0.439, -6.540e-7, -3.452e-7, 3.088e-7
0.438, -6.524e-7, -3.461e-7, 3.063e-7
0.437, -6.561e-7, -3.467e-7, 3.094e-7
0.436, -6.543e-7, -3.461e-7, 3.082e-7
0.435, -6.561e-7, -3.488e-7, 3.072e-7
0.434, -6.622e-7, -3.528e-7, 3.094e-7
0.433, -6.543e-7, -3.461e-7, 3.082e-7
0.432, -6.588e-7, -3.510e-7, 3.079e-7
0.431, -6.598e-7, -3.513e-7, 3.085e-7
0.430, -6.610e-7, -3.522e-7, 3.088e-7
0.429, -6.634e-7, -3.537e-7, 3.097e-7
0.428, -6.637e-7, -3.546e-7, 3.091e-7
0.427, -6.634e-7, -3.534e-7, 3.100e-7
0.426, -6.634e-7, -3.546e-7, 3.088e-7
0.425, -6.677e-7, -3.559e-7, 3.118e-7
0.424, -6.665e-7, -3.556e-7, 3.109e-7
0.423, -6.683e-7, -3.583e-7, 3.100e-7
0.422, -6.710e-7, -3.592e-7, 3.118e-7
0.421, -6.713e-7, -3.577e-7, 3.137e-7
0.420, -6.729e-7, -3.589e-7, 3.140e-7
0.419, -6.732e-7, -3.604e-7, 3.127e-7
0.418, -6.735e-7, -3.614e-7, 3.121e-7
0.417, -6.744e-7, -3.626e-7, 3.118e-7
0.416, -6.775e-7, -3.635e-7, 3.140e-7
0.415, -6.762e-7, -3.626e-7, 3.137e-7
0.414, -6.814e-7, -3.665e-7, 3.149e-7
0.413, -6.808e-7, -3.665e-7, 3.143e-7
0.412, -6.820e-7, -3.656e-7, 3.164e-7
0.411, -6.851e-7, -3.681e-7, 3.170e-7
0.410, -6.836e-7, -3.678e-7, 3.158e-7
0.409, -6.832e-7, -3.675e-7, 3.158e-7
0.408, -6.857e-7, -3.696e-7, 3.161e-7
0.407, -6.890e-7, -3.708e-7, 3.182e-7
0.406, -6.863e-7, -3.687e-7, 3.176e-7
0.405, -6.884e-7, -3.711e-7, 3.173e-7
0.404, -6.903e-7, -3.714e-7, 3.188e-7
0.403, -6.921e-7, -3.717e-7, 3.204e-7
0.402, -6.918e-7, -3.739e-7, 3.179e-7
0.401, -6.958e-7, -3.754e-7, 3.204e-7
0.400, -6.952e-7, -3.748e-7, 3.204e-7
0.399, -6.970e-7, -3.769e-7, 3.201e-7
0.398, -6.985e-7, -3.769e-7, 3.216e-7
0.397, -7.016e-7, -3.797e-7, 3.219e-7
0.396, -7.016e-7, -3.803e-7, 3.213e-7
0.395, -7.034e-7, -3.806e-7, 3.228e-7
0.394, -7.028e-7, -3.794e-7, 3.234e-7
0.393, -7.028e-7, -3.815e-7, 3.213e-7
0.392, -7.037e-7, -3.809e-7, 3.228e-7
0.391, -7.043e-7, -3.803e-7, 3.240e-7
0.390, -7.089e-7, -3.852e-7, 3.237e-7
0.389, -7.113e-7, -3.830e-7, 3.283e-7
0.388, -7.098e-7, -3.833e-7, 3.265e-7
0.387, -7.101e-7, -3.852e-7, 3.249e-7
0.386, -7.147e-7, -3.870e-7, 3.277e-7
0.385, -7.135e-7, -3.858e-7, 3.277e-7
0.384, -7.165e-7, -3.867e-7, 3.298e-7
0.383, -7.177e-7, -3.885e-7, 3.292e-7
0.382, -7.165e-7, -3.891e-7, 3.274e-7
0.381, -7.196e-7, -3.900e-7, 3.295e-7
0.380, -7.180e-7, -3.882e-7, 3.298e-7
0.379, -7.205e-7, -3.900e-7, 3.304e-7
0.378, -7.208e-7, -3.916e-7, 3.292e-7
0.377, -7.235e-7, -3.916e-7, 3.320e-7
0.376, -7.244e-7, -3.910e-7, 3.335e-7
0.375, -7.223e-7, -3.919e-7, 3.304e-7
0.374, -7.260e-7, -3.934e-7, 3.326e-7
0.373, -7.251e-7, -3.919e-7, 3.332e-7
0.372, -7.290e-7, -3.949e-7, 3.341e-7
0.371, -7.330e-7, -3.977e-7, 3.353e-7
0.370, -7.321e-7, -3.955e-7, 3.365e-7
0.369, -7.302e-7, -3.958e-7, 3.344e-7
0.368, -7.318e-7, -3.968e-7, 3.350e-7
0.367, -7.336e-7, -3.955e-7, 3.381e-7
0.366, -7.342e-7, -3.971e-7, 3.371e-7
0.365, -7.351e-7, -3.980e-7, 3.371e-7
0.364, -7.360e-7, -3.971e-7, 3.390e-7
0.363, -7.376e-7, -3.986e-7, 3.390e-7
0.362, -7.367e-7, -3.986e-7, 3.381e-7
0.361, -7.385e-7, -3.983e-7, 3.402e-7
0.360, -7.403e-7, -3.998e-7, 3.405e-7
0.359, -7.425e-7, -4.019e-7, 3.405e-7
0.358, -7.431e-7, -4.022e-7, 3.408e-7
0.357, -7.415e-7, -4.016e-7, 3.399e-7
0.356, -7.446e-7, -4.016e-7, 3.429e-7
0.355, -7.431e-7, -4.004e-7, 3.426e-7
0.354, -7.455e-7, -4.022e-7, 3.433e-7
0.353, -7.464e-7, -4.032e-7, 3.433e-7
0.352, -7.467e-7, -4.022e-7, 3.445e-7
0.351, -7.501e-7, -4.047e-7, 3.454e-7
0.350, -7.476e-7, -4.019e-7, 3.457e-7
0.349, -7.476e-7, -4.038e-7, 3.439e-7
0.348, -7.498e-7, -4.047e-7, 3.451e-7
0.347, -7.513e-7, -4.047e-7, 3.466e-7
0.346, -7.492e-7, -4.032e-7, 3.460e-7
0.345, -7.513e-7, -4.047e-7, 3.466e-7
0.344, -7.537e-7, -4.047e-7, 3.490e-7
0.343, -7.525e-7, -4.038e-7, 3.487e-7
0.342, -7.562e-7, -4.071e-7, 3.490e-7
0.341, -7.565e-7, -4.059e-7, 3.506e-7
0.340, -7.565e-7, -4.050e-7, 3.515e-7
0.339, -7.544e-7, -4.041e-7, 3.503e-7
0.338, -7.592e-7, -4.059e-7, 3.533e-7
0.337, -7.565e-7, -4.047e-7, 3.518e-7
0.336, -7.598e-7, -4.071e-7, 3.527e-7
0.335, -7.595e-7, -4.068e-7, 3.527e-7
0.334, -7.595e-7, -4.053e-7, 3.542e-7
0.333, -7.605e-7, -4.068e-7, 3.536e-7
0.332, -7.611e-7, -4.071e-7, 3.539e-7
0.331, -7.617e-7, -4.065e-7, 3.552e-7
0.330, -7.629e-7, -4.077e-7, 3.552e-7
0.329, -7.638e-7, -4.068e-7, 3.570e-7
0.328, -7.635e-7, -4.077e-7, 3.558e-7
0.327, -7.629e-7, -4.065e-7, 3.564e-7
0.326, -7.650e-7, -4.062e-7, 3.588e-7
0.325, -7.641e-7, -4.056e-7, 3.585e-7
0.324, -7.626e-7, -4.056e-7, 3.570e-7
0.323, -7.653e-7, -4.065e-7, 3.588e-7
0.322, -7.656e-7, -4.062e-7, 3.594e-7
0.321, -7.678e-7, -4.080e-7, 3.597e-7
0.320, -7.659e-7, -4.059e-7, 3.600e-7
0.319, -7.669e-7, -4.062e-7, 3.606e-7
0.318, -7.644e-7, -4.062e-7, 3.582e-7
0.317, -7.687e-7, -4.062e-7, 3.625e-7
0.316, -7.663e-7, -4.056e-7, 3.606e-7
0.315, -7.687e-7, -4.077e-7, 3.610e-7
0.314, -7.696e-7, -4.062e-7, 3.634e-7
0.313, -7.696e-7, -4.038e-7, 3.658e-7
0.312, -7.663e-7, -4.041e-7, 3.622e-7
0.311, -7.702e-7, -4.056e-7, 3.646e-7
0.310, -7.678e-7, -4.032e-7, 3.646e-7
0.309, -7.714e-7, -4.065e-7, 3.649e-7
0.308, -7.678e-7, -4.032e-7, 3.646e-7
0.307, -7.693e-7, -4.041e-7, 3.652e-7
0.306, -7.699e-7, -4.059e-7, 3.640e-7
0.305, -7.705e-7, -4.047e-7, 3.658e-7
0.304, -7.714e-7, -4.032e-7, 3.683e-7
0.303, -7.708e-7, -4.044e-7, 3.664e-7
0.302, -7.711e-7, -4.029e-7, 3.683e-7
0.301, -7.678e-7, -4.004e-7, 3.674e-7
0.300, -7.687e-7, -4.023e-7, 3.664e-7
0.299, -7.702e-7, -4.019e-7, 3.683e-7
0.298, -7.721e-7, -4.016e-7, 3.704e-7
0.297, -7.690e-7, -4.007e-7, 3.683e-7
0.296, -7.717e-7, -4.032e-7, 3.686e-7
0.295, -7.681e-7, -4.007e-7, 3.674e-7
0.294, -7.690e-7, -3.998e-7, 3.692e-7
0.293, -7.714e-7, -4.007e-7, 3.707e-7
0.292, -7.699e-7, -3.995e-7, 3.704e-7
0.291, -7.696e-7, -3.995e-7, 3.701e-7
0.290, -7.711e-7, -3.998e-7, 3.713e-7
0.289, -7.699e-7, -3.980e-7, 3.719e-7
0.288, -7.684e-7, -3.977e-7, 3.707e-7
0.287, -7.684e-7, -3.974e-7, 3.710e-7
0.286, -7.672e-7, -3.949e-7, 3.722e-7
0.285, -7.675e-7, -3.961e-7, 3.713e-7
0.284, -7.672e-7, -3.949e-7, 3.722e-7
0.283, -7.702e-7, -3.971e-7, 3.732e-7
0.282, -7.693e-7, -3.968e-7, 3.725e-7
0.281, -7.696e-7, -3.949e-7, 3.747e-7
0.280, -7.659e-7, -3.925e-7, 3.735e-7
0.279, -7.672e-7, -3.940e-7, 3.732e-7
0.278, -7.696e-7, -3.940e-7, 3.756e-7
0.277, -7.663e-7, -3.919e-7, 3.744e-7
0.276, -7.675e-7, -3.937e-7, 3.738e-7
0.275, -7.669e-7, -3.922e-7, 3.747e-7
0.274, -7.663e-7, -3.907e-7, 3.756e-7
0.273, -7.656e-7, -3.907e-7, 3.750e-7
0.272, -7.666e-7, -3.910e-7, 3.756e-7
0.271, -7.644e-7, -3.891e-7, 3.753e-7
0.270, -7.641e-7, -3.903e-7, 3.738e-7
0.269, -7.647e-7, -3.894e-7, 3.753e-7
0.268, -7.632e-7, -3.879e-7, 3.753e-7
0.267, -7.605e-7, -3.864e-7, 3.741e-7
0.266, -7.663e-7, -3.882e-7, 3.780e-7
0.265, -7.608e-7, -3.861e-7, 3.747e-7
0.264, -7.595e-7, -3.864e-7, 3.732e-7
0.263, -7.623e-7, -3.858e-7, 3.765e-7
0.262, -7.614e-7, -3.855e-7, 3.759e-7
0.261, -7.601e-7, -3.861e-7, 3.741e-7
0.260, -7.614e-7, -3.830e-7, 3.783e-7
0.259, -7.592e-7, -3.827e-7, 3.765e-7
0.258, -7.574e-7, -3.821e-7, 3.753e-7
0.257, -7.586e-7, -3.827e-7, 3.759e-7
0.256, -7.559e-7, -3.800e-7, 3.759e-7
0.255, -7.559e-7, -3.815e-7, 3.744e-7
0.254, -7.568e-7, -3.797e-7, 3.771e-7
0.253, -7.528e-7, -3.778e-7, 3.750e-7
0.252, -7.540e-7, -3.788e-7, 3.753e-7
0.251, -7.534e-7, -3.788e-7, 3.747e-7
0.250, -7.522e-7, -3.772e-7, 3.750e-7
0.249, -7.525e-7, -3.772e-7, 3.753e-7
0.248, -7.537e-7, -3.769e-7, 3.768e-7
0.247, -7.492e-7, -3.739e-7, 3.753e-7
0.246, -7.513e-7, -3.757e-7, 3.756e-7
0.245, -7.504e-7, -3.751e-7, 3.753e-7
0.244, -7.482e-7, -3.736e-7, 3.747e-7
0.243, -7.489e-7, -3.751e-7, 3.738e-7
0.242, -7.479e-7, -3.723e-7, 3.756e-7
0.241, -7.452e-7, -3.711e-7, 3.741e-7
0.240, -7.431e-7, -3.702e-7, 3.729e-7
0.239, -7.476e-7, -3.727e-7, 3.750e-7
0.238, -7.418e-7, -3.693e-7, 3.725e-7
0.237, -7.446e-7, -3.702e-7, 3.744e-7
0.236, -7.415e-7, -3.687e-7, 3.729e-7
0.235, -7.397e-7, -3.665e-7, 3.732e-7
0.234, -7.397e-7, -3.684e-7, 3.713e-7
0.233, -7.397e-7, -3.675e-7, 3.722e-7
0.232, -7.388e-7, -3.647e-7, 3.741e-7
0.231, -7.400e-7, -3.675e-7, 3.725e-7
0.230, -7.406e-7, -3.653e-7, 3.753e-7
0.229, -7.351e-7, -3.623e-7, 3.729e-7
0.228, -7.354e-7, -3.635e-7, 3.719e-7
0.227, -7.342e-7, -3.620e-7, 3.722e-7
0.226, -7.327e-7, -3.611e-7, 3.716e-7
0.225, -7.312e-7, -3.607e-7, 3.704e-7
0.224, -7.315e-7, -3.611e-7, 3.704e-7
0.223, -7.305e-7, -3.595e-7, 3.710e-7
0.222, -7.296e-7, -3.601e-7, 3.695e-7
0.221, -7.293e-7, -3.601e-7, 3.692e-7
0.220, -7.263e-7, -3.577e-7, 3.686e-7
0.219, -7.266e-7, -3.595e-7, 3.671e-7
0.218, -7.275e-7, -3.574e-7, 3.701e-7
0.217, -7.238e-7, -3.559e-7, 3.680e-7
0.216, -7.248e-7, -3.565e-7, 3.683e-7
0.215, -7.235e-7, -3.556e-7, 3.680e-7
0.214, -7.211e-7, -3.537e-7, 3.674e-7
0.213, -7.199e-7, -3.540e-7, 3.658e-7
0.212, -7.217e-7, -3.537e-7, 3.680e-7
0.211, -7.168e-7, -3.516e-7, 3.652e-7
0.210, -7.162e-7, -3.516e-7, 3.646e-7
0.209, -7.162e-7, -3.510e-7, 3.652e-7
0.208, -7.135e-7, -3.492e-7, 3.643e-7
0.207, -7.153e-7, -3.501e-7, 3.652e-7
0.206, -7.138e-7, -3.488e-7, 3.649e-7
0.205, -7.113e-7, -3.464e-7, 3.649e-7
0.204, -7.098e-7, -3.476e-7, 3.622e-7
0.203, -7.101e-7, -3.467e-7, 3.634e-7
0.202, -7.086e-7, -3.464e-7, 3.622e-7
0.201, -7.083e-7, -3.479e-7, 3.603e-7
0.200, -7.083e-7, -3.473e-7, 3.609e-7
0.199, -7.061e-7, -3.452e-7, 3.609e-7
0.198, -7.037e-7, -3.443e-7, 3.594e-7
0.197, -7.049e-7, -3.443e-7, 3.606e-7
0.196, -6.997e-7, -3.412e-7, 3.585e-7
0.195, -7.006e-7, -3.434e-7, 3.573e-7
0.194, -7.019e-7, -3.427e-7, 3.591e-7
0.193, -6.955e-7, -3.394e-7, 3.561e-7
0.192, -6.988e-7, -3.424e-7, 3.564e-7
0.191, -6.967e-7, -3.406e-7, 3.561e-7
0.190, -6.936e-7, -3.388e-7, 3.548e-7
0.189, -6.964e-7, -3.412e-7, 3.552e-7
0.188, -6.939e-7, -3.379e-7, 3.561e-7
0.187, -6.918e-7, -3.379e-7, 3.539e-7
0.186, -6.897e-7, -3.376e-7, 3.521e-7
0.185, -6.906e-7, -3.360e-7, 3.545e-7
0.184, -6.890e-7, -3.363e-7, 3.527e-7
0.183, -6.878e-7, -3.373e-7, 3.506e-7
0.182, -6.857e-7, -3.345e-7, 3.512e-7
0.181, -6.839e-7, -3.333e-7, 3.506e-7
0.180, -6.820e-7, -3.330e-7, 3.490e-7
0.179, -6.820e-7, -3.324e-7, 3.497e-7
0.178, -6.799e-7, -3.305e-7, 3.494e-7
0.177, -6.811e-7, -3.339e-7, 3.472e-7
0.176, -6.793e-7, -3.315e-7, 3.478e-7
0.175, -6.781e-7, -3.305e-7, 3.475e-7
0.174, -6.744e-7, -3.296e-7, 3.448e-7
0.173, -6.759e-7, -3.299e-7, 3.460e-7
0.172, -6.747e-7, -3.302e-7, 3.445e-7
0.171, -6.744e-7, -3.305e-7, 3.439e-7
0.170, -6.720e-7, -3.284e-7, 3.436e-7
0.169, -6.717e-7, -3.284e-7, 3.432e-7
0.168, -6.713e-7, -3.284e-7, 3.429e-7
0.167, -6.683e-7, -3.272e-7, 3.411e-7
0.166, -6.677e-7, -3.260e-7, 3.417e-7
0.165, -6.659e-7, -3.269e-7, 3.390e-7
0.164, -6.652e-7, -3.244e-7, 3.408e-7
0.163, -6.631e-7, -3.244e-7, 3.387e-7
0.162, -6.619e-7, -3.257e-7, 3.362e-7
0.161, -6.622e-7, -3.238e-7, 3.384e-7
0.160, -6.591e-7, -3.220e-7, 3.371e-7
0.159, -6.585e-7, -3.229e-7, 3.356e-7
0.158, -6.628e-7, -3.244e-7, 3.384e-7
0.157, -6.564e-7, -3.217e-7, 3.347e-7
0.156, -6.533e-7, -3.202e-7, 3.332e-7
0.155, -6.558e-7, -3.214e-7, 3.344e-7
0.154, -6.530e-7, -3.211e-7, 3.320e-7
0.153, -6.518e-7, -3.199e-7, 3.320e-7
0.152, -6.503e-7, -3.189e-7, 3.313e-7
0.151, -6.488e-7, -3.180e-7, 3.307e-7
0.150, -6.485e-7, -3.189e-7, 3.295e-7
0.149, -6.485e-7, -3.183e-7, 3.301e-7
0.148, -6.460e-7, -3.171e-7, 3.289e-7
0.147, -6.436e-7, -3.165e-7, 3.271e-7
0.146, -6.454e-7, -3.174e-7, 3.280e-7
0.145, -6.427e-7, -3.162e-7, 3.265e-7
0.144, -6.402e-7, -3.159e-7, 3.243e-7
0.143, -6.424e-7, -3.153e-7, 3.271e-7
0.142, -6.390e-7, -3.144e-7, 3.246e-7
0.141, -6.402e-7, -3.159e-7, 3.243e-7
0.140, -6.393e-7, -3.138e-7, 3.256e-7
0.139, -6.363e-7, -3.138e-7, 3.225e-7
0.138, -6.369e-7, -3.135e-7, 3.234e-7
0.137, -6.363e-7, -3.141e-7, 3.222e-7
0.136, -6.329e-7, -3.110e-7, 3.219e-7
0.135, -6.311e-7, -3.125e-7, 3.185e-7
0.134, -6.320e-7, -3.125e-7, 3.194e-7
0.133, -6.289e-7, -3.104e-7, 3.185e-7
0.132, -6.286e-7, -3.098e-7, 3.188e-7
0.131, -6.305e-7, -3.104e-7, 3.201e-7
0.130, -6.286e-7, -3.092e-7, 3.194e-7
0.129, -6.247e-7, -3.083e-7, 3.164e-7
0.128, -6.265e-7, -3.098e-7, 3.167e-7
0.127, -6.253e-7, -3.089e-7, 3.164e-7
0.126, -6.231e-7, -3.089e-7, 3.143e-7
0.125, -6.201e-7, -3.064e-7, 3.136e-7
0.124, -6.195e-7, -3.061e-7, 3.133e-7
0.123, -6.195e-7, -3.070e-7, 3.124e-7
0.122, -6.195e-7, -3.070e-7, 3.124e-7
0.121, -6.173e-7, -3.061e-7, 3.112e-7
0.120, -6.155e-7, -3.070e-7, 3.085e-7
0.119, -6.149e-7, -3.055e-7, 3.094e-7
0.118, -6.155e-7, -3.049e-7, 3.106e-7
0.117, -6.137e-7, -3.049e-7, 3.088e-7
0.116, -6.134e-7, -3.046e-7, 3.088e-7
0.115, -6.128e-7, -3.043e-7, 3.085e-7
0.114, -6.100e-7, -3.037e-7, 3.063e-7
0.113, -6.079e-7, -3.022e-7, 3.057e-7
0.112, -6.097e-7, -3.031e-7, 3.066e-7
0.111, -6.076e-7, -3.034e-7, 3.042e-7
0.110, -6.067e-7, -3.022e-7, 3.045e-7
0.109, -6.067e-7, -3.019e-7, 3.048e-7
0.108, -6.054e-7, -3.016e-7, 3.039e-7
0.107, -6.067e-7, -3.022e-7, 3.045e-7
0.106, -6.024e-7, -2.994e-7, 3.030e-7
0.105, -6.006e-7, -3.000e-7, 3.005e-7
0.104, -6.027e-7, -2.994e-7, 3.033e-7
0.103, -5.996e-7, -2.982e-7, 3.014e-7
0.102, -5.993e-7, -2.994e-7, 2.999e-7
0.101, -6.006e-7, -2.997e-7, 3.008e-7
0.100, -5.972e-7, -2.976e-7, 2.996e-7
0.099, -5.978e-7, -2.982e-7, 2.996e-7
0.098, -6.006e-7, -2.997e-7, 3.008e-7
0.097, -5.948e-7, -2.976e-7, 2.972e-7
0.096, -5.972e-7, -2.997e-7, 2.975e-7
0.095, -5.963e-7, -2.976e-7, 2.987e-7
0.094, -5.938e-7, -2.970e-7, 2.969e-7
0.093, -5.932e-7, -2.967e-7, 2.966e-7
0.092, -5.905e-7, -2.951e-7, 2.953e-7
0.091, -5.887e-7, -2.939e-7, 2.947e-7
0.090, -5.911e-7, -2.967e-7, 2.944e-7
0.089, -5.902e-7, -2.948e-7, 2.953e-7
0.088, -5.877e-7, -2.936e-7, 2.941e-7
0.087, -5.893e-7, -2.954e-7, 2.938e-7
0.086, -5.862e-7, -2.942e-7, 2.920e-7
0.085, -5.847e-7, -2.927e-7, 2.920e-7
0.084, -5.844e-7, -2.942e-7, 2.902e-7
0.083, -5.844e-7, -2.921e-7, 2.923e-7
0.082, -5.838e-7, -2.927e-7, 2.911e-7
0.081, -5.801e-7, -2.912e-7, 2.889e-7
0.080, -5.822e-7, -2.921e-7, 2.902e-7
0.079, -5.789e-7, -2.900e-7, 2.889e-7
0.078, -5.807e-7, -2.918e-7, 2.889e-7
0.077, -5.807e-7, -2.909e-7, 2.898e-7
0.076, -5.789e-7, -2.900e-7, 2.889e-7
0.075, -5.758e-7, -2.896e-7, 2.862e-7
0.074, -5.807e-7, -2.909e-7, 2.898e-7
0.073, -5.743e-7, -2.890e-7, 2.853e-7
0.072, -5.758e-7, -2.896e-7, 2.862e-7
0.071, -5.764e-7, -2.896e-7, 2.868e-7
0.070, -5.752e-7, -2.890e-7, 2.862e-7
0.069, -5.728e-7, -2.893e-7, 2.834e-7
0.068, -5.731e-7, -2.881e-7, 2.850e-7
0.067, -5.731e-7, -2.887e-7, 2.844e-7
0.066, -5.725e-7, -2.887e-7, 2.837e-7
0.065, -5.700e-7, -2.869e-7, 2.831e-7
0.064, -5.719e-7, -2.866e-7, 2.853e-7
0.063, -5.670e-7, -2.866e-7, 2.804e-7
0.062, -5.694e-7, -2.857e-7, 2.837e-7
0.061, -5.673e-7, -2.854e-7, 2.819e-7
0.060, -5.655e-7, -2.845e-7, 2.810e-7
0.059, -5.670e-7, -2.851e-7, 2.819e-7
0.058, -5.639e-7, -2.835e-7, 2.804e-7
0.057, -5.652e-7, -2.848e-7, 2.804e-7
0.056, -5.655e-7, -2.851e-7, 2.804e-7
0.055, -5.645e-7, -2.842e-7, 2.804e-7
0.054, -5.624e-7, -2.835e-7, 2.789e-7
0.053, -5.633e-7, -2.832e-7, 2.801e-7
0.052, -5.621e-7, -2.829e-7, 2.792e-7
0.051, -5.597e-7, -2.835e-7, 2.761e-7
0.050, -5.606e-7, -2.811e-7, 2.795e-7
0.049, -5.600e-7, -2.820e-7, 2.779e-7
0.048, -5.591e-7, -2.829e-7, 2.761e-7
0.047, -5.578e-7, -2.805e-7, 2.773e-7
0.046, -5.566e-7, -2.802e-7, 2.764e-7
0.045, -5.575e-7, -2.817e-7, 2.758e-7
0.044, -5.551e-7, -2.796e-7, 2.755e-7
0.043, -5.539e-7, -2.784e-7, 2.755e-7
0.042, -5.548e-7, -2.808e-7, 2.740e-7
0.041, -5.542e-7, -2.793e-7, 2.749e-7
0.040, -5.511e-7, -2.777e-7, 2.734e-7
0.039, -5.533e-7, -2.787e-7, 2.746e-7
0.038, -5.536e-7, -2.796e-7, 2.740e-7
0.037, -5.539e-7, -2.787e-7, 2.752e-7
0.036, -5.499e-7, -2.784e-7, 2.715e-7
0.035, -5.517e-7, -2.777e-7, 2.740e-7
0.034, -5.496e-7, -2.771e-7, 2.725e-7
0.033, -5.471e-7, -2.759e-7, 2.712e-7
0.032, -5.475e-7, -2.762e-7, 2.712e-7
0.031, -5.459e-7, -2.747e-7, 2.712e-7
0.030, -5.453e-7, -2.762e-7, 2.691e-7
0.029, -5.447e-7, -2.741e-7, 2.706e-7
0.028, -5.462e-7, -2.747e-7, 2.715e-7
0.027, -5.450e-7, -2.756e-7, 2.694e-7
0.026, -5.444e-7, -2.735e-7, 2.709e-7
0.025, -5.414e-7, -2.723e-7, 2.691e-7
0.024, -5.420e-7, -2.744e-7, 2.676e-7
0.023, -5.429e-7, -2.735e-7, 2.694e-7
0.022, -5.401e-7, -2.729e-7, 2.673e-7
0.021, -5.404e-7, -2.726e-7, 2.679e-7
0.020, -5.398e-7, -2.729e-7, 2.670e-7
0.019, -5.395e-7, -2.716e-7, 2.679e-7
0.018, -5.371e-7, -2.723e-7, 2.648e-7
0.017, -5.401e-7, -2.720e-7, 2.682e-7
0.016, -5.368e-7, -2.710e-7, 2.657e-7
0.015, -5.362e-7, -2.707e-7, 2.654e-7
0.014, -5.368e-7, -2.713e-7, 2.654e-7
0.013, -5.349e-7, -2.689e-7, 2.660e-7
0.012, -5.362e-7, -2.701e-7, 2.660e-7
0.011, -5.352e-7, -2.698e-7, 2.654e-7
0.010, -5.334e-7, -2.689e-7, 2.645e-7
0.009, -5.310e-7, -2.686e-7, 2.624e-7
0.008, -5.346e-7, -2.695e-7, 2.651e-7
0.007, -5.325e-7, -2.686e-7, 2.639e-7
0.006, -5.316e-7, -2.683e-7, 2.633e-7
0.005, -5.310e-7, -2.677e-7, 2.633e-7
0.004, -5.301e-7, -2.671e-7, 2.630e-7
0.003, -5.291e-7, -2.674e-7, 2.618e-7
0.002, -5.282e-7, -2.665e-7, 2.618e-7
0.001, -5.288e-7, -2.668e-7, 2.621e-7
-0.000, -5.291e-7, -2.671e-7, 2.621e-7
-0.001, -5.255e-7, -2.652e-7, 2.602e-7
-0.002, -5.279e-7, -2.662e-7, 2.618e-7
-0.003, -5.246e-7, -2.646e-7, 2.599e-7
-0.004, -5.282e-7, -2.655e-7, 2.627e-7
-0.005, -5.249e-7, -2.643e-7, 2.606e-7
-0.006, -5.267e-7, -2.665e-7, 2.602e-7
-0.007, -5.233e-7, -2.634e-7, 2.599e-7
-0.008, -5.212e-7, -2.631e-7, 2.581e-7
-0.009, -5.221e-7, -2.643e-7, 2.578e-7
-0.010, -5.240e-7, -2.649e-7, 2.590e-7
-0.011, -5.194e-7, -2.610e-7, 2.584e-7
-0.012, -5.191e-7, -2.628e-7, 2.563e-7
-0.013, -5.200e-7, -2.628e-7, 2.572e-7
-0.014, -5.188e-7, -2.619e-7, 2.569e-7
-0.015, -5.194e-7, -2.634e-7, 2.560e-7
-0.016, -5.194e-7, -2.625e-7, 2.569e-7
-0.017, -5.172e-7, -2.619e-7, 2.554e-7
-0.018, -5.148e-7, -2.601e-7, 2.548e-7
-0.019, -5.172e-7, -2.610e-7, 2.563e-7
-0.020, -5.160e-7, -2.613e-7, 2.548e-7
-0.021, -5.166e-7, -2.622e-7, 2.544e-7
-0.022, -5.169e-7, -2.619e-7, 2.551e-7
-0.023, -5.139e-7, -2.591e-7, 2.548e-7
-0.024, -5.139e-7, -2.604e-7, 2.535e-7
-0.025, -5.151e-7, -2.610e-7, 2.541e-7
-0.026, -5.111e-7, -2.585e-7, 2.526e-7
-0.027, -5.124e-7, -2.597e-7, 2.526e-7
-0.028, -5.121e-7, -2.591e-7, 2.529e-7
-0.029, -5.130e-7, -2.585e-7, 2.544e-7
-0.030, -5.111e-7, -2.585e-7, 2.526e-7
-0.031, -5.087e-7, -2.564e-7, 2.523e-7
-0.032, -5.099e-7, -2.579e-7, 2.520e-7
-0.033, -5.102e-7, -2.588e-7, 2.514e-7
-0.034, -5.090e-7, -2.570e-7, 2.520e-7
-0.035, -5.078e-7, -2.582e-7, 2.496e-7
-0.036, -5.066e-7, -2.570e-7, 2.496e-7
-0.037, -5.072e-7, -2.582e-7, 2.490e-7
-0.038, -5.066e-7, -2.561e-7, 2.505e-7
-0.039, -5.063e-7, -2.570e-7, 2.493e-7
-0.040, -5.060e-7, -2.561e-7, 2.499e-7
-0.041, -5.053e-7, -2.558e-7, 2.496e-7
-0.042, -5.035e-7, -2.552e-7, 2.483e-7
-0.043, -5.035e-7, -2.552e-7, 2.483e-7
-0.044, -5.020e-7, -2.539e-7, 2.480e-7
-0.045, -5.032e-7, -2.561e-7, 2.471e-7
-0.046, -5.023e-7, -2.539e-7, 2.483e-7
-0.047, -5.023e-7, -2.546e-7, 2.477e-7
-0.048, -4.998e-7, -2.543e-7, 2.456e-7
-0.049, -5.011e-7, -2.536e-7, 2.474e-7
-0.050, -4.992e-7, -2.530e-7, 2.462e-7
-0.051, -5.005e-7, -2.549e-7, 2.456e-7
-0.052, -4.989e-7, -2.536e-7, 2.453e-7
-0.053, -4.998e-7, -2.536e-7, 2.462e-7
-0.054, -4.995e-7, -2.536e-7, 2.459e-7
-0.055, -4.977e-7, -2.533e-7, 2.444e-7
-0.056, -4.971e-7, -2.521e-7, 2.450e-7
-0.057, -4.962e-7, -2.527e-7, 2.435e-7
-0.058, -4.959e-7, -2.530e-7, 2.429e-7
-0.059, -4.944e-7, -2.521e-7, 2.422e-7
-0.060, -4.962e-7, -2.530e-7, 2.432e-7
-0.061, -4.934e-7, -2.509e-7, 2.425e-7
-0.062, -4.956e-7, -2.524e-7, 2.432e-7
-0.063, -4.944e-7, -2.518e-7, 2.425e-7
-0.064, -4.953e-7, -2.521e-7, 2.432e-7
-0.065, -4.928e-7, -2.512e-7, 2.416e-7
-0.066, -4.928e-7, -2.503e-7, 2.425e-7
-0.067, -4.928e-7, -2.506e-7, 2.422e-7
-0.068, -4.907e-7, -2.518e-7, 2.389e-7
-0.069, -4.910e-7, -2.506e-7, 2.404e-7
-0.070, -4.916e-7, -2.497e-7, 2.419e-7
-0.071, -4.904e-7, -2.506e-7, 2.398e-7
-0.072, -4.901e-7, -2.506e-7, 2.395e-7
-0.073, -4.886e-7, -2.497e-7, 2.389e-7
-0.074, -4.892e-7, -2.497e-7, 2.395e-7
-0.075, -4.889e-7, -2.500e-7, 2.389e-7
-0.076, -4.870e-7, -2.488e-7, 2.383e-7
-0.077, -4.861e-7, -2.491e-7, 2.371e-7
-0.078, -4.867e-7, -2.494e-7, 2.374e-7
-0.079, -4.870e-7, -2.488e-7, 2.383e-7
-0.080, -4.873e-7, -2.491e-7, 2.383e-7
-0.081, -4.855e-7, -2.491e-7, 2.364e-7
-0.082, -4.858e-7, -2.494e-7, 2.364e-7
-0.083, -4.855e-7, -2.481e-7, 2.374e-7
-0.084, -4.855e-7, -2.494e-7, 2.361e-7
-0.085, -4.855e-7, -2.485e-7, 2.371e-7
-0.086, -4.846e-7, -2.485e-7, 2.361e-7
-0.087, -4.840e-7, -2.481e-7, 2.358e-7
-0.088, -4.846e-7, -2.478e-7, 2.367e-7
-0.089, -4.828e-7, -2.475e-7, 2.352e-7
-0.090, -4.834e-7, -2.472e-7, 2.361e-7
-0.091, -4.831e-7, -2.481e-7, 2.349e-7
-0.092, -4.815e-7, -2.478e-7, 2.337e-7
-0.093, -4.834e-7, -2.481e-7, 2.352e-7
-0.094, -4.815e-7, -2.472e-7, 2.343e-7
-0.095, -4.803e-7, -2.457e-7, 2.346e-7
-0.096, -4.809e-7, -2.478e-7, 2.331e-7
-0.097, -4.806e-7, -2.475e-7, 2.331e-7
-0.098, -4.797e-7, -2.463e-7, 2.334e-7
-0.099, -4.803e-7, -2.478e-7, 2.325e-7
-0.100, -4.797e-7, -2.463e-7, 2.334e-7
