Feb. 28, 2018   10:38:36
Square Wave Voltammetry
File: c:\users\electrochemist\desktop\2018\28022018_cal\3_g4_a5_ph4_4.txt
Data Source:  Experiment
Instrument Model:  CHI1040A
Header: 
Note: 

Init E (V) = 0.5
Final E (V) = -0.1
Incr E (V) = 0.001
Amplitude (V) = 0.1
Frequency (Hz) = 150
Quiet Time (sec) = 0
Sensitivity (A/V) = 1e-6

Difference:

Forward:

Reverse:
Potential/V, Diff(i/A), For(i/A), Rev(i/A)

0.499, -1.020e-6, -2.146e-7, 8.059e-7
0.498, -1.187e-6, -4.791e-7, 7.076e-7
0.497, -1.166e-6, -4.975e-7, 6.689e-7
0.496, -1.150e-6, -5.048e-7, 6.457e-7
0.495, -1.138e-6, -5.081e-7, 6.298e-7
0.494, -1.126e-6, -5.103e-7, 6.161e-7
0.493, -1.120e-6, -5.142e-7, 6.057e-7
0.492, -1.113e-6, -5.161e-7, 5.971e-7
0.491, -1.107e-6, -5.176e-7, 5.892e-7
0.490, -1.101e-6, -5.200e-7, 5.810e-7
0.489, -1.101e-6, -5.210e-7, 5.804e-7
0.488, -1.095e-6, -5.206e-7, 5.743e-7
0.487, -1.093e-6, -5.234e-7, 5.697e-7
0.486, -1.086e-6, -5.213e-7, 5.648e-7
0.485, -1.085e-6, -5.240e-7, 5.611e-7
0.484, -1.081e-6, -5.243e-7, 5.572e-7
0.483, -1.080e-6, -5.240e-7, 5.559e-7
0.482, -1.078e-6, -5.261e-7, 5.520e-7
0.481, -1.078e-6, -5.274e-7, 5.501e-7
0.480, -1.075e-6, -5.271e-7, 5.483e-7
0.479, -1.073e-6, -5.277e-7, 5.456e-7
0.478, -1.073e-6, -5.292e-7, 5.440e-7
0.477, -1.073e-6, -5.289e-7, 5.437e-7
0.476, -1.071e-6, -5.301e-7, 5.410e-7
0.475, -1.071e-6, -5.307e-7, 5.401e-7
0.474, -1.071e-6, -5.322e-7, 5.392e-7
0.473, -1.069e-6, -5.310e-7, 5.382e-7
0.472, -1.070e-6, -5.335e-7, 5.361e-7
0.471, -1.070e-6, -5.341e-7, 5.364e-7
0.470, -1.070e-6, -5.347e-7, 5.352e-7
0.469, -1.069e-6, -5.362e-7, 5.331e-7
0.468, -1.068e-6, -5.341e-7, 5.340e-7
0.467, -1.069e-6, -5.374e-7, 5.318e-7
0.466, -1.070e-6, -5.374e-7, 5.321e-7
0.465, -1.065e-6, -5.353e-7, 5.300e-7
0.464, -1.067e-6, -5.368e-7, 5.303e-7
0.463, -1.070e-6, -5.402e-7, 5.294e-7
0.462, -1.068e-6, -5.396e-7, 5.285e-7
0.461, -1.068e-6, -5.402e-7, 5.279e-7
0.460, -1.070e-6, -5.423e-7, 5.276e-7
0.459, -1.069e-6, -5.402e-7, 5.285e-7
0.458, -1.069e-6, -5.417e-7, 5.276e-7
0.457, -1.069e-6, -5.429e-7, 5.263e-7
0.456, -1.071e-6, -5.445e-7, 5.267e-7
0.455, -1.069e-6, -5.441e-7, 5.251e-7
0.454, -1.071e-6, -5.457e-7, 5.257e-7
0.453, -1.073e-6, -5.457e-7, 5.270e-7
0.452, -1.073e-6, -5.475e-7, 5.254e-7
0.451, -1.075e-6, -5.490e-7, 5.260e-7
0.450, -1.075e-6, -5.493e-7, 5.254e-7
0.449, -1.077e-6, -5.518e-7, 5.248e-7
0.448, -1.077e-6, -5.521e-7, 5.248e-7
0.447, -1.080e-6, -5.527e-7, 5.273e-7
0.446, -1.079e-6, -5.545e-7, 5.242e-7
0.445, -1.080e-6, -5.545e-7, 5.257e-7
0.444, -1.079e-6, -5.542e-7, 5.251e-7
0.443, -1.081e-6, -5.567e-7, 5.248e-7
0.442, -1.083e-6, -5.588e-7, 5.245e-7
0.441, -1.083e-6, -5.582e-7, 5.245e-7
0.440, -1.086e-6, -5.606e-7, 5.257e-7
0.439, -1.087e-6, -5.600e-7, 5.270e-7
0.438, -1.086e-6, -5.591e-7, 5.273e-7
0.437, -1.089e-6, -5.618e-7, 5.276e-7
0.436, -1.091e-6, -5.625e-7, 5.282e-7
0.435, -1.091e-6, -5.646e-7, 5.267e-7
0.434, -1.093e-6, -5.679e-7, 5.254e-7
0.433, -1.097e-6, -5.686e-7, 5.285e-7
0.432, -1.095e-6, -5.670e-7, 5.279e-7
0.431, -1.096e-6, -5.683e-7, 5.273e-7
0.430, -1.100e-6, -5.704e-7, 5.297e-7
0.429, -1.099e-6, -5.698e-7, 5.294e-7
0.428, -1.101e-6, -5.728e-7, 5.285e-7
0.427, -1.101e-6, -5.731e-7, 5.282e-7
0.426, -1.104e-6, -5.744e-7, 5.294e-7
0.425, -1.103e-6, -5.734e-7, 5.300e-7
0.424, -1.107e-6, -5.759e-7, 5.312e-7
0.423, -1.107e-6, -5.756e-7, 5.315e-7
0.422, -1.110e-6, -5.783e-7, 5.312e-7
0.421, -1.111e-6, -5.786e-7, 5.325e-7
0.420, -1.111e-6, -5.792e-7, 5.318e-7
0.419, -1.114e-6, -5.814e-7, 5.328e-7
0.418, -1.118e-6, -5.847e-7, 5.331e-7
0.417, -1.117e-6, -5.838e-7, 5.331e-7
0.416, -1.119e-6, -5.847e-7, 5.340e-7
0.415, -1.120e-6, -5.856e-7, 5.340e-7
0.414, -1.125e-6, -5.887e-7, 5.358e-7
0.413, -1.123e-6, -5.887e-7, 5.343e-7
0.412, -1.125e-6, -5.902e-7, 5.346e-7
0.411, -1.128e-6, -5.896e-7, 5.379e-7
0.410, -1.129e-6, -5.921e-7, 5.370e-7
0.409, -1.131e-6, -5.942e-7, 5.367e-7
0.408, -1.129e-6, -5.921e-7, 5.373e-7
0.407, -1.132e-6, -5.942e-7, 5.376e-7
0.406, -1.133e-6, -5.942e-7, 5.392e-7
0.405, -1.135e-6, -5.963e-7, 5.389e-7
0.404, -1.140e-6, -6.000e-7, 5.401e-7
0.403, -1.139e-6, -5.985e-7, 5.401e-7
0.402, -1.139e-6, -5.991e-7, 5.401e-7
0.401, -1.141e-6, -6.003e-7, 5.404e-7
0.400, -1.145e-6, -6.030e-7, 5.419e-7
0.399, -1.144e-6, -6.018e-7, 5.425e-7
0.398, -1.149e-6, -6.058e-7, 5.428e-7
0.397, -1.151e-6, -6.067e-7, 5.444e-7
0.396, -1.152e-6, -6.067e-7, 5.450e-7
0.395, -1.152e-6, -6.076e-7, 5.440e-7
0.394, -1.155e-6, -6.095e-7, 5.459e-7
0.393, -1.156e-6, -6.085e-7, 5.471e-7
0.392, -1.159e-6, -6.122e-7, 5.465e-7
0.391, -1.161e-6, -6.125e-7, 5.480e-7
0.390, -1.162e-6, -6.119e-7, 5.501e-7
0.389, -1.162e-6, -6.146e-7, 5.474e-7
0.388, -1.164e-6, -6.143e-7, 5.495e-7
0.387, -1.170e-6, -6.177e-7, 5.520e-7
0.386, -1.168e-6, -6.195e-7, 5.489e-7
0.385, -1.172e-6, -6.192e-7, 5.526e-7
0.384, -1.171e-6, -6.183e-7, 5.523e-7
0.383, -1.173e-6, -6.210e-7, 5.517e-7
0.382, -1.175e-6, -6.201e-7, 5.544e-7
0.381, -1.176e-6, -6.214e-7, 5.550e-7
0.380, -1.178e-6, -6.226e-7, 5.553e-7
0.379, -1.181e-6, -6.256e-7, 5.550e-7
0.378, -1.182e-6, -6.241e-7, 5.578e-7
0.377, -1.183e-6, -6.265e-7, 5.569e-7
0.376, -1.186e-6, -6.272e-7, 5.584e-7
0.375, -1.185e-6, -6.262e-7, 5.590e-7
0.374, -1.189e-6, -6.296e-7, 5.593e-7
0.373, -1.192e-6, -6.305e-7, 5.611e-7
0.372, -1.191e-6, -6.305e-7, 5.605e-7
0.371, -1.193e-6, -6.333e-7, 5.596e-7
0.370, -1.197e-6, -6.339e-7, 5.627e-7
0.369, -1.197e-6, -6.336e-7, 5.636e-7
0.368, -1.198e-6, -6.342e-7, 5.639e-7
0.367, -1.203e-6, -6.369e-7, 5.657e-7
0.366, -1.202e-6, -6.360e-7, 5.660e-7
0.365, -1.201e-6, -6.363e-7, 5.648e-7
0.364, -1.205e-6, -6.378e-7, 5.669e-7
0.363, -1.205e-6, -6.384e-7, 5.666e-7
0.362, -1.207e-6, -6.397e-7, 5.672e-7
0.361, -1.209e-6, -6.412e-7, 5.682e-7
0.360, -1.211e-6, -6.400e-7, 5.709e-7
0.359, -1.212e-6, -6.427e-7, 5.697e-7
0.358, -1.213e-6, -6.418e-7, 5.715e-7
0.357, -1.217e-6, -6.449e-7, 5.724e-7
0.356, -1.217e-6, -6.464e-7, 5.709e-7
0.355, -1.221e-6, -6.470e-7, 5.740e-7
0.354, -1.221e-6, -6.445e-7, 5.764e-7
0.353, -1.221e-6, -6.473e-7, 5.736e-7
0.352, -1.223e-6, -6.470e-7, 5.758e-7
0.351, -1.224e-6, -6.482e-7, 5.761e-7
0.350, -1.227e-6, -6.506e-7, 5.767e-7
0.349, -1.228e-6, -6.488e-7, 5.788e-7
0.348, -1.229e-6, -6.497e-7, 5.788e-7
0.347, -1.231e-6, -6.528e-7, 5.782e-7
0.346, -1.234e-6, -6.528e-7, 5.810e-7
0.345, -1.234e-6, -6.516e-7, 5.828e-7
0.344, -1.234e-6, -6.537e-7, 5.801e-7
0.343, -1.237e-6, -6.540e-7, 5.831e-7
0.342, -1.236e-6, -6.525e-7, 5.837e-7
0.341, -1.236e-6, -6.549e-7, 5.810e-7
0.340, -1.239e-6, -6.552e-7, 5.837e-7
0.339, -1.244e-6, -6.558e-7, 5.880e-7
0.338, -1.241e-6, -6.568e-7, 5.846e-7
0.337, -1.247e-6, -6.586e-7, 5.880e-7
0.336, -1.244e-6, -6.558e-7, 5.877e-7
0.335, -1.245e-6, -6.574e-7, 5.877e-7
0.334, -1.244e-6, -6.568e-7, 5.877e-7
0.333, -1.248e-6, -6.571e-7, 5.907e-7
0.332, -1.249e-6, -6.586e-7, 5.907e-7
0.331, -1.250e-6, -6.583e-7, 5.913e-7
0.330, -1.251e-6, -6.589e-7, 5.926e-7
0.329, -1.250e-6, -6.595e-7, 5.907e-7
0.328, -1.253e-6, -6.595e-7, 5.938e-7
0.327, -1.251e-6, -6.580e-7, 5.926e-7
0.326, -1.253e-6, -6.616e-7, 5.913e-7
0.325, -1.257e-6, -6.601e-7, 5.968e-7
0.324, -1.256e-6, -6.598e-7, 5.965e-7
0.323, -1.258e-6, -6.625e-7, 5.959e-7
0.322, -1.259e-6, -6.619e-7, 5.971e-7
0.321, -1.260e-6, -6.610e-7, 5.990e-7
0.320, -1.261e-6, -6.635e-7, 5.974e-7
0.319, -1.263e-6, -6.635e-7, 5.999e-7
0.318, -1.263e-6, -6.622e-7, 6.005e-7
0.317, -1.262e-6, -6.632e-7, 5.990e-7
0.316, -1.266e-6, -6.635e-7, 6.023e-7
0.315, -1.261e-6, -6.616e-7, 5.993e-7
0.314, -1.263e-6, -6.625e-7, 6.005e-7
0.313, -1.264e-6, -6.629e-7, 6.014e-7
0.312, -1.262e-6, -6.607e-7, 6.011e-7
0.311, -1.268e-6, -6.650e-7, 6.026e-7
0.310, -1.267e-6, -6.632e-7, 6.036e-7
0.309, -1.267e-6, -6.632e-7, 6.039e-7
0.308, -1.268e-6, -6.635e-7, 6.048e-7
0.307, -1.268e-6, -6.619e-7, 6.063e-7
0.306, -1.268e-6, -6.632e-7, 6.048e-7
0.305, -1.269e-6, -6.622e-7, 6.063e-7
0.304, -1.270e-6, -6.622e-7, 6.075e-7
0.303, -1.265e-6, -6.607e-7, 6.045e-7
0.302, -1.271e-6, -6.632e-7, 6.075e-7
0.301, -1.272e-6, -6.632e-7, 6.084e-7
0.300, -1.269e-6, -6.610e-7, 6.084e-7
0.299, -1.269e-6, -6.610e-7, 6.081e-7
0.298, -1.272e-6, -6.613e-7, 6.106e-7
0.297, -1.271e-6, -6.607e-7, 6.103e-7
0.296, -1.271e-6, -6.622e-7, 6.084e-7
0.295, -1.271e-6, -6.613e-7, 6.097e-7
0.294, -1.271e-6, -6.607e-7, 6.103e-7
0.293, -1.271e-6, -6.622e-7, 6.090e-7
0.292, -1.273e-6, -6.613e-7, 6.118e-7
0.291, -1.272e-6, -6.601e-7, 6.121e-7
0.290, -1.272e-6, -6.601e-7, 6.121e-7
0.289, -1.271e-6, -6.580e-7, 6.133e-7
0.288, -1.273e-6, -6.592e-7, 6.139e-7
0.287, -1.271e-6, -6.595e-7, 6.112e-7
0.286, -1.273e-6, -6.586e-7, 6.139e-7
0.285, -1.273e-6, -6.561e-7, 6.164e-7
0.284, -1.273e-6, -6.595e-7, 6.136e-7
0.283, -1.272e-6, -6.555e-7, 6.164e-7
0.282, -1.271e-6, -6.564e-7, 6.148e-7
0.281, -1.270e-6, -6.558e-7, 6.142e-7
0.280, -1.271e-6, -6.543e-7, 6.167e-7
0.279, -1.271e-6, -6.549e-7, 6.158e-7
0.278, -1.275e-6, -6.586e-7, 6.161e-7
0.277, -1.270e-6, -6.555e-7, 6.145e-7
0.276, -1.269e-6, -6.540e-7, 6.151e-7
0.275, -1.273e-6, -6.555e-7, 6.176e-7
0.274, -1.272e-6, -6.540e-7, 6.176e-7
0.273, -1.268e-6, -6.528e-7, 6.155e-7
0.272, -1.271e-6, -6.537e-7, 6.173e-7
0.271, -1.271e-6, -6.522e-7, 6.185e-7
0.270, -1.267e-6, -6.513e-7, 6.158e-7
0.269, -1.269e-6, -6.519e-7, 6.170e-7
0.268, -1.266e-6, -6.488e-7, 6.176e-7
0.267, -1.266e-6, -6.491e-7, 6.173e-7
0.266, -1.267e-6, -6.497e-7, 6.176e-7
0.265, -1.269e-6, -6.500e-7, 6.188e-7
0.264, -1.266e-6, -6.488e-7, 6.176e-7
0.263, -1.265e-6, -6.470e-7, 6.179e-7
0.262, -1.265e-6, -6.473e-7, 6.179e-7
0.261, -1.262e-6, -6.442e-7, 6.173e-7
0.260, -1.262e-6, -6.449e-7, 6.173e-7
0.259, -1.259e-6, -6.436e-7, 6.155e-7
0.258, -1.262e-6, -6.449e-7, 6.170e-7
0.257, -1.262e-6, -6.445e-7, 6.170e-7
0.256, -1.261e-6, -6.427e-7, 6.182e-7
0.255, -1.259e-6, -6.433e-7, 6.161e-7
0.254, -1.259e-6, -6.424e-7, 6.167e-7
0.253, -1.258e-6, -6.409e-7, 6.173e-7
0.252, -1.255e-6, -6.412e-7, 6.142e-7
0.251, -1.256e-6, -6.397e-7, 6.161e-7
0.250, -1.258e-6, -6.397e-7, 6.188e-7
0.249, -1.254e-6, -6.375e-7, 6.161e-7
0.248, -1.253e-6, -6.369e-7, 6.161e-7
0.247, -1.252e-6, -6.363e-7, 6.161e-7
0.246, -1.251e-6, -6.351e-7, 6.155e-7
0.245, -1.252e-6, -6.366e-7, 6.151e-7
0.244, -1.251e-6, -6.339e-7, 6.167e-7
0.243, -1.248e-6, -6.348e-7, 6.130e-7
0.242, -1.249e-6, -6.342e-7, 6.151e-7
0.241, -1.249e-6, -6.323e-7, 6.170e-7
0.240, -1.245e-6, -6.311e-7, 6.136e-7
0.239, -1.244e-6, -6.314e-7, 6.121e-7
0.238, -1.244e-6, -6.293e-7, 6.145e-7
0.237, -1.244e-6, -6.293e-7, 6.142e-7
0.236, -1.243e-6, -6.308e-7, 6.118e-7
0.235, -1.239e-6, -6.265e-7, 6.124e-7
0.234, -1.238e-6, -6.278e-7, 6.103e-7
0.233, -1.236e-6, -6.265e-7, 6.097e-7
0.232, -1.237e-6, -6.244e-7, 6.130e-7
0.231, -1.234e-6, -6.247e-7, 6.097e-7
0.230, -1.233e-6, -6.223e-7, 6.103e-7
0.229, -1.233e-6, -6.229e-7, 6.103e-7
0.228, -1.230e-6, -6.220e-7, 6.081e-7
0.227, -1.230e-6, -6.220e-7, 6.084e-7
0.226, -1.229e-6, -6.204e-7, 6.084e-7
0.225, -1.227e-6, -6.198e-7, 6.069e-7
0.224, -1.228e-6, -6.201e-7, 6.078e-7
0.223, -1.230e-6, -6.201e-7, 6.100e-7
0.222, -1.226e-6, -6.186e-7, 6.078e-7
0.221, -1.225e-6, -6.180e-7, 6.069e-7
0.220, -1.224e-6, -6.165e-7, 6.075e-7
0.219, -1.222e-6, -6.177e-7, 6.048e-7
0.218, -1.221e-6, -6.159e-7, 6.051e-7
0.217, -1.223e-6, -6.143e-7, 6.090e-7
0.216, -1.217e-6, -6.140e-7, 6.029e-7
0.215, -1.216e-6, -6.131e-7, 6.026e-7
0.214, -1.216e-6, -6.131e-7, 6.026e-7
0.213, -1.211e-6, -6.104e-7, 6.008e-7
0.212, -1.213e-6, -6.101e-7, 6.029e-7
0.211, -1.212e-6, -6.079e-7, 6.045e-7
0.210, -1.210e-6, -6.107e-7, 5.990e-7
0.209, -1.208e-6, -6.088e-7, 5.996e-7
0.208, -1.209e-6, -6.073e-7, 6.017e-7
0.207, -1.205e-6, -6.076e-7, 5.978e-7
0.206, -1.208e-6, -6.095e-7, 5.984e-7
0.205, -1.205e-6, -6.064e-7, 5.984e-7
0.204, -1.200e-6, -6.046e-7, 5.956e-7
0.203, -1.200e-6, -6.049e-7, 5.953e-7
0.202, -1.197e-6, -6.018e-7, 5.947e-7
0.201, -1.196e-6, -6.027e-7, 5.929e-7
0.200, -1.193e-6, -6.018e-7, 5.907e-7
0.199, -1.194e-6, -6.003e-7, 5.938e-7
0.198, -1.191e-6, -6.006e-7, 5.901e-7
0.197, -1.189e-6, -5.982e-7, 5.904e-7
0.196, -1.186e-6, -5.957e-7, 5.904e-7
0.195, -1.185e-6, -5.972e-7, 5.874e-7
0.194, -1.187e-6, -5.976e-7, 5.892e-7
0.193, -1.181e-6, -5.951e-7, 5.859e-7
0.192, -1.181e-6, -5.966e-7, 5.846e-7
0.191, -1.182e-6, -5.966e-7, 5.849e-7
0.190, -1.178e-6, -5.933e-7, 5.849e-7
0.189, -1.175e-6, -5.914e-7, 5.831e-7
0.188, -1.178e-6, -5.933e-7, 5.846e-7
0.187, -1.173e-6, -5.911e-7, 5.822e-7
0.186, -1.170e-6, -5.896e-7, 5.804e-7
0.185, -1.171e-6, -5.905e-7, 5.801e-7
0.184, -1.169e-6, -5.887e-7, 5.807e-7
0.183, -1.167e-6, -5.908e-7, 5.761e-7
0.182, -1.165e-6, -5.887e-7, 5.767e-7
0.181, -1.164e-6, -5.875e-7, 5.767e-7
0.180, -1.158e-6, -5.847e-7, 5.736e-7
0.179, -1.160e-6, -5.866e-7, 5.736e-7
0.178, -1.158e-6, -5.835e-7, 5.746e-7
0.177, -1.157e-6, -5.860e-7, 5.715e-7
0.176, -1.155e-6, -5.853e-7, 5.700e-7
0.175, -1.157e-6, -5.847e-7, 5.724e-7
0.174, -1.150e-6, -5.820e-7, 5.685e-7
0.173, -1.150e-6, -5.811e-7, 5.685e-7
0.172, -1.149e-6, -5.811e-7, 5.675e-7
0.171, -1.143e-6, -5.792e-7, 5.642e-7
0.170, -1.143e-6, -5.789e-7, 5.645e-7
0.169, -1.141e-6, -5.765e-7, 5.645e-7
0.168, -1.144e-6, -5.792e-7, 5.645e-7
0.167, -1.141e-6, -5.786e-7, 5.627e-7
0.166, -1.139e-6, -5.771e-7, 5.617e-7
0.165, -1.136e-6, -5.780e-7, 5.584e-7
0.164, -1.137e-6, -5.771e-7, 5.596e-7
0.163, -1.132e-6, -5.738e-7, 5.584e-7
0.162, -1.130e-6, -5.750e-7, 5.550e-7
0.161, -1.130e-6, -5.744e-7, 5.559e-7
0.160, -1.127e-6, -5.731e-7, 5.541e-7
0.159, -1.127e-6, -5.750e-7, 5.520e-7
0.158, -1.125e-6, -5.731e-7, 5.514e-7
0.157, -1.124e-6, -5.704e-7, 5.532e-7
0.156, -1.122e-6, -5.719e-7, 5.501e-7
0.155, -1.122e-6, -5.722e-7, 5.498e-7
0.154, -1.115e-6, -5.676e-7, 5.474e-7
0.153, -1.119e-6, -5.701e-7, 5.486e-7
0.152, -1.117e-6, -5.701e-7, 5.465e-7
0.151, -1.117e-6, -5.701e-7, 5.468e-7
0.150, -1.111e-6, -5.689e-7, 5.425e-7
0.149, -1.113e-6, -5.689e-7, 5.440e-7
0.148, -1.109e-6, -5.649e-7, 5.437e-7
0.147, -1.109e-6, -5.673e-7, 5.416e-7
0.146, -1.109e-6, -5.686e-7, 5.404e-7
0.145, -1.105e-6, -5.652e-7, 5.395e-7
0.144, -1.105e-6, -5.667e-7, 5.386e-7
0.143, -1.103e-6, -5.652e-7, 5.382e-7
0.142, -1.101e-6, -5.628e-7, 5.386e-7
0.141, -1.100e-6, -5.640e-7, 5.361e-7
0.140, -1.098e-6, -5.637e-7, 5.346e-7
0.139, -1.099e-6, -5.637e-7, 5.358e-7
0.138, -1.096e-6, -5.628e-7, 5.337e-7
0.137, -1.094e-6, -5.615e-7, 5.328e-7
0.136, -1.094e-6, -5.615e-7, 5.321e-7
0.135, -1.092e-6, -5.628e-7, 5.297e-7
0.134, -1.092e-6, -5.618e-7, 5.297e-7
0.133, -1.087e-6, -5.579e-7, 5.294e-7
0.132, -1.086e-6, -5.594e-7, 5.263e-7
0.131, -1.085e-6, -5.582e-7, 5.270e-7
0.130, -1.082e-6, -5.576e-7, 5.242e-7
0.129, -1.078e-6, -5.570e-7, 5.215e-7
0.128, -1.082e-6, -5.594e-7, 5.230e-7
0.127, -1.080e-6, -5.570e-7, 5.230e-7
0.126, -1.076e-6, -5.570e-7, 5.190e-7
0.125, -1.080e-6, -5.585e-7, 5.212e-7
0.124, -1.076e-6, -5.564e-7, 5.199e-7
0.123, -1.076e-6, -5.588e-7, 5.172e-7
0.122, -1.074e-6, -5.579e-7, 5.157e-7
0.121, -1.074e-6, -5.548e-7, 5.187e-7
0.120, -1.070e-6, -5.548e-7, 5.157e-7
0.119, -1.072e-6, -5.561e-7, 5.163e-7
0.118, -1.067e-6, -5.539e-7, 5.135e-7
0.117, -1.069e-6, -5.561e-7, 5.129e-7
0.116, -1.067e-6, -5.539e-7, 5.132e-7
0.115, -1.064e-6, -5.518e-7, 5.126e-7
0.114, -1.063e-6, -5.539e-7, 5.086e-7
0.113, -1.065e-6, -5.539e-7, 5.114e-7
0.112, -1.060e-6, -5.515e-7, 5.086e-7
0.111, -1.061e-6, -5.542e-7, 5.065e-7
0.110, -1.060e-6, -5.521e-7, 5.074e-7
0.109, -1.058e-6, -5.499e-7, 5.083e-7
0.108, -1.055e-6, -5.512e-7, 5.038e-7
0.107, -1.056e-6, -5.509e-7, 5.053e-7
0.106, -1.054e-6, -5.490e-7, 5.053e-7
0.105, -1.054e-6, -5.512e-7, 5.028e-7
0.104, -1.054e-6, -5.509e-7, 5.032e-7
0.103, -1.049e-6, -5.478e-7, 5.013e-7
0.102, -1.049e-6, -5.509e-7, 4.986e-7
0.101, -1.050e-6, -5.515e-7, 4.986e-7
0.100, -1.046e-6, -5.463e-7, 5.001e-7
0.099, -1.045e-6, -5.493e-7, 4.952e-7
0.098, -1.047e-6, -5.499e-7, 4.970e-7
0.097, -1.044e-6, -5.469e-7, 4.970e-7
0.096, -1.043e-6, -5.481e-7, 4.946e-7
0.095, -1.043e-6, -5.481e-7, 4.952e-7
0.094, -1.043e-6, -5.475e-7, 4.955e-7
0.093, -1.042e-6, -5.493e-7, 4.925e-7
0.092, -1.041e-6, -5.481e-7, 4.925e-7
0.091, -1.037e-6, -5.451e-7, 4.922e-7
0.090, -1.038e-6, -5.487e-7, 4.897e-7
0.089, -1.038e-6, -5.469e-7, 4.906e-7
0.088, -1.035e-6, -5.442e-7, 4.909e-7
0.087, -1.033e-6, -5.466e-7, 4.864e-7
0.086, -1.034e-6, -5.463e-7, 4.879e-7
0.085, -1.034e-6, -5.457e-7, 4.888e-7
0.084, -1.031e-6, -5.463e-7, 4.845e-7
0.083, -1.029e-6, -5.448e-7, 4.845e-7
0.082, -1.031e-6, -5.445e-7, 4.864e-7
0.081, -1.028e-6, -5.457e-7, 4.824e-7
0.080, -1.030e-6, -5.460e-7, 4.842e-7
0.079, -1.026e-6, -5.429e-7, 4.830e-7
0.078, -1.023e-6, -5.442e-7, 4.787e-7
0.077, -1.026e-6, -5.445e-7, 4.812e-7
0.076, -1.024e-6, -5.417e-7, 4.818e-7
0.075, -1.022e-6, -5.445e-7, 4.778e-7
0.074, -1.020e-6, -5.426e-7, 4.778e-7
0.073, -1.020e-6, -5.408e-7, 4.790e-7
0.072, -1.020e-6, -5.432e-7, 4.772e-7
0.071, -1.020e-6, -5.423e-7, 4.778e-7
0.070, -1.016e-6, -5.402e-7, 4.757e-7
0.069, -1.018e-6, -5.438e-7, 4.742e-7
0.068, -1.017e-6, -5.426e-7, 4.745e-7
0.067, -1.012e-6, -5.396e-7, 4.723e-7
0.066, -1.013e-6, -5.420e-7, 4.711e-7
0.065, -1.016e-6, -5.417e-7, 4.739e-7
0.064, -1.010e-6, -5.393e-7, 4.711e-7
0.063, -1.009e-6, -5.414e-7, 4.681e-7
0.062, -1.012e-6, -5.408e-7, 4.714e-7
0.061, -1.010e-6, -5.396e-7, 4.705e-7
0.060, -1.009e-6, -5.414e-7, 4.681e-7
0.059, -1.009e-6, -5.399e-7, 4.687e-7
0.058, -1.005e-6, -5.374e-7, 4.681e-7
0.057, -1.003e-6, -5.396e-7, 4.635e-7
0.056, -1.006e-6, -5.399e-7, 4.665e-7
0.055, -1.004e-6, -5.377e-7, 4.665e-7
0.054, -1.004e-6, -5.405e-7, 4.638e-7
0.053, -1.004e-6, -5.393e-7, 4.647e-7
0.052, -1.000e-6, -5.368e-7, 4.635e-7
0.051, -9.988e-7, -5.384e-7, 4.604e-7
0.050, -1.003e-6, -5.387e-7, 4.644e-7
0.049, -9.979e-7, -5.365e-7, 4.613e-7
0.048, -9.991e-7, -5.393e-7, 4.598e-7
0.047, -1.002e-6, -5.408e-7, 4.616e-7
0.046, -9.973e-7, -5.368e-7, 4.604e-7
0.045, -9.954e-7, -5.384e-7, 4.571e-7
0.044, -9.985e-7, -5.380e-7, 4.604e-7
0.043, -9.960e-7, -5.374e-7, 4.586e-7
0.042, -9.951e-7, -5.399e-7, 4.552e-7
0.041, -9.979e-7, -5.399e-7, 4.580e-7
0.040, -9.930e-7, -5.359e-7, 4.571e-7
0.039, -9.948e-7, -5.393e-7, 4.555e-7
0.038, -9.954e-7, -5.399e-7, 4.555e-7
0.037, -9.921e-7, -5.365e-7, 4.555e-7
0.036, -9.918e-7, -5.393e-7, 4.525e-7
0.035, -9.918e-7, -5.377e-7, 4.540e-7
0.034, -9.881e-7, -5.356e-7, 4.525e-7
0.033, -9.884e-7, -5.393e-7, 4.491e-7
0.032, -9.896e-7, -5.374e-7, 4.522e-7
0.031, -9.878e-7, -5.368e-7, 4.510e-7
0.030, -9.878e-7, -5.408e-7, 4.470e-7
0.029, -9.899e-7, -5.380e-7, 4.519e-7
0.028, -9.878e-7, -5.377e-7, 4.501e-7
0.027, -9.875e-7, -5.408e-7, 4.467e-7
0.026, -9.866e-7, -5.371e-7, 4.494e-7
0.025, -9.844e-7, -5.356e-7, 4.488e-7
0.024, -9.820e-7, -5.393e-7, 4.427e-7
0.023, -9.838e-7, -5.377e-7, 4.461e-7
0.022, -9.799e-7, -5.350e-7, 4.449e-7
0.021, -9.802e-7, -5.384e-7, 4.418e-7
0.020, -9.826e-7, -5.377e-7, 4.449e-7
0.019, -9.774e-7, -5.344e-7, 4.430e-7
0.018, -9.783e-7, -5.384e-7, 4.400e-7
0.017, -9.786e-7, -5.368e-7, 4.418e-7
0.016, -9.771e-7, -5.353e-7, 4.418e-7
0.015, -9.774e-7, -5.377e-7, 4.397e-7
0.014, -9.762e-7, -5.356e-7, 4.406e-7
0.013, -9.741e-7, -5.344e-7, 4.397e-7
0.012, -9.750e-7, -5.377e-7, 4.372e-7
0.011, -9.759e-7, -5.365e-7, 4.394e-7
0.010, -9.707e-7, -5.350e-7, 4.357e-7
0.009, -9.716e-7, -5.359e-7, 4.357e-7
0.008, -9.741e-7, -5.371e-7, 4.369e-7
0.007, -9.713e-7, -5.353e-7, 4.360e-7
0.006, -9.704e-7, -5.371e-7, 4.333e-7
0.005, -9.695e-7, -5.350e-7, 4.345e-7
0.004, -9.683e-7, -5.341e-7, 4.342e-7
0.003, -9.677e-7, -5.359e-7, 4.317e-7
0.002, -9.716e-7, -5.368e-7, 4.348e-7
0.001, -9.658e-7, -5.332e-7, 4.327e-7
-0.000, -9.643e-7, -5.350e-7, 4.293e-7
-0.001, -9.683e-7, -5.356e-7, 4.327e-7
-0.002, -9.652e-7, -5.341e-7, 4.311e-7
-0.003, -9.637e-7, -5.365e-7, 4.272e-7
-0.004, -9.658e-7, -5.353e-7, 4.305e-7
-0.005, -9.591e-7, -5.326e-7, 4.266e-7
-0.006, -9.612e-7, -5.353e-7, 4.259e-7
-0.007, -9.640e-7, -5.344e-7, 4.296e-7
-0.008, -9.588e-7, -5.326e-7, 4.263e-7
-0.009, -9.603e-7, -5.353e-7, 4.250e-7
-0.010, -9.619e-7, -5.338e-7, 4.281e-7
-0.011, -9.558e-7, -5.319e-7, 4.238e-7
-0.012, -9.570e-7, -5.347e-7, 4.223e-7
-0.013, -9.582e-7, -5.319e-7, 4.263e-7
-0.014, -9.545e-7, -5.323e-7, 4.223e-7
-0.015, -9.548e-7, -5.347e-7, 4.201e-7
-0.016, -9.591e-7, -5.365e-7, 4.226e-7
-0.017, -9.542e-7, -5.323e-7, 4.220e-7
-0.018, -9.536e-7, -5.338e-7, 4.198e-7
-0.019, -9.551e-7, -5.332e-7, 4.220e-7
-0.020, -9.536e-7, -5.335e-7, 4.201e-7
-0.021, -9.536e-7, -5.359e-7, 4.177e-7
-0.022, -9.554e-7, -5.356e-7, 4.198e-7
-0.023, -9.515e-7, -5.332e-7, 4.183e-7
-0.024, -9.509e-7, -5.347e-7, 4.162e-7
-0.025, -9.506e-7, -5.332e-7, 4.174e-7
-0.026, -9.454e-7, -5.304e-7, 4.150e-7
-0.027, -9.478e-7, -5.347e-7, 4.131e-7
-0.028, -9.497e-7, -5.341e-7, 4.156e-7
-0.029, -9.442e-7, -5.310e-7, 4.131e-7
-0.030, -9.472e-7, -5.356e-7, 4.116e-7
-0.031, -9.493e-7, -5.347e-7, 4.147e-7
-0.032, -9.439e-7, -5.310e-7, 4.128e-7
-0.033, -9.472e-7, -5.371e-7, 4.101e-7
-0.034, -9.451e-7, -5.347e-7, 4.104e-7
-0.035, -9.448e-7, -5.335e-7, 4.113e-7
-0.036, -9.429e-7, -5.347e-7, 4.082e-7
-0.037, -9.442e-7, -5.350e-7, 4.092e-7
-0.038, -9.417e-7, -5.332e-7, 4.086e-7
-0.039, -9.393e-7, -5.332e-7, 4.061e-7
-0.040, -9.423e-7, -5.341e-7, 4.082e-7
-0.041, -9.399e-7, -5.341e-7, 4.058e-7
-0.042, -9.408e-7, -5.362e-7, 4.046e-7
-0.043, -9.420e-7, -5.362e-7, 4.058e-7
-0.044, -9.399e-7, -5.341e-7, 4.058e-7
-0.045, -9.378e-7, -5.362e-7, 4.015e-7
-0.046, -9.393e-7, -5.341e-7, 4.052e-7
-0.047, -9.390e-7, -5.347e-7, 4.043e-7
-0.048, -9.378e-7, -5.362e-7, 4.015e-7
-0.049, -9.381e-7, -5.359e-7, 4.021e-7
-0.050, -9.332e-7, -5.326e-7, 4.006e-7
-0.051, -9.347e-7, -5.359e-7, 3.988e-7
-0.052, -9.368e-7, -5.362e-7, 4.006e-7
-0.053, -9.350e-7, -5.365e-7, 3.985e-7
-0.054, -9.359e-7, -5.380e-7, 3.979e-7
-0.055, -9.350e-7, -5.359e-7, 3.991e-7
-0.056, -9.332e-7, -5.344e-7, 3.988e-7
-0.057, -9.344e-7, -5.384e-7, 3.960e-7
-0.058, -9.350e-7, -5.371e-7, 3.979e-7
-0.059, -9.320e-7, -5.362e-7, 3.957e-7
-0.060, -9.329e-7, -5.371e-7, 3.957e-7
-0.061, -9.350e-7, -5.387e-7, 3.963e-7
-0.062, -9.307e-7, -5.368e-7, 3.939e-7
-0.063, -9.307e-7, -5.387e-7, 3.921e-7
-0.064, -9.356e-7, -5.393e-7, 3.963e-7
-0.065, -9.326e-7, -5.393e-7, 3.933e-7
-0.066, -9.310e-7, -5.399e-7, 3.912e-7
-0.067, -9.347e-7, -5.429e-7, 3.918e-7
-0.068, -9.332e-7, -5.411e-7, 3.921e-7
-0.069, -9.335e-7, -5.438e-7, 3.896e-7
-0.070, -9.341e-7, -5.432e-7, 3.909e-7
-0.071, -9.320e-7, -5.417e-7, 3.902e-7
-0.072, -9.316e-7, -5.429e-7, 3.887e-7
-0.073, -9.323e-7, -5.426e-7, 3.896e-7
-0.074, -9.295e-7, -5.420e-7, 3.875e-7
-0.075, -9.332e-7, -5.463e-7, 3.869e-7
-0.076, -9.323e-7, -5.435e-7, 3.887e-7
-0.077, -9.313e-7, -5.448e-7, 3.866e-7
-0.078, -9.316e-7, -5.457e-7, 3.860e-7
-0.079, -9.341e-7, -5.475e-7, 3.866e-7
-0.080, -9.307e-7, -5.448e-7, 3.860e-7
-0.081, -9.310e-7, -5.469e-7, 3.841e-7
-0.082, -9.310e-7, -5.463e-7, 3.847e-7
-0.083, -9.304e-7, -5.457e-7, 3.847e-7
-0.084, -9.329e-7, -5.503e-7, 3.826e-7
-0.085, -9.307e-7, -5.484e-7, 3.823e-7
-0.086, -9.320e-7, -5.509e-7, 3.811e-7
-0.087, -9.316e-7, -5.512e-7, 3.805e-7
-0.088, -9.335e-7, -5.500e-7, 3.835e-7
-0.089, -9.304e-7, -5.500e-7, 3.805e-7
-0.090, -9.307e-7, -5.521e-7, 3.786e-7
-0.091, -9.341e-7, -5.536e-7, 3.805e-7
-0.092, -9.335e-7, -5.539e-7, 3.796e-7
-0.093, -9.341e-7, -5.557e-7, 3.783e-7
-0.094, -9.332e-7, -5.542e-7, 3.790e-7
-0.095, -9.338e-7, -5.548e-7, 3.790e-7
-0.096, -9.344e-7, -5.570e-7, 3.774e-7
-0.097, -9.359e-7, -5.582e-7, 3.777e-7
-0.098, -9.341e-7, -5.573e-7, 3.768e-7
-0.099, -9.335e-7, -5.594e-7, 3.741e-7
-0.100, -9.371e-7, -5.591e-7, 3.780e-7
