Feb. 28, 2018   10:39:52
Square Wave Voltammetry
File: c:\users\electrochemist\desktop\2018\28022018_cal\4_g4_a6_ph4_5.txt
Data Source:  Experiment
Instrument Model:  CHI1040A
Header: 
Note: 

Init E (V) = 0.5
Final E (V) = -0.1
Incr E (V) = 0.001
Amplitude (V) = 0.1
Frequency (Hz) = 150
Quiet Time (sec) = 0
Sensitivity (A/V) = 1e-6

Difference:

Forward:

Reverse:

Potential/V, Diff(i/A), For(i/A), Rev(i/A)

0.499, -8.670e-7, -1.746e-7, 6.924e-7
0.498, -1.054e-6, -4.419e-7, 6.121e-7
0.497, -1.036e-6, -4.566e-7, 5.798e-7
0.496, -1.029e-6, -4.676e-7, 5.614e-7
0.495, -1.024e-6, -4.718e-7, 5.523e-7
0.494, -1.016e-6, -4.734e-7, 5.428e-7
0.493, -1.014e-6, -4.807e-7, 5.331e-7
0.492, -1.010e-6, -4.804e-7, 5.300e-7
0.491, -1.009e-6, -4.837e-7, 5.248e-7
0.490, -1.006e-6, -4.883e-7, 5.181e-7
0.489, -1.005e-6, -4.880e-7, 5.166e-7
0.488, -1.000e-6, -4.868e-7, 5.135e-7
0.487, -1.002e-6, -4.932e-7, 5.093e-7
0.486, -1.006e-6, -4.944e-7, 5.114e-7
0.485, -1.003e-6, -4.972e-7, 5.056e-7
0.484, -1.001e-6, -4.984e-7, 5.029e-7
0.483, -1.004e-6, -4.981e-7, 5.056e-7
0.482, -9.976e-7, -4.968e-7, 5.007e-7
0.481, -1.003e-6, -5.033e-7, 4.998e-7
0.480, -1.006e-6, -5.051e-7, 5.013e-7
0.479, -1.001e-6, -5.033e-7, 4.980e-7
0.478, -1.002e-6, -5.066e-7, 4.949e-7
0.477, -1.002e-6, -5.051e-7, 4.974e-7
0.476, -1.001e-6, -5.057e-7, 4.949e-7
0.475, -1.005e-6, -5.103e-7, 4.952e-7
0.474, -1.006e-6, -5.121e-7, 4.943e-7
0.473, -1.004e-6, -5.112e-7, 4.931e-7
0.472, -1.006e-6, -5.152e-7, 4.906e-7
0.471, -1.010e-6, -5.158e-7, 4.943e-7
0.470, -1.006e-6, -5.139e-7, 4.925e-7
0.469, -1.011e-6, -5.191e-7, 4.922e-7
0.468, -1.013e-6, -5.191e-7, 4.937e-7
0.467, -1.010e-6, -5.182e-7, 4.919e-7
0.466, -1.011e-6, -5.216e-7, 4.891e-7
0.465, -1.018e-6, -5.240e-7, 4.937e-7
0.464, -1.016e-6, -5.243e-7, 4.916e-7
0.463, -1.014e-6, -5.240e-7, 4.900e-7
0.462, -1.021e-6, -5.280e-7, 4.934e-7
0.461, -1.021e-6, -5.286e-7, 4.925e-7
0.460, -1.020e-6, -5.310e-7, 4.885e-7
0.459, -1.021e-6, -5.298e-7, 4.916e-7
0.458, -1.023e-6, -5.319e-7, 4.913e-7
0.457, -1.027e-6, -5.356e-7, 4.919e-7
0.456, -1.029e-6, -5.347e-7, 4.943e-7
0.455, -1.026e-6, -5.338e-7, 4.925e-7
0.454, -1.030e-6, -5.393e-7, 4.909e-7
0.453, -1.037e-6, -5.420e-7, 4.946e-7
0.452, -1.034e-6, -5.411e-7, 4.934e-7
0.451, -1.038e-6, -5.448e-7, 4.937e-7
0.450, -1.039e-6, -5.432e-7, 4.955e-7
0.449, -1.038e-6, -5.426e-7, 4.949e-7
0.448, -1.041e-6, -5.472e-7, 4.940e-7
0.447, -1.044e-6, -5.475e-7, 4.967e-7
0.446, -1.044e-6, -5.475e-7, 4.967e-7
0.445, -1.047e-6, -5.521e-7, 4.952e-7
0.444, -1.052e-6, -5.536e-7, 4.986e-7
0.443, -1.050e-6, -5.536e-7, 4.961e-7
0.442, -1.051e-6, -5.564e-7, 4.949e-7
0.441, -1.056e-6, -5.557e-7, 4.998e-7
0.440, -1.055e-6, -5.570e-7, 4.977e-7
0.439, -1.060e-6, -5.609e-7, 4.992e-7
0.438, -1.061e-6, -5.612e-7, 5.001e-7
0.437, -1.059e-6, -5.597e-7, 4.995e-7
0.436, -1.065e-6, -5.652e-7, 4.995e-7
0.435, -1.069e-6, -5.670e-7, 5.019e-7
0.434, -1.069e-6, -5.679e-7, 5.007e-7
0.433, -1.071e-6, -5.695e-7, 5.019e-7
0.432, -1.075e-6, -5.710e-7, 5.044e-7
0.431, -1.075e-6, -5.719e-7, 5.035e-7
0.430, -1.081e-6, -5.750e-7, 5.059e-7
0.429, -1.082e-6, -5.741e-7, 5.077e-7
0.428, -1.082e-6, -5.768e-7, 5.056e-7
0.427, -1.085e-6, -5.792e-7, 5.056e-7
0.426, -1.090e-6, -5.808e-7, 5.093e-7
0.425, -1.086e-6, -5.795e-7, 5.065e-7
0.424, -1.092e-6, -5.844e-7, 5.071e-7
0.423, -1.096e-6, -5.869e-7, 5.086e-7
0.422, -1.096e-6, -5.850e-7, 5.114e-7
0.421, -1.099e-6, -5.893e-7, 5.102e-7
0.420, -1.106e-6, -5.908e-7, 5.148e-7
0.419, -1.104e-6, -5.911e-7, 5.129e-7
0.418, -1.104e-6, -5.918e-7, 5.120e-7
0.417, -1.111e-6, -5.942e-7, 5.172e-7
0.416, -1.111e-6, -5.954e-7, 5.157e-7
0.415, -1.115e-6, -5.988e-7, 5.163e-7
0.414, -1.119e-6, -5.991e-7, 5.196e-7
0.413, -1.117e-6, -6.000e-7, 5.175e-7
0.412, -1.122e-6, -6.037e-7, 5.187e-7
0.411, -1.123e-6, -6.037e-7, 5.190e-7
0.410, -1.128e-6, -6.064e-7, 5.218e-7
0.409, -1.132e-6, -6.113e-7, 5.209e-7
0.408, -1.130e-6, -6.085e-7, 5.215e-7
0.407, -1.134e-6, -6.119e-7, 5.218e-7
0.406, -1.139e-6, -6.137e-7, 5.248e-7
0.405, -1.139e-6, -6.134e-7, 5.257e-7
0.404, -1.144e-6, -6.174e-7, 5.263e-7
0.403, -1.148e-6, -6.195e-7, 5.288e-7
0.402, -1.147e-6, -6.189e-7, 5.285e-7
0.401, -1.150e-6, -6.204e-7, 5.294e-7
0.400, -1.155e-6, -6.247e-7, 5.300e-7
0.399, -1.156e-6, -6.241e-7, 5.321e-7
0.398, -1.158e-6, -6.253e-7, 5.324e-7
0.397, -1.161e-6, -6.278e-7, 5.328e-7
0.396, -1.164e-6, -6.302e-7, 5.340e-7
0.395, -1.167e-6, -6.314e-7, 5.352e-7
0.394, -1.169e-6, -6.345e-7, 5.346e-7
0.393, -1.171e-6, -6.329e-7, 5.379e-7
0.392, -1.175e-6, -6.369e-7, 5.376e-7
0.391, -1.175e-6, -6.375e-7, 5.373e-7
0.390, -1.179e-6, -6.384e-7, 5.407e-7
0.389, -1.183e-6, -6.406e-7, 5.422e-7
0.388, -1.186e-6, -6.436e-7, 5.425e-7
0.387, -1.190e-6, -6.452e-7, 5.453e-7
0.386, -1.188e-6, -6.445e-7, 5.434e-7
0.385, -1.191e-6, -6.470e-7, 5.440e-7
0.384, -1.194e-6, -6.467e-7, 5.477e-7
0.383, -1.200e-6, -6.510e-7, 5.489e-7
0.382, -1.203e-6, -6.525e-7, 5.505e-7
0.381, -1.205e-6, -6.510e-7, 5.538e-7
0.380, -1.207e-6, -6.549e-7, 5.520e-7
0.379, -1.209e-6, -6.568e-7, 5.526e-7
0.378, -1.211e-6, -6.580e-7, 5.535e-7
0.377, -1.213e-6, -6.580e-7, 5.547e-7
0.376, -1.216e-6, -6.610e-7, 5.547e-7
0.375, -1.217e-6, -6.595e-7, 5.575e-7
0.374, -1.222e-6, -6.622e-7, 5.593e-7
0.373, -1.222e-6, -6.641e-7, 5.584e-7
0.372, -1.228e-6, -6.653e-7, 5.624e-7
0.371, -1.229e-6, -6.662e-7, 5.624e-7
0.370, -1.233e-6, -6.693e-7, 5.636e-7
0.369, -1.233e-6, -6.708e-7, 5.624e-7
0.368, -1.236e-6, -6.720e-7, 5.639e-7
0.367, -1.239e-6, -6.714e-7, 5.675e-7
0.366, -1.241e-6, -6.735e-7, 5.672e-7
0.365, -1.244e-6, -6.745e-7, 5.694e-7
0.364, -1.247e-6, -6.766e-7, 5.706e-7
0.363, -1.248e-6, -6.787e-7, 5.691e-7
0.362, -1.247e-6, -6.757e-7, 5.715e-7
0.361, -1.253e-6, -6.787e-7, 5.746e-7
0.360, -1.257e-6, -6.806e-7, 5.764e-7
0.359, -1.257e-6, -6.818e-7, 5.749e-7
0.358, -1.260e-6, -6.812e-7, 5.788e-7
0.357, -1.264e-6, -6.851e-7, 5.785e-7
0.356, -1.263e-6, -6.851e-7, 5.776e-7
0.355, -1.266e-6, -6.845e-7, 5.816e-7
0.354, -1.269e-6, -6.873e-7, 5.822e-7
0.353, -1.271e-6, -6.885e-7, 5.825e-7
0.352, -1.273e-6, -6.891e-7, 5.840e-7
0.351, -1.276e-6, -6.882e-7, 5.874e-7
0.350, -1.278e-6, -6.918e-7, 5.865e-7
0.349, -1.281e-6, -6.918e-7, 5.889e-7
0.348, -1.280e-6, -6.912e-7, 5.892e-7
0.347, -1.283e-6, -6.934e-7, 5.895e-7
0.346, -1.288e-6, -6.958e-7, 5.920e-7
0.345, -1.288e-6, -6.955e-7, 5.926e-7
0.344, -1.290e-6, -6.973e-7, 5.923e-7
0.343, -1.291e-6, -6.955e-7, 5.953e-7
0.342, -1.293e-6, -6.970e-7, 5.962e-7
0.341, -1.294e-6, -6.979e-7, 5.959e-7
0.340, -1.297e-6, -6.973e-7, 5.996e-7
0.339, -1.298e-6, -6.992e-7, 5.987e-7
0.338, -1.303e-6, -7.025e-7, 6.002e-7
0.337, -1.305e-6, -7.028e-7, 6.020e-7
0.336, -1.304e-6, -7.013e-7, 6.026e-7
0.335, -1.307e-6, -7.044e-7, 6.029e-7
0.334, -1.305e-6, -7.010e-7, 6.042e-7
0.333, -1.308e-6, -7.019e-7, 6.057e-7
0.332, -1.311e-6, -7.031e-7, 6.081e-7
0.331, -1.311e-6, -7.028e-7, 6.078e-7
0.330, -1.313e-6, -7.047e-7, 6.084e-7
0.329, -1.315e-6, -7.056e-7, 6.097e-7
0.328, -1.317e-6, -7.062e-7, 6.112e-7
0.327, -1.317e-6, -7.062e-7, 6.109e-7
0.326, -1.320e-6, -7.074e-7, 6.121e-7
0.325, -1.318e-6, -7.044e-7, 6.139e-7
0.324, -1.321e-6, -7.068e-7, 6.145e-7
0.323, -1.323e-6, -7.074e-7, 6.161e-7
0.322, -1.323e-6, -7.059e-7, 6.173e-7
0.321, -1.326e-6, -7.080e-7, 6.176e-7
0.320, -1.324e-6, -7.062e-7, 6.176e-7
0.319, -1.327e-6, -7.068e-7, 6.200e-7
0.318, -1.327e-6, -7.062e-7, 6.212e-7
0.317, -1.329e-6, -7.080e-7, 6.206e-7
0.316, -1.330e-6, -7.062e-7, 6.240e-7
0.315, -1.332e-6, -7.071e-7, 6.249e-7
0.314, -1.334e-6, -7.089e-7, 6.252e-7
0.313, -1.331e-6, -7.050e-7, 6.261e-7
0.312, -1.333e-6, -7.077e-7, 6.255e-7
0.311, -1.335e-6, -7.071e-7, 6.280e-7
0.310, -1.337e-6, -7.071e-7, 6.301e-7
0.309, -1.337e-6, -7.074e-7, 6.292e-7
0.308, -1.336e-6, -7.062e-7, 6.298e-7
0.307, -1.339e-6, -7.074e-7, 6.319e-7
0.306, -1.337e-6, -7.074e-7, 6.295e-7
0.305, -1.338e-6, -7.071e-7, 6.313e-7
0.304, -1.338e-6, -7.056e-7, 6.322e-7
0.303, -1.336e-6, -7.047e-7, 6.316e-7
0.302, -1.340e-6, -7.065e-7, 6.335e-7
0.301, -1.344e-6, -7.077e-7, 6.359e-7
0.300, -1.338e-6, -7.022e-7, 6.353e-7
0.299, -1.344e-6, -7.047e-7, 6.389e-7
0.298, -1.342e-6, -7.037e-7, 6.383e-7
0.297, -1.340e-6, -7.022e-7, 6.374e-7
0.296, -1.343e-6, -7.050e-7, 6.380e-7
0.295, -1.342e-6, -7.031e-7, 6.389e-7
0.294, -1.336e-6, -6.970e-7, 6.393e-7
0.293, -1.341e-6, -7.034e-7, 6.380e-7
0.292, -1.344e-6, -6.995e-7, 6.444e-7
0.291, -1.340e-6, -6.998e-7, 6.402e-7
0.290, -1.342e-6, -7.001e-7, 6.420e-7
0.289, -1.345e-6, -6.995e-7, 6.454e-7
0.288, -1.341e-6, -6.983e-7, 6.426e-7
0.287, -1.343e-6, -6.998e-7, 6.435e-7
0.286, -1.341e-6, -6.952e-7, 6.454e-7
0.285, -1.339e-6, -6.952e-7, 6.441e-7
0.284, -1.341e-6, -6.979e-7, 6.435e-7
0.283, -1.342e-6, -6.949e-7, 6.472e-7
0.282, -1.336e-6, -6.925e-7, 6.435e-7
0.281, -1.341e-6, -6.952e-7, 6.457e-7
0.280, -1.339e-6, -6.918e-7, 6.472e-7
0.279, -1.339e-6, -6.915e-7, 6.475e-7
0.278, -1.338e-6, -6.903e-7, 6.475e-7
0.277, -1.339e-6, -6.888e-7, 6.502e-7
0.276, -1.336e-6, -6.885e-7, 6.475e-7
0.275, -1.337e-6, -6.888e-7, 6.484e-7
0.274, -1.335e-6, -6.854e-7, 6.496e-7
0.273, -1.332e-6, -6.851e-7, 6.469e-7
0.272, -1.337e-6, -6.879e-7, 6.487e-7
0.271, -1.334e-6, -6.833e-7, 6.508e-7
0.270, -1.333e-6, -6.842e-7, 6.490e-7
0.269, -1.333e-6, -6.833e-7, 6.493e-7
0.268, -1.331e-6, -6.802e-7, 6.512e-7
0.267, -1.329e-6, -6.793e-7, 6.499e-7
0.266, -1.331e-6, -6.802e-7, 6.505e-7
0.265, -1.328e-6, -6.772e-7, 6.512e-7
0.264, -1.327e-6, -6.778e-7, 6.496e-7
0.263, -1.327e-6, -6.775e-7, 6.493e-7
0.262, -1.324e-6, -6.732e-7, 6.508e-7
0.261, -1.322e-6, -6.732e-7, 6.490e-7
0.260, -1.323e-6, -6.723e-7, 6.508e-7
0.259, -1.322e-6, -6.708e-7, 6.508e-7
0.258, -1.321e-6, -6.696e-7, 6.515e-7
0.257, -1.320e-6, -6.687e-7, 6.515e-7
0.256, -1.316e-6, -6.653e-7, 6.505e-7
0.255, -1.316e-6, -6.662e-7, 6.499e-7
0.254, -1.312e-6, -6.641e-7, 6.484e-7
0.253, -1.312e-6, -6.626e-7, 6.499e-7
0.252, -1.312e-6, -6.610e-7, 6.505e-7
0.251, -1.312e-6, -6.619e-7, 6.499e-7
0.250, -1.306e-6, -6.574e-7, 6.484e-7
0.249, -1.309e-6, -6.592e-7, 6.499e-7
0.248, -1.309e-6, -6.583e-7, 6.505e-7
0.247, -1.303e-6, -6.546e-7, 6.484e-7
0.246, -1.305e-6, -6.552e-7, 6.493e-7
0.245, -1.302e-6, -6.528e-7, 6.493e-7
0.244, -1.301e-6, -6.513e-7, 6.493e-7
0.243, -1.298e-6, -6.516e-7, 6.466e-7
0.242, -1.298e-6, -6.510e-7, 6.472e-7
0.241, -1.296e-6, -6.491e-7, 6.472e-7
0.240, -1.294e-6, -6.479e-7, 6.460e-7
0.239, -1.291e-6, -6.461e-7, 6.454e-7
0.238, -1.291e-6, -6.436e-7, 6.478e-7
0.237, -1.291e-6, -6.452e-7, 6.457e-7
0.236, -1.285e-6, -6.406e-7, 6.447e-7
0.235, -1.284e-6, -6.387e-7, 6.451e-7
0.234, -1.284e-6, -6.394e-7, 6.451e-7
0.233, -1.282e-6, -6.384e-7, 6.435e-7
0.232, -1.279e-6, -6.360e-7, 6.429e-7
0.231, -1.273e-6, -6.348e-7, 6.386e-7
0.230, -1.275e-6, -6.336e-7, 6.417e-7
0.229, -1.272e-6, -6.314e-7, 6.408e-7
0.228, -1.274e-6, -6.311e-7, 6.426e-7
0.227, -1.269e-6, -6.302e-7, 6.393e-7
0.226, -1.267e-6, -6.278e-7, 6.393e-7
0.225, -1.265e-6, -6.272e-7, 6.377e-7
0.224, -1.262e-6, -6.235e-7, 6.386e-7
0.223, -1.261e-6, -6.232e-7, 6.374e-7
0.222, -1.258e-6, -6.232e-7, 6.350e-7
0.221, -1.258e-6, -6.214e-7, 6.368e-7
0.220, -1.256e-6, -6.207e-7, 6.353e-7
0.219, -1.253e-6, -6.186e-7, 6.344e-7
0.218, -1.251e-6, -6.168e-7, 6.338e-7
0.217, -1.247e-6, -6.143e-7, 6.322e-7
0.216, -1.244e-6, -6.156e-7, 6.286e-7
0.215, -1.243e-6, -6.149e-7, 6.283e-7
0.214, -1.239e-6, -6.098e-7, 6.289e-7
0.213, -1.238e-6, -6.107e-7, 6.274e-7
0.212, -1.237e-6, -6.082e-7, 6.292e-7
0.211, -1.231e-6, -6.049e-7, 6.264e-7
0.210, -1.231e-6, -6.061e-7, 6.252e-7
0.209, -1.227e-6, -6.034e-7, 6.240e-7
0.208, -1.225e-6, -6.015e-7, 6.231e-7
0.207, -1.227e-6, -6.030e-7, 6.237e-7
0.206, -1.221e-6, -6.000e-7, 6.209e-7
0.205, -1.220e-6, -5.979e-7, 6.222e-7
0.204, -1.218e-6, -6.009e-7, 6.167e-7
0.203, -1.218e-6, -5.966e-7, 6.212e-7
0.202, -1.211e-6, -5.939e-7, 6.170e-7
0.201, -1.211e-6, -5.936e-7, 6.176e-7
0.200, -1.207e-6, -5.908e-7, 6.161e-7
0.199, -1.203e-6, -5.899e-7, 6.133e-7
0.198, -1.204e-6, -5.905e-7, 6.136e-7
0.197, -1.199e-6, -5.872e-7, 6.118e-7
0.196, -1.199e-6, -5.872e-7, 6.118e-7
0.195, -1.194e-6, -5.857e-7, 6.081e-7
0.194, -1.193e-6, -5.841e-7, 6.084e-7
0.193, -1.189e-6, -5.820e-7, 6.069e-7
0.192, -1.190e-6, -5.829e-7, 6.069e-7
0.191, -1.189e-6, -5.820e-7, 6.069e-7
0.190, -1.184e-6, -5.795e-7, 6.048e-7
0.189, -1.177e-6, -5.759e-7, 6.011e-7
0.188, -1.178e-6, -5.759e-7, 6.023e-7
0.187, -1.170e-6, -5.719e-7, 5.984e-7
0.186, -1.175e-6, -5.765e-7, 5.990e-7
0.185, -1.169e-6, -5.716e-7, 5.978e-7
0.184, -1.167e-6, -5.704e-7, 5.968e-7
0.183, -1.164e-6, -5.704e-7, 5.935e-7
0.182, -1.164e-6, -5.692e-7, 5.950e-7
0.181, -1.158e-6, -5.670e-7, 5.913e-7
0.180, -1.157e-6, -5.680e-7, 5.889e-7
0.179, -1.156e-6, -5.646e-7, 5.910e-7
0.178, -1.151e-6, -5.628e-7, 5.883e-7
0.177, -1.147e-6, -5.631e-7, 5.843e-7
0.176, -1.149e-6, -5.618e-7, 5.871e-7
0.175, -1.143e-6, -5.600e-7, 5.834e-7
0.174, -1.142e-6, -5.594e-7, 5.822e-7
0.173, -1.140e-6, -5.573e-7, 5.831e-7
0.172, -1.135e-6, -5.564e-7, 5.791e-7
0.171, -1.136e-6, -5.573e-7, 5.791e-7
0.170, -1.133e-6, -5.524e-7, 5.807e-7
0.169, -1.127e-6, -5.515e-7, 5.758e-7
0.168, -1.128e-6, -5.539e-7, 5.736e-7
0.167, -1.125e-6, -5.496e-7, 5.749e-7
0.166, -1.122e-6, -5.493e-7, 5.727e-7
0.165, -1.119e-6, -5.496e-7, 5.697e-7
0.164, -1.117e-6, -5.460e-7, 5.709e-7
0.163, -1.112e-6, -5.454e-7, 5.669e-7
0.162, -1.113e-6, -5.469e-7, 5.660e-7
0.161, -1.108e-6, -5.417e-7, 5.660e-7
0.160, -1.107e-6, -5.423e-7, 5.645e-7
0.159, -1.107e-6, -5.445e-7, 5.627e-7
0.158, -1.103e-6, -5.408e-7, 5.627e-7
0.157, -1.099e-6, -5.384e-7, 5.605e-7
0.156, -1.097e-6, -5.396e-7, 5.575e-7
0.155, -1.095e-6, -5.380e-7, 5.569e-7
0.154, -1.092e-6, -5.371e-7, 5.544e-7
0.153, -1.089e-6, -5.359e-7, 5.535e-7
0.152, -1.088e-6, -5.341e-7, 5.541e-7
0.151, -1.082e-6, -5.335e-7, 5.489e-7
0.150, -1.084e-6, -5.341e-7, 5.498e-7
0.149, -1.082e-6, -5.307e-7, 5.514e-7
0.148, -1.074e-6, -5.280e-7, 5.462e-7
0.147, -1.077e-6, -5.316e-7, 5.456e-7
0.146, -1.074e-6, -5.277e-7, 5.465e-7
0.145, -1.068e-6, -5.271e-7, 5.410e-7
0.144, -1.069e-6, -5.277e-7, 5.410e-7
0.143, -1.067e-6, -5.249e-7, 5.419e-7
0.142, -1.063e-6, -5.246e-7, 5.386e-7
0.141, -1.063e-6, -5.243e-7, 5.389e-7
0.140, -1.060e-6, -5.207e-7, 5.395e-7
0.139, -1.055e-6, -5.210e-7, 5.337e-7
0.138, -1.055e-6, -5.222e-7, 5.328e-7
0.137, -1.053e-6, -5.185e-7, 5.346e-7
0.136, -1.045e-6, -5.167e-7, 5.288e-7
0.135, -1.049e-6, -5.197e-7, 5.291e-7
0.134, -1.047e-6, -5.164e-7, 5.309e-7
0.133, -1.041e-6, -5.155e-7, 5.251e-7
0.132, -1.042e-6, -5.161e-7, 5.257e-7
0.131, -1.039e-6, -5.124e-7, 5.270e-7
0.130, -1.032e-6, -5.124e-7, 5.199e-7
0.129, -1.035e-6, -5.152e-7, 5.196e-7
0.128, -1.033e-6, -5.106e-7, 5.224e-7
0.127, -1.030e-6, -5.109e-7, 5.187e-7
0.126, -1.028e-6, -5.118e-7, 5.166e-7
0.125, -1.027e-6, -5.088e-7, 5.187e-7
0.124, -1.022e-6, -5.078e-7, 5.144e-7
0.123, -1.023e-6, -5.103e-7, 5.123e-7
0.122, -1.020e-6, -5.042e-7, 5.154e-7
0.121, -1.014e-6, -5.057e-7, 5.083e-7
0.120, -1.017e-6, -5.075e-7, 5.099e-7
0.119, -1.013e-6, -5.026e-7, 5.102e-7
0.118, -1.009e-6, -5.036e-7, 5.050e-7
0.117, -1.010e-6, -5.030e-7, 5.071e-7
0.116, -1.008e-6, -5.014e-7, 5.062e-7
0.115, -1.004e-6, -5.002e-7, 5.038e-7
0.114, -1.004e-6, -5.023e-7, 5.019e-7
0.113, -1.004e-6, -4.987e-7, 5.056e-7
0.112, -9.966e-7, -4.981e-7, 4.986e-7
0.111, -9.994e-7, -5.005e-7, 4.989e-7
0.110, -9.957e-7, -4.950e-7, 5.007e-7
0.109, -9.924e-7, -4.972e-7, 4.952e-7
0.108, -9.936e-7, -4.987e-7, 4.949e-7
0.107, -9.905e-7, -4.923e-7, 4.983e-7
0.106, -9.857e-7, -4.941e-7, 4.916e-7
0.105, -9.863e-7, -4.947e-7, 4.916e-7
0.104, -9.838e-7, -4.914e-7, 4.925e-7
0.103, -9.814e-7, -4.932e-7, 4.882e-7
0.102, -9.808e-7, -4.929e-7, 4.879e-7
0.101, -9.777e-7, -4.886e-7, 4.891e-7
0.100, -9.728e-7, -4.892e-7, 4.836e-7
0.099, -9.765e-7, -4.901e-7, 4.864e-7
0.098, -9.735e-7, -4.871e-7, 4.864e-7
0.097, -9.698e-7, -4.877e-7, 4.821e-7
0.096, -9.738e-7, -4.895e-7, 4.842e-7
0.095, -9.701e-7, -4.846e-7, 4.855e-7
0.094, -9.640e-7, -4.856e-7, 4.784e-7
0.093, -9.701e-7, -4.880e-7, 4.821e-7
0.092, -9.628e-7, -4.828e-7, 4.800e-7
0.091, -9.594e-7, -4.831e-7, 4.763e-7
0.090, -9.612e-7, -4.837e-7, 4.775e-7
0.089, -9.600e-7, -4.822e-7, 4.778e-7
0.088, -9.567e-7, -4.831e-7, 4.736e-7
0.087, -9.570e-7, -4.831e-7, 4.739e-7
0.086, -9.542e-7, -4.798e-7, 4.745e-7
0.085, -9.490e-7, -4.782e-7, 4.708e-7
0.084, -9.490e-7, -4.785e-7, 4.705e-7
0.083, -9.509e-7, -4.770e-7, 4.739e-7
0.082, -9.445e-7, -4.782e-7, 4.662e-7
0.081, -9.466e-7, -4.792e-7, 4.674e-7
0.080, -9.451e-7, -4.746e-7, 4.705e-7
0.079, -9.411e-7, -4.770e-7, 4.641e-7
0.078, -9.414e-7, -4.773e-7, 4.641e-7
0.077, -9.402e-7, -4.727e-7, 4.674e-7
0.076, -9.347e-7, -4.730e-7, 4.617e-7
0.075, -9.362e-7, -4.737e-7, 4.626e-7
0.074, -9.356e-7, -4.734e-7, 4.623e-7
0.073, -9.341e-7, -4.730e-7, 4.610e-7
0.072, -9.335e-7, -4.734e-7, 4.601e-7
0.071, -9.298e-7, -4.694e-7, 4.604e-7
0.070, -9.271e-7, -4.706e-7, 4.565e-7
0.069, -9.286e-7, -4.718e-7, 4.568e-7
0.068, -9.255e-7, -4.673e-7, 4.583e-7
0.067, -9.231e-7, -4.682e-7, 4.549e-7
0.066, -9.228e-7, -4.688e-7, 4.540e-7
0.065, -9.228e-7, -4.654e-7, 4.574e-7
0.064, -9.170e-7, -4.651e-7, 4.519e-7
0.063, -9.173e-7, -4.660e-7, 4.513e-7
0.062, -9.188e-7, -4.645e-7, 4.543e-7
0.061, -9.155e-7, -4.645e-7, 4.510e-7
0.060, -9.127e-7, -4.648e-7, 4.479e-7
0.059, -9.139e-7, -4.621e-7, 4.519e-7
0.058, -9.075e-7, -4.608e-7, 4.467e-7
0.057, -9.103e-7, -4.627e-7, 4.476e-7
0.056, -9.069e-7, -4.587e-7, 4.482e-7
0.055, -9.063e-7, -4.602e-7, 4.461e-7
0.054, -9.057e-7, -4.599e-7, 4.458e-7
0.053, -9.042e-7, -4.584e-7, 4.458e-7
0.052, -8.996e-7, -4.587e-7, 4.409e-7
0.051, -8.999e-7, -4.578e-7, 4.421e-7
0.050, -8.996e-7, -4.554e-7, 4.443e-7
0.049, -8.975e-7, -4.569e-7, 4.406e-7
0.048, -8.990e-7, -4.569e-7, 4.421e-7
0.047, -8.956e-7, -4.544e-7, 4.412e-7
0.046, -8.929e-7, -4.544e-7, 4.385e-7
0.045, -8.944e-7, -4.557e-7, 4.388e-7
0.044, -8.929e-7, -4.529e-7, 4.400e-7
0.043, -8.880e-7, -4.532e-7, 4.348e-7
0.042, -8.920e-7, -4.541e-7, 4.378e-7
0.041, -8.905e-7, -4.535e-7, 4.369e-7
0.040, -8.853e-7, -4.520e-7, 4.333e-7
0.039, -8.883e-7, -4.532e-7, 4.351e-7
0.038, -8.856e-7, -4.499e-7, 4.357e-7
0.037, -8.813e-7, -4.505e-7, 4.308e-7
0.036, -8.825e-7, -4.511e-7, 4.314e-7
0.035, -8.822e-7, -4.483e-7, 4.339e-7
0.034, -8.782e-7, -4.489e-7, 4.293e-7
0.033, -8.776e-7, -4.486e-7, 4.290e-7
0.032, -8.776e-7, -4.468e-7, 4.308e-7
0.031, -8.749e-7, -4.471e-7, 4.278e-7
0.030, -8.761e-7, -4.465e-7, 4.296e-7
0.029, -8.743e-7, -4.450e-7, 4.293e-7
0.028, -8.728e-7, -4.450e-7, 4.278e-7
0.027, -8.703e-7, -4.456e-7, 4.247e-7
0.026, -8.703e-7, -4.441e-7, 4.263e-7
0.025, -8.673e-7, -4.434e-7, 4.238e-7
0.024, -8.685e-7, -4.434e-7, 4.250e-7
0.023, -8.654e-7, -4.410e-7, 4.244e-7
0.022, -8.648e-7, -4.431e-7, 4.217e-7
0.021, -8.663e-7, -4.422e-7, 4.241e-7
0.020, -8.630e-7, -4.392e-7, 4.238e-7
0.019, -8.599e-7, -4.401e-7, 4.198e-7
0.018, -8.615e-7, -4.395e-7, 4.220e-7
0.017, -8.593e-7, -4.383e-7, 4.211e-7
0.016, -8.551e-7, -4.373e-7, 4.177e-7
0.015, -8.581e-7, -4.377e-7, 4.205e-7
0.014, -8.538e-7, -4.355e-7, 4.183e-7
0.013, -8.535e-7, -4.364e-7, 4.171e-7
0.012, -8.544e-7, -4.364e-7, 4.180e-7
0.011, -8.523e-7, -4.346e-7, 4.177e-7
0.010, -8.511e-7, -4.352e-7, 4.159e-7
0.009, -8.493e-7, -4.346e-7, 4.147e-7
0.008, -8.490e-7, -4.325e-7, 4.165e-7
0.007, -8.483e-7, -4.343e-7, 4.140e-7
0.006, -8.456e-7, -4.325e-7, 4.131e-7
0.005, -8.459e-7, -4.322e-7, 4.137e-7
0.004, -8.444e-7, -4.322e-7, 4.122e-7
0.003, -8.444e-7, -4.306e-7, 4.137e-7
0.002, -8.413e-7, -4.294e-7, 4.119e-7
0.001, -8.395e-7, -4.306e-7, 4.089e-7
-0.000, -8.392e-7, -4.294e-7, 4.098e-7
-0.001, -8.377e-7, -4.276e-7, 4.101e-7
-0.002, -8.358e-7, -4.285e-7, 4.073e-7
-0.003, -8.370e-7, -4.273e-7, 4.098e-7
-0.004, -8.337e-7, -4.248e-7, 4.089e-7
-0.005, -8.343e-7, -4.273e-7, 4.070e-7
-0.006, -8.316e-7, -4.258e-7, 4.058e-7
-0.007, -8.282e-7, -4.236e-7, 4.046e-7
-0.008, -8.300e-7, -4.258e-7, 4.043e-7
-0.009, -8.303e-7, -4.254e-7, 4.049e-7
-0.010, -8.273e-7, -4.221e-7, 4.052e-7
-0.011, -8.270e-7, -4.245e-7, 4.024e-7
-0.012, -8.279e-7, -4.239e-7, 4.040e-7
-0.013, -8.239e-7, -4.203e-7, 4.037e-7
-0.014, -8.230e-7, -4.221e-7, 4.009e-7
-0.015, -8.239e-7, -4.218e-7, 4.021e-7
-0.016, -8.212e-7, -4.196e-7, 4.015e-7
-0.017, -8.209e-7, -4.209e-7, 4.000e-7
-0.018, -8.221e-7, -4.209e-7, 4.012e-7
-0.019, -8.178e-7, -4.178e-7, 4.000e-7
-0.020, -8.151e-7, -4.169e-7, 3.982e-7
-0.021, -8.193e-7, -4.190e-7, 4.003e-7
-0.022, -8.148e-7, -4.160e-7, 3.988e-7
-0.023, -8.136e-7, -4.172e-7, 3.963e-7
-0.024, -8.132e-7, -4.154e-7, 3.979e-7
-0.025, -8.087e-7, -4.142e-7, 3.945e-7
-0.026, -8.120e-7, -4.172e-7, 3.948e-7
-0.027, -8.120e-7, -4.160e-7, 3.960e-7
-0.028, -8.084e-7, -4.138e-7, 3.945e-7
-0.029, -8.065e-7, -4.138e-7, 3.927e-7
-0.030, -8.071e-7, -4.126e-7, 3.945e-7
-0.031, -8.041e-7, -4.117e-7, 3.924e-7
-0.032, -8.020e-7, -4.111e-7, 3.909e-7
-0.033, -8.056e-7, -4.132e-7, 3.924e-7
-0.034, -8.013e-7, -4.114e-7, 3.899e-7
-0.035, -8.020e-7, -4.114e-7, 3.905e-7
-0.036, -8.017e-7, -4.108e-7, 3.909e-7
-0.037, -7.989e-7, -4.084e-7, 3.905e-7
-0.038, -7.992e-7, -4.102e-7, 3.890e-7
-0.039, -7.992e-7, -4.096e-7, 3.896e-7
-0.040, -7.959e-7, -4.084e-7, 3.875e-7
-0.041, -7.940e-7, -4.090e-7, 3.851e-7
-0.042, -7.943e-7, -4.084e-7, 3.860e-7
-0.043, -7.940e-7, -4.077e-7, 3.863e-7
-0.044, -7.934e-7, -4.090e-7, 3.844e-7
-0.045, -7.907e-7, -4.062e-7, 3.844e-7
-0.046, -7.891e-7, -4.053e-7, 3.838e-7
-0.047, -7.888e-7, -4.062e-7, 3.826e-7
-0.048, -7.882e-7, -4.047e-7, 3.835e-7
-0.049, -7.870e-7, -4.050e-7, 3.820e-7
-0.050, -7.855e-7, -4.041e-7, 3.814e-7
-0.051, -7.852e-7, -4.047e-7, 3.805e-7
-0.052, -7.840e-7, -4.026e-7, 3.814e-7
-0.053, -7.815e-7, -4.032e-7, 3.783e-7
-0.054, -7.824e-7, -4.023e-7, 3.802e-7
-0.055, -7.778e-7, -3.998e-7, 3.780e-7
-0.056, -7.809e-7, -4.016e-7, 3.793e-7
-0.057, -7.803e-7, -4.016e-7, 3.786e-7
-0.058, -7.778e-7, -4.007e-7, 3.771e-7
-0.059, -7.751e-7, -3.989e-7, 3.762e-7
-0.060, -7.785e-7, -3.998e-7, 3.786e-7
-0.061, -7.733e-7, -3.977e-7, 3.756e-7
-0.062, -7.721e-7, -3.974e-7, 3.747e-7
-0.063, -7.711e-7, -3.974e-7, 3.738e-7
-0.064, -7.727e-7, -3.977e-7, 3.750e-7
-0.065, -7.717e-7, -3.974e-7, 3.744e-7
-0.066, -7.693e-7, -3.968e-7, 3.725e-7
-0.067, -7.678e-7, -3.955e-7, 3.722e-7
-0.068, -7.669e-7, -3.946e-7, 3.722e-7
-0.069, -7.678e-7, -3.949e-7, 3.728e-7
-0.070, -7.663e-7, -3.949e-7, 3.713e-7
-0.071, -7.666e-7, -3.955e-7, 3.710e-7
-0.072, -7.632e-7, -3.946e-7, 3.686e-7
-0.073, -7.629e-7, -3.937e-7, 3.692e-7
-0.074, -7.635e-7, -3.937e-7, 3.698e-7
-0.075, -7.611e-7, -3.916e-7, 3.695e-7
-0.076, -7.601e-7, -3.919e-7, 3.683e-7
-0.077, -7.601e-7, -3.931e-7, 3.670e-7
-0.078, -7.580e-7, -3.928e-7, 3.652e-7
-0.079, -7.571e-7, -3.916e-7, 3.655e-7
-0.080, -7.574e-7, -3.919e-7, 3.655e-7
-0.081, -7.571e-7, -3.916e-7, 3.655e-7
-0.082, -7.565e-7, -3.910e-7, 3.655e-7
-0.083, -7.559e-7, -3.913e-7, 3.646e-7
-0.084, -7.534e-7, -3.897e-7, 3.637e-7
-0.085, -7.537e-7, -3.900e-7, 3.637e-7
-0.086, -7.528e-7, -3.900e-7, 3.628e-7
-0.087, -7.498e-7, -3.882e-7, 3.616e-7
-0.088, -7.516e-7, -3.894e-7, 3.622e-7
-0.089, -7.489e-7, -3.885e-7, 3.603e-7
-0.090, -7.510e-7, -3.885e-7, 3.625e-7
-0.091, -7.507e-7, -3.891e-7, 3.616e-7
-0.092, -7.482e-7, -3.882e-7, 3.600e-7
-0.093, -7.476e-7, -3.870e-7, 3.606e-7
-0.094, -7.470e-7, -3.885e-7, 3.585e-7
-0.095, -7.473e-7, -3.873e-7, 3.600e-7
-0.096, -7.452e-7, -3.867e-7, 3.585e-7
-0.097, -7.458e-7, -3.867e-7, 3.591e-7
-0.098, -7.458e-7, -3.867e-7, 3.591e-7
-0.099, -7.434e-7, -3.843e-7, 3.591e-7
-0.100, -7.431e-7, -3.870e-7, 3.561e-7
