Feb. 28, 2018   10:41:53
Square Wave Voltammetry
File: c:\users\electrochemist\desktop\2018\28022018_cal\6_g3_a5_ph7_4.txt
Data Source:  Experiment
Instrument Model:  CHI1040A
Header: 
Note: 

Init E (V) = 0.5
Final E (V) = -0.1
Incr E (V) = 0.001
Amplitude (V) = 0.1
Frequency (Hz) = 150
Quiet Time (sec) = 0
Sensitivity (A/V) = 1e-6

Difference:

Forward:

Reverse:

Potential/V, Diff(i/A), For(i/A), Rev(i/A)

0.499, -7.370e-7, -1.392e-7, 5.978e-7
0.498, -8.447e-7, -3.214e-7, 5.233e-7
0.497, -8.261e-7, -3.333e-7, 4.928e-7
0.496, -8.142e-7, -3.406e-7, 4.736e-7
0.495, -8.062e-7, -3.443e-7, 4.620e-7
0.494, -7.925e-7, -3.434e-7, 4.491e-7
0.493, -7.864e-7, -3.473e-7, 4.391e-7
0.492, -7.827e-7, -3.488e-7, 4.339e-7
0.491, -7.766e-7, -3.488e-7, 4.278e-7
0.490, -7.714e-7, -3.510e-7, 4.205e-7
0.489, -7.687e-7, -3.519e-7, 4.168e-7
0.488, -7.641e-7, -3.510e-7, 4.131e-7
0.487, -7.617e-7, -3.522e-7, 4.095e-7
0.486, -7.605e-7, -3.543e-7, 4.061e-7
0.485, -7.556e-7, -3.540e-7, 4.015e-7
0.484, -7.550e-7, -3.553e-7, 3.997e-7
0.483, -7.525e-7, -3.540e-7, 3.985e-7
0.482, -7.507e-7, -3.553e-7, 3.954e-7
0.481, -7.486e-7, -3.571e-7, 3.915e-7
0.480, -7.464e-7, -3.562e-7, 3.902e-7
0.479, -7.421e-7, -3.537e-7, 3.884e-7
0.478, -7.425e-7, -3.577e-7, 3.848e-7
0.477, -7.415e-7, -3.565e-7, 3.851e-7
0.476, -7.391e-7, -3.556e-7, 3.835e-7
0.475, -7.391e-7, -3.577e-7, 3.814e-7
0.474, -7.394e-7, -3.586e-7, 3.808e-7
0.473, -7.357e-7, -3.562e-7, 3.796e-7
0.472, -7.345e-7, -3.574e-7, 3.771e-7
0.471, -7.370e-7, -3.589e-7, 3.780e-7
0.470, -7.330e-7, -3.577e-7, 3.753e-7
0.469, -7.312e-7, -3.586e-7, 3.725e-7
0.468, -7.315e-7, -3.592e-7, 3.722e-7
0.467, -7.312e-7, -3.592e-7, 3.719e-7
0.466, -7.296e-7, -3.589e-7, 3.707e-7
0.465, -7.309e-7, -3.595e-7, 3.713e-7
0.464, -7.305e-7, -3.598e-7, 3.707e-7
0.463, -7.287e-7, -3.604e-7, 3.683e-7
0.462, -7.272e-7, -3.598e-7, 3.674e-7
0.461, -7.275e-7, -3.601e-7, 3.674e-7
0.460, -7.266e-7, -3.611e-7, 3.655e-7
0.459, -7.278e-7, -3.620e-7, 3.658e-7
0.458, -7.251e-7, -3.598e-7, 3.652e-7
0.457, -7.269e-7, -3.632e-7, 3.637e-7
0.456, -7.284e-7, -3.632e-7, 3.652e-7
0.455, -7.263e-7, -3.620e-7, 3.643e-7
0.454, -7.238e-7, -3.623e-7, 3.616e-7
0.453, -7.251e-7, -3.623e-7, 3.628e-7
0.452, -7.257e-7, -3.632e-7, 3.625e-7
0.451, -7.229e-7, -3.644e-7, 3.585e-7
0.450, -7.269e-7, -3.656e-7, 3.613e-7
0.449, -7.229e-7, -3.638e-7, 3.591e-7
0.448, -7.254e-7, -3.662e-7, 3.591e-7
0.447, -7.241e-7, -3.662e-7, 3.579e-7
0.446, -7.229e-7, -3.650e-7, 3.579e-7
0.445, -7.260e-7, -3.678e-7, 3.582e-7
0.444, -7.235e-7, -3.653e-7, 3.582e-7
0.443, -7.244e-7, -3.665e-7, 3.579e-7
0.442, -7.266e-7, -3.684e-7, 3.582e-7
0.441, -7.269e-7, -3.678e-7, 3.591e-7
0.440, -7.241e-7, -3.665e-7, 3.576e-7
0.439, -7.248e-7, -3.687e-7, 3.561e-7
0.438, -7.241e-7, -3.678e-7, 3.564e-7
0.437, -7.241e-7, -3.684e-7, 3.558e-7
0.436, -7.263e-7, -3.711e-7, 3.552e-7
0.435, -7.254e-7, -3.699e-7, 3.555e-7
0.434, -7.248e-7, -3.687e-7, 3.561e-7
0.433, -7.260e-7, -3.708e-7, 3.552e-7
0.432, -7.260e-7, -3.705e-7, 3.555e-7
0.431, -7.248e-7, -3.711e-7, 3.536e-7
0.430, -7.254e-7, -3.714e-7, 3.539e-7
0.429, -7.272e-7, -3.720e-7, 3.552e-7
0.428, -7.266e-7, -3.726e-7, 3.539e-7
0.427, -7.278e-7, -3.739e-7, 3.539e-7
0.426, -7.275e-7, -3.739e-7, 3.536e-7
0.425, -7.278e-7, -3.742e-7, 3.536e-7
0.424, -7.275e-7, -3.748e-7, 3.527e-7
0.423, -7.284e-7, -3.742e-7, 3.542e-7
0.422, -7.305e-7, -3.766e-7, 3.539e-7
0.421, -7.278e-7, -3.763e-7, 3.515e-7
0.420, -7.299e-7, -3.766e-7, 3.533e-7
0.419, -7.290e-7, -3.769e-7, 3.521e-7
0.418, -7.321e-7, -3.784e-7, 3.536e-7
0.417, -7.321e-7, -3.794e-7, 3.527e-7
0.416, -7.327e-7, -3.784e-7, 3.542e-7
0.415, -7.336e-7, -3.806e-7, 3.530e-7
0.414, -7.321e-7, -3.800e-7, 3.521e-7
0.413, -7.327e-7, -3.797e-7, 3.530e-7
0.412, -7.336e-7, -3.812e-7, 3.524e-7
0.411, -7.351e-7, -3.815e-7, 3.536e-7
0.410, -7.351e-7, -3.827e-7, 3.524e-7
0.409, -7.370e-7, -3.833e-7, 3.536e-7
0.408, -7.351e-7, -3.830e-7, 3.521e-7
0.407, -7.379e-7, -3.839e-7, 3.539e-7
0.406, -7.360e-7, -3.830e-7, 3.530e-7
0.405, -7.391e-7, -3.855e-7, 3.536e-7
0.404, -7.382e-7, -3.855e-7, 3.527e-7
0.403, -7.415e-7, -3.873e-7, 3.542e-7
0.402, -7.403e-7, -3.873e-7, 3.530e-7
0.401, -7.397e-7, -3.867e-7, 3.530e-7
0.400, -7.434e-7, -3.891e-7, 3.542e-7
0.399, -7.443e-7, -3.897e-7, 3.545e-7
0.398, -7.458e-7, -3.913e-7, 3.545e-7
0.397, -7.415e-7, -3.891e-7, 3.524e-7
0.396, -7.476e-7, -3.925e-7, 3.552e-7
0.395, -7.467e-7, -3.922e-7, 3.545e-7
0.394, -7.470e-7, -3.934e-7, 3.536e-7
0.393, -7.482e-7, -3.931e-7, 3.552e-7
0.392, -7.470e-7, -3.937e-7, 3.533e-7
0.391, -7.492e-7, -3.952e-7, 3.539e-7
0.390, -7.498e-7, -3.952e-7, 3.545e-7
0.389, -7.519e-7, -3.955e-7, 3.564e-7
0.388, -7.525e-7, -3.977e-7, 3.548e-7
0.387, -7.519e-7, -3.977e-7, 3.542e-7
0.386, -7.544e-7, -3.989e-7, 3.555e-7
0.385, -7.562e-7, -4.007e-7, 3.555e-7
0.384, -7.571e-7, -4.001e-7, 3.570e-7
0.383, -7.574e-7, -4.016e-7, 3.558e-7
0.382, -7.580e-7, -4.013e-7, 3.567e-7
0.381, -7.580e-7, -4.013e-7, 3.567e-7
0.380, -7.598e-7, -4.041e-7, 3.558e-7
0.379, -7.595e-7, -4.035e-7, 3.561e-7
0.378, -7.620e-7, -4.050e-7, 3.570e-7
0.377, -7.635e-7, -4.056e-7, 3.579e-7
0.376, -7.644e-7, -4.065e-7, 3.579e-7
0.375, -7.663e-7, -4.071e-7, 3.591e-7
0.374, -7.669e-7, -4.105e-7, 3.564e-7
0.373, -7.669e-7, -4.093e-7, 3.576e-7
0.372, -7.696e-7, -4.102e-7, 3.594e-7
0.371, -7.696e-7, -4.111e-7, 3.585e-7
0.370, -7.705e-7, -4.117e-7, 3.588e-7
0.369, -7.705e-7, -4.123e-7, 3.582e-7
0.368, -7.742e-7, -4.142e-7, 3.600e-7
0.367, -7.736e-7, -4.145e-7, 3.591e-7
0.366, -7.739e-7, -4.151e-7, 3.588e-7
0.365, -7.775e-7, -4.160e-7, 3.616e-7
0.364, -7.806e-7, -4.203e-7, 3.603e-7
0.363, -7.803e-7, -4.175e-7, 3.628e-7
0.362, -7.815e-7, -4.203e-7, 3.613e-7
0.361, -7.843e-7, -4.215e-7, 3.628e-7
0.360, -7.824e-7, -4.209e-7, 3.616e-7
0.359, -7.843e-7, -4.227e-7, 3.616e-7
0.358, -7.870e-7, -4.233e-7, 3.637e-7
0.357, -7.891e-7, -4.251e-7, 3.640e-7
0.356, -7.891e-7, -4.254e-7, 3.637e-7
0.355, -7.907e-7, -4.279e-7, 3.628e-7
0.354, -7.928e-7, -4.282e-7, 3.646e-7
0.353, -7.946e-7, -4.291e-7, 3.655e-7
0.352, -7.971e-7, -4.315e-7, 3.655e-7
0.351, -7.995e-7, -4.322e-7, 3.674e-7
0.350, -7.992e-7, -4.340e-7, 3.652e-7
0.349, -7.998e-7, -4.331e-7, 3.667e-7
0.348, -8.023e-7, -4.349e-7, 3.674e-7
0.347, -8.020e-7, -4.361e-7, 3.658e-7
0.346, -8.041e-7, -4.367e-7, 3.674e-7
0.345, -8.081e-7, -4.383e-7, 3.698e-7
0.344, -8.078e-7, -4.383e-7, 3.695e-7
0.343, -8.087e-7, -4.392e-7, 3.695e-7
0.342, -8.102e-7, -4.407e-7, 3.695e-7
0.341, -8.120e-7, -4.416e-7, 3.704e-7
0.340, -8.157e-7, -4.441e-7, 3.716e-7
0.339, -8.148e-7, -4.441e-7, 3.707e-7
0.338, -8.160e-7, -4.453e-7, 3.707e-7
0.337, -8.203e-7, -4.474e-7, 3.729e-7
0.336, -8.209e-7, -4.477e-7, 3.732e-7
0.335, -8.221e-7, -4.502e-7, 3.719e-7
0.334, -8.233e-7, -4.495e-7, 3.738e-7
0.333, -8.258e-7, -4.508e-7, 3.750e-7
0.332, -8.267e-7, -4.529e-7, 3.738e-7
0.331, -8.303e-7, -4.544e-7, 3.759e-7
0.330, -8.316e-7, -4.553e-7, 3.762e-7
0.329, -8.346e-7, -4.575e-7, 3.771e-7
0.328, -8.383e-7, -4.593e-7, 3.790e-7
0.327, -8.355e-7, -4.581e-7, 3.774e-7
0.326, -8.386e-7, -4.611e-7, 3.774e-7
0.325, -8.422e-7, -4.633e-7, 3.790e-7
0.324, -8.419e-7, -4.621e-7, 3.799e-7
0.323, -8.453e-7, -4.660e-7, 3.793e-7
0.322, -8.468e-7, -4.666e-7, 3.802e-7
0.321, -8.486e-7, -4.676e-7, 3.811e-7
0.320, -8.499e-7, -4.694e-7, 3.805e-7
0.319, -8.532e-7, -4.706e-7, 3.826e-7
0.318, -8.560e-7, -4.718e-7, 3.841e-7
0.317, -8.572e-7, -4.727e-7, 3.844e-7
0.316, -8.584e-7, -4.746e-7, 3.838e-7
0.315, -8.590e-7, -4.743e-7, 3.848e-7
0.314, -8.639e-7, -4.779e-7, 3.860e-7
0.313, -8.657e-7, -4.779e-7, 3.878e-7
0.312, -8.654e-7, -4.788e-7, 3.866e-7
0.311, -8.703e-7, -4.822e-7, 3.881e-7
0.310, -8.715e-7, -4.831e-7, 3.884e-7
0.309, -8.712e-7, -4.828e-7, 3.884e-7
0.308, -8.755e-7, -4.871e-7, 3.884e-7
0.307, -8.782e-7, -4.877e-7, 3.906e-7
0.306, -8.807e-7, -4.898e-7, 3.909e-7
0.305, -8.804e-7, -4.898e-7, 3.906e-7
0.304, -8.825e-7, -4.911e-7, 3.915e-7
0.303, -8.828e-7, -4.917e-7, 3.912e-7
0.302, -8.859e-7, -4.947e-7, 3.912e-7
0.301, -8.892e-7, -4.950e-7, 3.942e-7
0.300, -8.914e-7, -4.962e-7, 3.951e-7
0.299, -8.959e-7, -5.008e-7, 3.951e-7
0.298, -8.981e-7, -5.005e-7, 3.976e-7
0.297, -9.002e-7, -5.005e-7, 3.997e-7
0.296, -9.027e-7, -5.039e-7, 3.988e-7
0.295, -9.042e-7, -5.057e-7, 3.985e-7
0.294, -9.063e-7, -5.066e-7, 3.997e-7
0.293, -9.106e-7, -5.091e-7, 4.015e-7
0.292, -9.112e-7, -5.091e-7, 4.021e-7
0.291, -9.109e-7, -5.100e-7, 4.009e-7
0.290, -9.143e-7, -5.124e-7, 4.018e-7
0.289, -9.191e-7, -5.145e-7, 4.046e-7
0.288, -9.207e-7, -5.152e-7, 4.055e-7
0.287, -9.222e-7, -5.185e-7, 4.037e-7
0.286, -9.240e-7, -5.173e-7, 4.067e-7
0.285, -9.262e-7, -5.188e-7, 4.073e-7
0.284, -9.283e-7, -5.222e-7, 4.061e-7
0.283, -9.329e-7, -5.237e-7, 4.092e-7
0.282, -9.323e-7, -5.228e-7, 4.095e-7
0.281, -9.381e-7, -5.280e-7, 4.101e-7
0.280, -9.405e-7, -5.292e-7, 4.113e-7
0.279, -9.408e-7, -5.289e-7, 4.119e-7
0.278, -9.454e-7, -5.329e-7, 4.125e-7
0.277, -9.475e-7, -5.338e-7, 4.137e-7
0.276, -9.506e-7, -5.353e-7, 4.153e-7
0.275, -9.530e-7, -5.368e-7, 4.162e-7
0.274, -9.558e-7, -5.377e-7, 4.180e-7
0.273, -9.567e-7, -5.405e-7, 4.162e-7
0.272, -9.609e-7, -5.429e-7, 4.180e-7
0.271, -9.643e-7, -5.441e-7, 4.202e-7
0.270, -9.646e-7, -5.445e-7, 4.202e-7
0.269, -9.680e-7, -5.472e-7, 4.208e-7
0.268, -9.680e-7, -5.472e-7, 4.208e-7
0.267, -9.735e-7, -5.499e-7, 4.235e-7
0.266, -9.759e-7, -5.527e-7, 4.232e-7
0.265, -9.768e-7, -5.515e-7, 4.253e-7
0.264, -9.811e-7, -5.536e-7, 4.275e-7
0.263, -9.829e-7, -5.579e-7, 4.250e-7
0.262, -9.866e-7, -5.573e-7, 4.293e-7
0.261, -9.857e-7, -5.585e-7, 4.272e-7
0.260, -9.915e-7, -5.618e-7, 4.296e-7
0.259, -9.918e-7, -5.615e-7, 4.302e-7
0.258, -9.973e-7, -5.640e-7, 4.333e-7
0.257, -9.991e-7, -5.655e-7, 4.336e-7
0.256, -1.002e-6, -5.676e-7, 4.348e-7
0.255, -1.004e-6, -5.683e-7, 4.357e-7
0.254, -1.007e-6, -5.710e-7, 4.363e-7
0.253, -1.010e-6, -5.737e-7, 4.366e-7
0.252, -1.013e-6, -5.737e-7, 4.388e-7
0.251, -1.015e-6, -5.753e-7, 4.400e-7
0.250, -1.018e-6, -5.780e-7, 4.400e-7
0.249, -1.021e-6, -5.789e-7, 4.424e-7
0.248, -1.024e-6, -5.808e-7, 4.427e-7
0.247, -1.028e-6, -5.838e-7, 4.443e-7
0.246, -1.029e-6, -5.847e-7, 4.446e-7
0.245, -1.032e-6, -5.878e-7, 4.446e-7
0.244, -1.035e-6, -5.878e-7, 4.470e-7
0.243, -1.038e-6, -5.890e-7, 4.485e-7
0.242, -1.043e-6, -5.933e-7, 4.501e-7
0.241, -1.044e-6, -5.933e-7, 4.510e-7
0.240, -1.047e-6, -5.960e-7, 4.507e-7
0.239, -1.048e-6, -5.960e-7, 4.516e-7
0.238, -1.051e-6, -5.969e-7, 4.540e-7
0.237, -1.054e-6, -5.988e-7, 4.549e-7
0.236, -1.056e-6, -5.994e-7, 4.562e-7
0.235, -1.060e-6, -6.012e-7, 4.583e-7
0.234, -1.064e-6, -6.037e-7, 4.607e-7
0.233, -1.067e-6, -6.082e-7, 4.589e-7
0.232, -1.069e-6, -6.070e-7, 4.617e-7
0.231, -1.071e-6, -6.098e-7, 4.613e-7
0.230, -1.075e-6, -6.125e-7, 4.623e-7
0.229, -1.080e-6, -6.140e-7, 4.662e-7
0.228, -1.080e-6, -6.134e-7, 4.662e-7
0.227, -1.085e-6, -6.180e-7, 4.668e-7
0.226, -1.085e-6, -6.177e-7, 4.674e-7
0.225, -1.088e-6, -6.189e-7, 4.687e-7
0.224, -1.093e-6, -6.223e-7, 4.705e-7
0.223, -1.098e-6, -6.238e-7, 4.739e-7
0.222, -1.097e-6, -6.241e-7, 4.726e-7
0.221, -1.102e-6, -6.278e-7, 4.742e-7
0.220, -1.102e-6, -6.278e-7, 4.745e-7
0.219, -1.105e-6, -6.287e-7, 4.760e-7
0.218, -1.111e-6, -6.323e-7, 4.784e-7
0.217, -1.112e-6, -6.326e-7, 4.794e-7
0.216, -1.113e-6, -6.326e-7, 4.800e-7
0.215, -1.118e-6, -6.363e-7, 4.818e-7
0.214, -1.122e-6, -6.384e-7, 4.839e-7
0.213, -1.122e-6, -6.378e-7, 4.845e-7
0.212, -1.122e-6, -6.387e-7, 4.833e-7
0.211, -1.128e-6, -6.406e-7, 4.876e-7
0.210, -1.130e-6, -6.427e-7, 4.870e-7
0.209, -1.135e-6, -6.461e-7, 4.894e-7
0.208, -1.137e-6, -6.461e-7, 4.909e-7
0.207, -1.137e-6, -6.458e-7, 4.913e-7
0.206, -1.142e-6, -6.500e-7, 4.922e-7
0.205, -1.145e-6, -6.497e-7, 4.949e-7
0.204, -1.145e-6, -6.503e-7, 4.943e-7
0.203, -1.150e-6, -6.537e-7, 4.958e-7
0.202, -1.154e-6, -6.552e-7, 4.989e-7
0.201, -1.153e-6, -6.546e-7, 4.989e-7
0.200, -1.160e-6, -6.583e-7, 5.013e-7
0.199, -1.162e-6, -6.580e-7, 5.038e-7
0.198, -1.163e-6, -6.604e-7, 5.025e-7
0.197, -1.167e-6, -6.626e-7, 5.044e-7
0.196, -1.168e-6, -6.626e-7, 5.059e-7
0.195, -1.171e-6, -6.632e-7, 5.080e-7
0.194, -1.174e-6, -6.662e-7, 5.077e-7
0.193, -1.178e-6, -6.674e-7, 5.108e-7
0.192, -1.179e-6, -6.680e-7, 5.108e-7
0.191, -1.182e-6, -6.702e-7, 5.120e-7
0.190, -1.184e-6, -6.702e-7, 5.141e-7
0.189, -1.186e-6, -6.720e-7, 5.141e-7
0.188, -1.189e-6, -6.729e-7, 5.157e-7
0.187, -1.191e-6, -6.735e-7, 5.178e-7
0.186, -1.194e-6, -6.751e-7, 5.193e-7
0.185, -1.194e-6, -6.751e-7, 5.193e-7
0.184, -1.199e-6, -6.769e-7, 5.221e-7
0.183, -1.201e-6, -6.787e-7, 5.221e-7
0.182, -1.203e-6, -6.803e-7, 5.224e-7
0.181, -1.206e-6, -6.799e-7, 5.257e-7
0.180, -1.207e-6, -6.821e-7, 5.251e-7
0.179, -1.211e-6, -6.827e-7, 5.282e-7
0.178, -1.213e-6, -6.830e-7, 5.300e-7
0.177, -1.215e-6, -6.845e-7, 5.303e-7
0.176, -1.217e-6, -6.860e-7, 5.309e-7
0.175, -1.220e-6, -6.857e-7, 5.340e-7
0.174, -1.222e-6, -6.860e-7, 5.355e-7
0.173, -1.223e-6, -6.873e-7, 5.361e-7
0.172, -1.227e-6, -6.897e-7, 5.376e-7
0.171, -1.229e-6, -6.906e-7, 5.382e-7
0.170, -1.231e-6, -6.925e-7, 5.386e-7
0.169, -1.233e-6, -6.912e-7, 5.419e-7
0.168, -1.235e-6, -6.931e-7, 5.416e-7
0.167, -1.237e-6, -6.943e-7, 5.422e-7
0.166, -1.240e-6, -6.943e-7, 5.453e-7
0.165, -1.242e-6, -6.958e-7, 5.459e-7
0.164, -1.243e-6, -6.961e-7, 5.468e-7
0.163, -1.245e-6, -6.961e-7, 5.489e-7
0.162, -1.246e-6, -6.979e-7, 5.483e-7
0.161, -1.248e-6, -6.986e-7, 5.492e-7
0.160, -1.250e-6, -6.979e-7, 5.523e-7
0.159, -1.252e-6, -7.004e-7, 5.520e-7
0.158, -1.254e-6, -7.007e-7, 5.535e-7
0.157, -1.256e-6, -6.995e-7, 5.566e-7
0.156, -1.258e-6, -7.025e-7, 5.556e-7
0.155, -1.259e-6, -7.025e-7, 5.562e-7
0.154, -1.261e-6, -7.013e-7, 5.593e-7
0.153, -1.261e-6, -7.016e-7, 5.590e-7
0.152, -1.265e-6, -7.025e-7, 5.624e-7
0.151, -1.266e-6, -7.028e-7, 5.636e-7
0.150, -1.267e-6, -7.037e-7, 5.633e-7
0.149, -1.270e-6, -7.053e-7, 5.645e-7
0.148, -1.271e-6, -7.031e-7, 5.675e-7
0.147, -1.273e-6, -7.056e-7, 5.669e-7
0.146, -1.275e-6, -7.056e-7, 5.694e-7
0.145, -1.275e-6, -7.065e-7, 5.682e-7
0.144, -1.277e-6, -7.056e-7, 5.718e-7
0.143, -1.279e-6, -7.059e-7, 5.727e-7
0.142, -1.278e-6, -7.053e-7, 5.724e-7
0.141, -1.280e-6, -7.068e-7, 5.727e-7
0.140, -1.284e-6, -7.080e-7, 5.761e-7
0.139, -1.283e-6, -7.065e-7, 5.761e-7
0.138, -1.283e-6, -7.071e-7, 5.761e-7
0.137, -1.286e-6, -7.089e-7, 5.773e-7
0.136, -1.286e-6, -7.065e-7, 5.791e-7
0.135, -1.286e-6, -7.077e-7, 5.782e-7
0.134, -1.291e-6, -7.086e-7, 5.828e-7
0.133, -1.290e-6, -7.080e-7, 5.816e-7
0.132, -1.288e-6, -7.077e-7, 5.807e-7
0.131, -1.292e-6, -7.083e-7, 5.840e-7
0.130, -1.294e-6, -7.077e-7, 5.858e-7
0.129, -1.294e-6, -7.083e-7, 5.855e-7
0.128, -1.296e-6, -7.089e-7, 5.868e-7
0.127, -1.294e-6, -7.062e-7, 5.883e-7
0.126, -1.296e-6, -7.077e-7, 5.883e-7
0.125, -1.299e-6, -7.099e-7, 5.895e-7
0.124, -1.298e-6, -7.062e-7, 5.916e-7
0.123, -1.297e-6, -7.080e-7, 5.889e-7
0.122, -1.301e-6, -7.095e-7, 5.920e-7
0.121, -1.298e-6, -7.041e-7, 5.941e-7
0.120, -1.299e-6, -7.068e-7, 5.920e-7
0.119, -1.302e-6, -7.065e-7, 5.956e-7
0.118, -1.300e-6, -7.044e-7, 5.959e-7
0.117, -1.301e-6, -7.056e-7, 5.953e-7
0.116, -1.302e-6, -7.047e-7, 5.978e-7
0.115, -1.301e-6, -7.028e-7, 5.984e-7
0.114, -1.301e-6, -7.034e-7, 5.974e-7
0.113, -1.301e-6, -7.019e-7, 5.993e-7
0.112, -1.304e-6, -7.019e-7, 6.017e-7
0.111, -1.303e-6, -7.028e-7, 6.005e-7
0.110, -1.305e-6, -7.022e-7, 6.023e-7
0.109, -1.303e-6, -7.001e-7, 6.032e-7
0.108, -1.302e-6, -6.998e-7, 6.023e-7
0.107, -1.306e-6, -7.013e-7, 6.048e-7
0.106, -1.302e-6, -6.979e-7, 6.045e-7
0.105, -1.305e-6, -7.007e-7, 6.039e-7
0.104, -1.305e-6, -6.992e-7, 6.063e-7
0.103, -1.303e-6, -6.961e-7, 6.069e-7
0.102, -1.305e-6, -6.976e-7, 6.078e-7
0.101, -1.305e-6, -6.964e-7, 6.087e-7
0.100, -1.303e-6, -6.949e-7, 6.078e-7
0.099, -1.303e-6, -6.955e-7, 6.078e-7
0.098, -1.306e-6, -6.961e-7, 6.103e-7
0.097, -1.305e-6, -6.931e-7, 6.118e-7
0.096, -1.301e-6, -6.934e-7, 6.081e-7
0.095, -1.305e-6, -6.934e-7, 6.115e-7
0.094, -1.302e-6, -6.900e-7, 6.124e-7
0.093, -1.303e-6, -6.918e-7, 6.109e-7
0.092, -1.304e-6, -6.909e-7, 6.127e-7
0.091, -1.301e-6, -6.876e-7, 6.136e-7
0.090, -1.302e-6, -6.897e-7, 6.121e-7
0.089, -1.303e-6, -6.873e-7, 6.154e-7
0.088, -1.300e-6, -6.857e-7, 6.145e-7
0.087, -1.301e-6, -6.860e-7, 6.145e-7
0.086, -1.300e-6, -6.848e-7, 6.148e-7
0.085, -1.298e-6, -6.827e-7, 6.154e-7
0.084, -1.296e-6, -6.827e-7, 6.136e-7
0.083, -1.297e-6, -6.824e-7, 6.145e-7
0.082, -1.296e-6, -6.806e-7, 6.154e-7
0.081, -1.295e-6, -6.803e-7, 6.145e-7
0.080, -1.295e-6, -6.790e-7, 6.164e-7
0.079, -1.293e-6, -6.772e-7, 6.161e-7
0.078, -1.292e-6, -6.775e-7, 6.145e-7
0.077, -1.293e-6, -6.760e-7, 6.167e-7
0.076, -1.288e-6, -6.714e-7, 6.164e-7
0.075, -1.290e-6, -6.748e-7, 6.148e-7
0.074, -1.291e-6, -6.741e-7, 6.170e-7
0.073, -1.287e-6, -6.708e-7, 6.167e-7
0.072, -1.287e-6, -6.711e-7, 6.158e-7
0.071, -1.285e-6, -6.687e-7, 6.167e-7
0.070, -1.285e-6, -6.653e-7, 6.197e-7
0.069, -1.283e-6, -6.680e-7, 6.154e-7
0.068, -1.285e-6, -6.662e-7, 6.185e-7
0.067, -1.284e-6, -6.650e-7, 6.191e-7
0.066, -1.282e-6, -6.659e-7, 6.158e-7
0.065, -1.283e-6, -6.647e-7, 6.188e-7
0.064, -1.278e-6, -6.601e-7, 6.176e-7
0.063, -1.276e-6, -6.607e-7, 6.151e-7
0.062, -1.277e-6, -6.595e-7, 6.173e-7
0.061, -1.273e-6, -6.564e-7, 6.170e-7
0.060, -1.273e-6, -6.571e-7, 6.154e-7
0.059, -1.275e-6, -6.568e-7, 6.179e-7
0.058, -1.269e-6, -6.528e-7, 6.167e-7
0.057, -1.270e-6, -6.552e-7, 6.148e-7
0.056, -1.269e-6, -6.537e-7, 6.158e-7
0.055, -1.267e-6, -6.497e-7, 6.170e-7
0.054, -1.265e-6, -6.507e-7, 6.139e-7
0.053, -1.267e-6, -6.503e-7, 6.164e-7
0.052, -1.261e-6, -6.476e-7, 6.136e-7
0.051, -1.259e-6, -6.470e-7, 6.121e-7
0.050, -1.259e-6, -6.455e-7, 6.139e-7
0.049, -1.259e-6, -6.449e-7, 6.145e-7
0.048, -1.255e-6, -6.433e-7, 6.118e-7
0.047, -1.257e-6, -6.433e-7, 6.136e-7
0.046, -1.252e-6, -6.394e-7, 6.130e-7
0.045, -1.250e-6, -6.400e-7, 6.103e-7
0.044, -1.249e-6, -6.388e-7, 6.103e-7
0.043, -1.247e-6, -6.354e-7, 6.118e-7
0.042, -1.245e-6, -6.351e-7, 6.097e-7
0.041, -1.245e-6, -6.345e-7, 6.109e-7
0.040, -1.240e-6, -6.320e-7, 6.081e-7
0.039, -1.241e-6, -6.336e-7, 6.078e-7
0.038, -1.241e-6, -6.311e-7, 6.097e-7
0.037, -1.237e-6, -6.287e-7, 6.081e-7
0.036, -1.236e-6, -6.290e-7, 6.066e-7
0.035, -1.235e-6, -6.268e-7, 6.078e-7
0.034, -1.232e-6, -6.268e-7, 6.051e-7
0.033, -1.228e-6, -6.256e-7, 6.026e-7
0.032, -1.229e-6, -6.241e-7, 6.054e-7
0.031, -1.225e-6, -6.214e-7, 6.039e-7
0.030, -1.222e-6, -6.217e-7, 6.008e-7
0.029, -1.223e-6, -6.207e-7, 6.023e-7
0.028, -1.219e-6, -6.177e-7, 6.017e-7
0.027, -1.217e-6, -6.198e-7, 5.971e-7
0.026, -1.219e-6, -6.183e-7, 6.005e-7
0.025, -1.215e-6, -6.140e-7, 6.005e-7
0.024, -1.211e-6, -6.153e-7, 5.962e-7
0.023, -1.211e-6, -6.137e-7, 5.968e-7
0.022, -1.207e-6, -6.107e-7, 5.962e-7
0.021, -1.205e-6, -6.125e-7, 5.926e-7
0.020, -1.206e-6, -6.110e-7, 5.953e-7
0.019, -1.204e-6, -6.085e-7, 5.953e-7
0.018, -1.202e-6, -6.104e-7, 5.916e-7
0.017, -1.199e-6, -6.073e-7, 5.916e-7
0.016, -1.198e-6, -6.052e-7, 5.926e-7
0.015, -1.196e-6, -6.070e-7, 5.889e-7
0.014, -1.199e-6, -6.067e-7, 5.926e-7
0.013, -1.193e-6, -6.030e-7, 5.901e-7
0.012, -1.192e-6, -6.049e-7, 5.868e-7
0.011, -1.189e-6, -6.003e-7, 5.889e-7
0.010, -1.186e-6, -5.988e-7, 5.868e-7
0.009, -1.185e-6, -6.012e-7, 5.834e-7
0.008, -1.184e-6, -5.997e-7, 5.846e-7
0.007, -1.179e-6, -5.960e-7, 5.825e-7
0.006, -1.177e-6, -5.969e-7, 5.797e-7
0.005, -1.178e-6, -5.960e-7, 5.819e-7
0.004, -1.172e-6, -5.921e-7, 5.794e-7
0.003, -1.172e-6, -5.948e-7, 5.776e-7
0.002, -1.169e-6, -5.915e-7, 5.779e-7
0.001, -1.165e-6, -5.884e-7, 5.764e-7
-0.000, -1.164e-6, -5.908e-7, 5.733e-7
-0.001, -1.168e-6, -5.915e-7, 5.764e-7
-0.002, -1.161e-6, -5.875e-7, 5.739e-7
-0.003, -1.160e-6, -5.890e-7, 5.712e-7
-0.004, -1.159e-6, -5.872e-7, 5.721e-7
-0.005, -1.159e-6, -5.866e-7, 5.727e-7
-0.006, -1.152e-6, -5.857e-7, 5.666e-7
-0.007, -1.153e-6, -5.841e-7, 5.694e-7
-0.008, -1.149e-6, -5.817e-7, 5.669e-7
-0.009, -1.150e-6, -5.850e-7, 5.651e-7
-0.010, -1.150e-6, -5.832e-7, 5.669e-7
-0.011, -1.144e-6, -5.808e-7, 5.636e-7
-0.012, -1.142e-6, -5.811e-7, 5.608e-7
-0.013, -1.144e-6, -5.808e-7, 5.630e-7
-0.014, -1.138e-6, -5.765e-7, 5.617e-7
-0.015, -1.140e-6, -5.805e-7, 5.593e-7
-0.016, -1.137e-6, -5.786e-7, 5.584e-7
-0.017, -1.130e-6, -5.738e-7, 5.562e-7
-0.018, -1.129e-6, -5.765e-7, 5.529e-7
-0.019, -1.129e-6, -5.738e-7, 5.550e-7
-0.020, -1.128e-6, -5.728e-7, 5.547e-7
-0.021, -1.127e-6, -5.759e-7, 5.508e-7
-0.022, -1.126e-6, -5.731e-7, 5.529e-7
-0.023, -1.121e-6, -5.698e-7, 5.514e-7
-0.024, -1.120e-6, -5.728e-7, 5.471e-7
-0.025, -1.119e-6, -5.719e-7, 5.474e-7
-0.026, -1.115e-6, -5.680e-7, 5.468e-7
-0.027, -1.114e-6, -5.710e-7, 5.431e-7
-0.028, -1.114e-6, -5.689e-7, 5.447e-7
-0.029, -1.110e-6, -5.673e-7, 5.431e-7
-0.030, -1.110e-6, -5.698e-7, 5.404e-7
-0.031, -1.110e-6, -5.676e-7, 5.422e-7
-0.032, -1.105e-6, -5.652e-7, 5.401e-7
-0.033, -1.103e-6, -5.664e-7, 5.367e-7
-0.034, -1.103e-6, -5.655e-7, 5.379e-7
-0.035, -1.099e-6, -5.637e-7, 5.358e-7
-0.036, -1.098e-6, -5.658e-7, 5.321e-7
-0.037, -1.101e-6, -5.655e-7, 5.352e-7
-0.038, -1.096e-6, -5.631e-7, 5.324e-7
-0.039, -1.093e-6, -5.640e-7, 5.291e-7
-0.040, -1.096e-6, -5.646e-7, 5.309e-7
-0.041, -1.088e-6, -5.606e-7, 5.273e-7
-0.042, -1.088e-6, -5.628e-7, 5.248e-7
-0.043, -1.089e-6, -5.609e-7, 5.279e-7
-0.044, -1.087e-6, -5.597e-7, 5.273e-7
-0.045, -1.082e-6, -5.603e-7, 5.218e-7
-0.046, -1.085e-6, -5.603e-7, 5.245e-7
-0.047, -1.079e-6, -5.570e-7, 5.221e-7
-0.048, -1.078e-6, -5.594e-7, 5.184e-7
-0.049, -1.079e-6, -5.585e-7, 5.208e-7
-0.050, -1.075e-6, -5.564e-7, 5.187e-7
-0.051, -1.074e-6, -5.582e-7, 5.154e-7
-0.052, -1.074e-6, -5.573e-7, 5.169e-7
-0.053, -1.070e-6, -5.561e-7, 5.141e-7
-0.054, -1.071e-6, -5.594e-7, 5.117e-7
-0.055, -1.070e-6, -5.561e-7, 5.141e-7
-0.056, -1.068e-6, -5.545e-7, 5.135e-7
-0.057, -1.066e-6, -5.564e-7, 5.096e-7
-0.058, -1.068e-6, -5.557e-7, 5.120e-7
-0.059, -1.061e-6, -5.530e-7, 5.083e-7
-0.060, -1.059e-6, -5.542e-7, 5.047e-7
-0.061, -1.063e-6, -5.542e-7, 5.083e-7
-0.062, -1.060e-6, -5.536e-7, 5.062e-7
-0.063, -1.056e-6, -5.545e-7, 5.019e-7
-0.064, -1.057e-6, -5.542e-7, 5.025e-7
-0.065, -1.056e-6, -5.524e-7, 5.032e-7
-0.066, -1.055e-6, -5.548e-7, 4.998e-7
-0.067, -1.054e-6, -5.530e-7, 5.007e-7
-0.068, -1.048e-6, -5.509e-7, 4.974e-7
-0.069, -1.049e-6, -5.527e-7, 4.961e-7
-0.070, -1.052e-6, -5.536e-7, 4.986e-7
-0.071, -1.047e-6, -5.506e-7, 4.964e-7
-0.072, -1.046e-6, -5.530e-7, 4.931e-7
-0.073, -1.046e-6, -5.518e-7, 4.946e-7
-0.074, -1.043e-6, -5.506e-7, 4.925e-7
-0.075, -1.041e-6, -5.530e-7, 4.882e-7
-0.076, -1.044e-6, -5.509e-7, 4.928e-7
-0.077, -1.039e-6, -5.496e-7, 4.897e-7
-0.078, -1.041e-6, -5.533e-7, 4.876e-7
-0.079, -1.038e-6, -5.506e-7, 4.879e-7
-0.080, -1.036e-6, -5.500e-7, 4.858e-7
-0.081, -1.037e-6, -5.533e-7, 4.836e-7
-0.082, -1.036e-6, -5.503e-7, 4.858e-7
-0.083, -1.035e-6, -5.506e-7, 4.845e-7
-0.084, -1.032e-6, -5.512e-7, 4.809e-7
-0.085, -1.032e-6, -5.500e-7, 4.818e-7
-0.086, -1.029e-6, -5.472e-7, 4.818e-7
-0.087, -1.029e-6, -5.506e-7, 4.784e-7
-0.088, -1.030e-6, -5.496e-7, 4.800e-7
-0.089, -1.029e-6, -5.478e-7, 4.809e-7
-0.090, -1.028e-6, -5.512e-7, 4.769e-7
-0.091, -1.030e-6, -5.503e-7, 4.797e-7
-0.092, -1.023e-6, -5.472e-7, 4.754e-7
-0.093, -1.025e-6, -5.503e-7, 4.745e-7
-0.094, -1.025e-6, -5.484e-7, 4.763e-7
-0.095, -1.020e-6, -5.472e-7, 4.729e-7
-0.096, -1.020e-6, -5.500e-7, 4.702e-7
-0.097, -1.022e-6, -5.490e-7, 4.726e-7
-0.098, -1.018e-6, -5.478e-7, 4.705e-7
-0.099, -1.019e-6, -5.500e-7, 4.687e-7
-0.100, -1.020e-6, -5.496e-7, 4.705e-7
