Feb. 28, 2018   10:41:58
Square Wave Voltammetry
File: c:\users\electrochemist\desktop\2018\28022018_cal\6_g3_a5_ph7_5.txt
Data Source:  Experiment
Instrument Model:  CHI1040A
Header: 
Note: 

Init E (V) = 0.5
Final E (V) = -0.1
Incr E (V) = 0.001
Amplitude (V) = 0.1
Frequency (Hz) = 150
Quiet Time (sec) = 0
Sensitivity (A/V) = 1e-6

Difference:

Forward:

Reverse:

Potential/V, Diff(i/A), For(i/A), Rev(i/A)

0.499, -7.202e-7, -1.349e-7, 5.852e-7
0.498, -8.285e-7, -3.156e-7, 5.129e-7
0.497, -8.114e-7, -3.275e-7, 4.839e-7
0.496, -7.989e-7, -3.351e-7, 4.638e-7
0.495, -7.876e-7, -3.372e-7, 4.504e-7
0.494, -7.791e-7, -3.391e-7, 4.400e-7
0.493, -7.763e-7, -3.434e-7, 4.330e-7
0.492, -7.678e-7, -3.430e-7, 4.247e-7
0.491, -7.620e-7, -3.434e-7, 4.186e-7
0.490, -7.589e-7, -3.452e-7, 4.137e-7
0.489, -7.556e-7, -3.458e-7, 4.098e-7
0.488, -7.504e-7, -3.464e-7, 4.040e-7
0.487, -7.498e-7, -3.488e-7, 4.009e-7
0.486, -7.486e-7, -3.488e-7, 3.997e-7
0.485, -7.425e-7, -3.479e-7, 3.945e-7
0.484, -7.409e-7, -3.495e-7, 3.915e-7
0.483, -7.400e-7, -3.498e-7, 3.902e-7
0.482, -7.391e-7, -3.510e-7, 3.881e-7
0.481, -7.342e-7, -3.507e-7, 3.835e-7
0.480, -7.351e-7, -3.504e-7, 3.848e-7
0.479, -7.296e-7, -3.504e-7, 3.793e-7
0.478, -7.302e-7, -3.516e-7, 3.787e-7
0.477, -7.272e-7, -3.507e-7, 3.765e-7
0.476, -7.287e-7, -3.531e-7, 3.756e-7
0.475, -7.284e-7, -3.540e-7, 3.744e-7
0.474, -7.266e-7, -3.528e-7, 3.738e-7
0.473, -7.220e-7, -3.507e-7, 3.713e-7
0.472, -7.229e-7, -3.525e-7, 3.704e-7
0.471, -7.241e-7, -3.528e-7, 3.713e-7
0.470, -7.217e-7, -3.543e-7, 3.674e-7
0.469, -7.199e-7, -3.540e-7, 3.658e-7
0.468, -7.199e-7, -3.531e-7, 3.668e-7
0.467, -7.186e-7, -3.537e-7, 3.649e-7
0.466, -7.177e-7, -3.540e-7, 3.637e-7
0.465, -7.205e-7, -3.546e-7, 3.658e-7
0.464, -7.162e-7, -3.549e-7, 3.613e-7
0.463, -7.180e-7, -3.568e-7, 3.613e-7
0.462, -7.168e-7, -3.543e-7, 3.625e-7
0.461, -7.150e-7, -3.546e-7, 3.603e-7
0.460, -7.165e-7, -3.568e-7, 3.597e-7
0.459, -7.180e-7, -3.568e-7, 3.613e-7
0.458, -7.138e-7, -3.559e-7, 3.579e-7
0.457, -7.162e-7, -3.565e-7, 3.597e-7
0.456, -7.168e-7, -3.571e-7, 3.597e-7
0.455, -7.138e-7, -3.577e-7, 3.561e-7
0.454, -7.150e-7, -3.574e-7, 3.576e-7
0.453, -7.153e-7, -3.571e-7, 3.582e-7
0.452, -7.116e-7, -3.571e-7, 3.545e-7
0.451, -7.138e-7, -3.586e-7, 3.552e-7
0.450, -7.159e-7, -3.586e-7, 3.573e-7
0.449, -7.122e-7, -3.586e-7, 3.536e-7
0.448, -7.147e-7, -3.617e-7, 3.530e-7
0.447, -7.147e-7, -3.601e-7, 3.545e-7
0.446, -7.135e-7, -3.617e-7, 3.518e-7
0.445, -7.147e-7, -3.614e-7, 3.533e-7
0.444, -7.135e-7, -3.601e-7, 3.533e-7
0.443, -7.150e-7, -3.626e-7, 3.524e-7
0.442, -7.135e-7, -3.626e-7, 3.509e-7
0.441, -7.144e-7, -3.614e-7, 3.530e-7
0.440, -7.141e-7, -3.635e-7, 3.506e-7
0.439, -7.144e-7, -3.623e-7, 3.521e-7
0.438, -7.135e-7, -3.623e-7, 3.512e-7
0.437, -7.144e-7, -3.641e-7, 3.503e-7
0.436, -7.150e-7, -3.650e-7, 3.500e-7
0.435, -7.144e-7, -3.641e-7, 3.503e-7
0.434, -7.153e-7, -3.662e-7, 3.491e-7
0.433, -7.159e-7, -3.665e-7, 3.494e-7
0.432, -7.138e-7, -3.641e-7, 3.497e-7
0.431, -7.138e-7, -3.656e-7, 3.481e-7
0.430, -7.168e-7, -3.684e-7, 3.484e-7
0.429, -7.156e-7, -3.665e-7, 3.491e-7
0.428, -7.171e-7, -3.690e-7, 3.481e-7
0.427, -7.165e-7, -3.678e-7, 3.487e-7
0.426, -7.183e-7, -3.687e-7, 3.497e-7
0.425, -7.153e-7, -3.687e-7, 3.466e-7
0.424, -7.190e-7, -3.708e-7, 3.481e-7
0.423, -7.177e-7, -3.693e-7, 3.484e-7
0.422, -7.180e-7, -3.711e-7, 3.469e-7
0.421, -7.214e-7, -3.726e-7, 3.487e-7
0.420, -7.199e-7, -3.723e-7, 3.475e-7
0.419, -7.190e-7, -3.726e-7, 3.463e-7
0.418, -7.223e-7, -3.736e-7, 3.487e-7
0.417, -7.205e-7, -3.717e-7, 3.487e-7
0.416, -7.202e-7, -3.742e-7, 3.460e-7
0.415, -7.244e-7, -3.766e-7, 3.478e-7
0.414, -7.229e-7, -3.751e-7, 3.478e-7
0.413, -7.217e-7, -3.751e-7, 3.466e-7
0.412, -7.241e-7, -3.778e-7, 3.463e-7
0.411, -7.272e-7, -3.763e-7, 3.509e-7
0.410, -7.235e-7, -3.760e-7, 3.475e-7
0.409, -7.287e-7, -3.803e-7, 3.484e-7
0.408, -7.263e-7, -3.784e-7, 3.478e-7
0.407, -7.284e-7, -3.803e-7, 3.481e-7
0.406, -7.318e-7, -3.824e-7, 3.494e-7
0.405, -7.263e-7, -3.784e-7, 3.478e-7
0.404, -7.293e-7, -3.818e-7, 3.475e-7
0.403, -7.315e-7, -3.824e-7, 3.491e-7
0.402, -7.312e-7, -3.818e-7, 3.494e-7
0.401, -7.299e-7, -3.821e-7, 3.478e-7
0.400, -7.333e-7, -3.846e-7, 3.487e-7
0.399, -7.339e-7, -3.852e-7, 3.487e-7
0.398, -7.327e-7, -3.842e-7, 3.484e-7
0.397, -7.363e-7, -3.867e-7, 3.497e-7
0.396, -7.351e-7, -3.861e-7, 3.491e-7
0.395, -7.357e-7, -3.876e-7, 3.481e-7
0.394, -7.394e-7, -3.897e-7, 3.497e-7
0.393, -7.367e-7, -3.873e-7, 3.494e-7
0.392, -7.394e-7, -3.903e-7, 3.491e-7
0.391, -7.406e-7, -3.894e-7, 3.512e-7
0.390, -7.406e-7, -3.891e-7, 3.515e-7
0.389, -7.421e-7, -3.922e-7, 3.500e-7
0.388, -7.431e-7, -3.928e-7, 3.503e-7
0.387, -7.428e-7, -3.916e-7, 3.512e-7
0.386, -7.437e-7, -3.934e-7, 3.503e-7
0.385, -7.467e-7, -3.949e-7, 3.518e-7
0.384, -7.452e-7, -3.946e-7, 3.506e-7
0.383, -7.470e-7, -3.965e-7, 3.506e-7
0.382, -7.507e-7, -3.989e-7, 3.518e-7
0.381, -7.504e-7, -3.983e-7, 3.521e-7
0.380, -7.513e-7, -4.004e-7, 3.509e-7
0.379, -7.550e-7, -4.010e-7, 3.539e-7
0.378, -7.525e-7, -3.995e-7, 3.530e-7
0.377, -7.522e-7, -4.016e-7, 3.506e-7
0.376, -7.574e-7, -4.029e-7, 3.545e-7
0.375, -7.544e-7, -4.016e-7, 3.527e-7
0.374, -7.577e-7, -4.044e-7, 3.533e-7
0.373, -7.601e-7, -4.050e-7, 3.552e-7
0.372, -7.592e-7, -4.047e-7, 3.545e-7
0.371, -7.614e-7, -4.077e-7, 3.536e-7
0.370, -7.632e-7, -4.080e-7, 3.552e-7
0.369, -7.635e-7, -4.084e-7, 3.552e-7
0.368, -7.641e-7, -4.099e-7, 3.542e-7
0.367, -7.693e-7, -4.111e-7, 3.582e-7
0.366, -7.647e-7, -4.096e-7, 3.552e-7
0.365, -7.675e-7, -4.123e-7, 3.552e-7
0.364, -7.705e-7, -4.126e-7, 3.579e-7
0.363, -7.711e-7, -4.135e-7, 3.576e-7
0.362, -7.721e-7, -4.148e-7, 3.573e-7
0.361, -7.760e-7, -4.178e-7, 3.582e-7
0.360, -7.733e-7, -4.154e-7, 3.579e-7
0.359, -7.745e-7, -4.181e-7, 3.564e-7
0.358, -7.794e-7, -4.203e-7, 3.591e-7
0.357, -7.782e-7, -4.196e-7, 3.585e-7
0.356, -7.815e-7, -4.227e-7, 3.588e-7
0.355, -7.846e-7, -4.236e-7, 3.610e-7
0.354, -7.818e-7, -4.221e-7, 3.597e-7
0.353, -7.864e-7, -4.267e-7, 3.597e-7
0.352, -7.882e-7, -4.267e-7, 3.616e-7
0.351, -7.876e-7, -4.261e-7, 3.616e-7
0.350, -7.904e-7, -4.297e-7, 3.606e-7
0.349, -7.925e-7, -4.294e-7, 3.631e-7
0.348, -7.916e-7, -4.273e-7, 3.643e-7
0.347, -7.952e-7, -4.331e-7, 3.622e-7
0.346, -7.983e-7, -4.334e-7, 3.649e-7
0.345, -7.946e-7, -4.312e-7, 3.634e-7
0.344, -7.968e-7, -4.355e-7, 3.613e-7
0.343, -8.020e-7, -4.358e-7, 3.661e-7
0.342, -8.013e-7, -4.361e-7, 3.652e-7
0.341, -8.044e-7, -4.392e-7, 3.652e-7
0.340, -8.084e-7, -4.407e-7, 3.677e-7
0.339, -8.059e-7, -4.380e-7, 3.680e-7
0.338, -8.102e-7, -4.434e-7, 3.667e-7
0.337, -8.117e-7, -4.438e-7, 3.680e-7
0.336, -8.126e-7, -4.434e-7, 3.692e-7
0.335, -8.139e-7, -4.465e-7, 3.674e-7
0.334, -8.172e-7, -4.471e-7, 3.701e-7
0.333, -8.166e-7, -4.456e-7, 3.710e-7
0.332, -8.200e-7, -4.502e-7, 3.698e-7
0.331, -8.209e-7, -4.489e-7, 3.719e-7
0.330, -8.212e-7, -4.495e-7, 3.716e-7
0.329, -8.245e-7, -4.535e-7, 3.710e-7
0.328, -8.297e-7, -4.560e-7, 3.738e-7
0.327, -8.282e-7, -4.544e-7, 3.738e-7
0.326, -8.297e-7, -4.578e-7, 3.719e-7
0.325, -8.343e-7, -4.584e-7, 3.759e-7
0.324, -8.340e-7, -4.587e-7, 3.753e-7
0.323, -8.361e-7, -4.618e-7, 3.744e-7
0.322, -8.392e-7, -4.618e-7, 3.774e-7
0.321, -8.410e-7, -4.630e-7, 3.780e-7
0.320, -8.435e-7, -4.669e-7, 3.765e-7
0.319, -8.459e-7, -4.666e-7, 3.793e-7
0.318, -8.447e-7, -4.657e-7, 3.790e-7
0.317, -8.480e-7, -4.703e-7, 3.777e-7
0.316, -8.538e-7, -4.712e-7, 3.826e-7
0.315, -8.499e-7, -4.697e-7, 3.802e-7
0.314, -8.529e-7, -4.737e-7, 3.793e-7
0.313, -8.578e-7, -4.752e-7, 3.826e-7
0.312, -8.575e-7, -4.749e-7, 3.826e-7
0.311, -8.630e-7, -4.804e-7, 3.826e-7
0.310, -8.651e-7, -4.788e-7, 3.863e-7
0.309, -8.645e-7, -4.792e-7, 3.854e-7
0.308, -8.673e-7, -4.843e-7, 3.829e-7
0.307, -8.718e-7, -4.843e-7, 3.875e-7
0.306, -8.697e-7, -4.837e-7, 3.860e-7
0.305, -8.746e-7, -4.877e-7, 3.869e-7
0.304, -8.767e-7, -4.892e-7, 3.875e-7
0.303, -8.761e-7, -4.877e-7, 3.884e-7
0.302, -8.767e-7, -4.907e-7, 3.860e-7
0.301, -8.847e-7, -4.929e-7, 3.918e-7
0.300, -8.822e-7, -4.920e-7, 3.902e-7
0.299, -8.880e-7, -4.956e-7, 3.924e-7
0.298, -8.905e-7, -4.975e-7, 3.930e-7
0.297, -8.883e-7, -4.953e-7, 3.930e-7
0.296, -8.923e-7, -4.999e-7, 3.924e-7
0.295, -8.978e-7, -5.023e-7, 3.954e-7
0.294, -8.947e-7, -4.993e-7, 3.954e-7
0.293, -8.996e-7, -5.057e-7, 3.939e-7
0.292, -9.057e-7, -5.069e-7, 3.988e-7
0.291, -9.033e-7, -5.051e-7, 3.982e-7
0.290, -9.082e-7, -5.100e-7, 3.982e-7
0.289, -9.103e-7, -5.109e-7, 3.994e-7
0.288, -9.103e-7, -5.106e-7, 3.997e-7
0.287, -9.146e-7, -5.158e-7, 3.988e-7
0.286, -9.173e-7, -5.155e-7, 4.018e-7
0.285, -9.182e-7, -5.158e-7, 4.025e-7
0.284, -9.219e-7, -5.197e-7, 4.021e-7
0.283, -9.258e-7, -5.200e-7, 4.058e-7
0.282, -9.243e-7, -5.200e-7, 4.043e-7
0.281, -9.298e-7, -5.249e-7, 4.049e-7
0.280, -9.365e-7, -5.274e-7, 4.092e-7
0.279, -9.338e-7, -5.246e-7, 4.092e-7
0.278, -9.374e-7, -5.301e-7, 4.073e-7
0.277, -9.417e-7, -5.301e-7, 4.116e-7
0.276, -9.408e-7, -5.295e-7, 4.113e-7
0.275, -9.460e-7, -5.344e-7, 4.116e-7
0.274, -9.503e-7, -5.365e-7, 4.137e-7
0.273, -9.509e-7, -5.359e-7, 4.150e-7
0.272, -9.533e-7, -5.396e-7, 4.137e-7
0.271, -9.603e-7, -5.423e-7, 4.180e-7
0.270, -9.582e-7, -5.408e-7, 4.174e-7
0.269, -9.625e-7, -5.457e-7, 4.168e-7
0.268, -9.670e-7, -5.466e-7, 4.205e-7
0.267, -9.643e-7, -5.451e-7, 4.192e-7
0.266, -9.695e-7, -5.506e-7, 4.189e-7
0.265, -9.768e-7, -5.527e-7, 4.241e-7
0.264, -9.741e-7, -5.506e-7, 4.235e-7
0.263, -9.744e-7, -5.533e-7, 4.211e-7
0.262, -9.802e-7, -5.557e-7, 4.244e-7
0.261, -9.793e-7, -5.536e-7, 4.256e-7
0.260, -9.860e-7, -5.606e-7, 4.253e-7
0.259, -9.905e-7, -5.609e-7, 4.296e-7
0.258, -9.875e-7, -5.594e-7, 4.281e-7
0.257, -9.902e-7, -5.628e-7, 4.275e-7
0.256, -9.970e-7, -5.655e-7, 4.314e-7
0.255, -9.973e-7, -5.643e-7, 4.330e-7
0.254, -1.000e-6, -5.698e-7, 4.302e-7
0.253, -1.006e-6, -5.704e-7, 4.357e-7
0.252, -1.005e-6, -5.701e-7, 4.351e-7
0.251, -1.010e-6, -5.744e-7, 4.354e-7
0.250, -1.015e-6, -5.762e-7, 4.388e-7
0.249, -1.016e-6, -5.762e-7, 4.397e-7
0.248, -1.020e-6, -5.817e-7, 4.382e-7
0.247, -1.022e-6, -5.811e-7, 4.409e-7
0.246, -1.020e-6, -5.792e-7, 4.412e-7
0.245, -1.027e-6, -5.850e-7, 4.418e-7
0.244, -1.031e-6, -5.860e-7, 4.449e-7
0.243, -1.031e-6, -5.847e-7, 4.461e-7
0.242, -1.035e-6, -5.908e-7, 4.440e-7
0.241, -1.039e-6, -5.908e-7, 4.482e-7
0.240, -1.042e-6, -5.918e-7, 4.501e-7
0.239, -1.042e-6, -5.948e-7, 4.473e-7
0.238, -1.047e-6, -5.948e-7, 4.522e-7
0.237, -1.049e-6, -5.963e-7, 4.531e-7
0.236, -1.053e-6, -6.009e-7, 4.522e-7
0.235, -1.057e-6, -6.018e-7, 4.555e-7
0.234, -1.056e-6, -6.006e-7, 4.549e-7
0.233, -1.063e-6, -6.067e-7, 4.562e-7
0.232, -1.066e-6, -6.064e-7, 4.598e-7
0.231, -1.068e-6, -6.079e-7, 4.598e-7
0.230, -1.069e-6, -6.101e-7, 4.592e-7
0.229, -1.076e-6, -6.128e-7, 4.629e-7
0.228, -1.073e-6, -6.107e-7, 4.626e-7
0.227, -1.078e-6, -6.156e-7, 4.623e-7
0.226, -1.083e-6, -6.165e-7, 4.662e-7
0.225, -1.082e-6, -6.153e-7, 4.668e-7
0.224, -1.088e-6, -6.223e-7, 4.656e-7
0.223, -1.090e-6, -6.204e-7, 4.696e-7
0.222, -1.093e-6, -6.220e-7, 4.711e-7
0.221, -1.096e-6, -6.253e-7, 4.708e-7
0.220, -1.100e-6, -6.265e-7, 4.732e-7
0.219, -1.099e-6, -6.253e-7, 4.742e-7
0.218, -1.104e-6, -6.299e-7, 4.739e-7
0.217, -1.108e-6, -6.299e-7, 4.781e-7
0.216, -1.107e-6, -6.296e-7, 4.778e-7
0.215, -1.112e-6, -6.360e-7, 4.763e-7
0.214, -1.118e-6, -6.366e-7, 4.815e-7
0.213, -1.114e-6, -6.336e-7, 4.800e-7
0.212, -1.123e-6, -6.406e-7, 4.827e-7
0.211, -1.124e-6, -6.391e-7, 4.851e-7
0.210, -1.126e-6, -6.412e-7, 4.851e-7
0.209, -1.131e-6, -6.455e-7, 4.851e-7
0.208, -1.135e-6, -6.458e-7, 4.897e-7
0.207, -1.132e-6, -6.433e-7, 4.888e-7
0.206, -1.138e-6, -6.491e-7, 4.885e-7
0.205, -1.143e-6, -6.500e-7, 4.934e-7
0.204, -1.141e-6, -6.491e-7, 4.919e-7
0.203, -1.149e-6, -6.549e-7, 4.940e-7
0.202, -1.152e-6, -6.546e-7, 4.977e-7
0.201, -1.149e-6, -6.525e-7, 4.967e-7
0.200, -1.157e-6, -6.592e-7, 4.983e-7
0.199, -1.158e-6, -6.583e-7, 5.001e-7
0.198, -1.158e-6, -6.574e-7, 5.007e-7
0.197, -1.163e-6, -6.622e-7, 5.010e-7
0.196, -1.168e-6, -6.629e-7, 5.047e-7
0.195, -1.166e-6, -6.610e-7, 5.047e-7
0.194, -1.171e-6, -6.668e-7, 5.044e-7
0.193, -1.175e-6, -6.659e-7, 5.096e-7
0.192, -1.174e-6, -6.644e-7, 5.096e-7
0.191, -1.180e-6, -6.702e-7, 5.102e-7
0.190, -1.184e-6, -6.702e-7, 5.138e-7
0.189, -1.183e-6, -6.711e-7, 5.117e-7
0.188, -1.186e-6, -6.720e-7, 5.138e-7
0.187, -1.190e-6, -6.735e-7, 5.163e-7
0.186, -1.189e-6, -6.723e-7, 5.163e-7
0.185, -1.191e-6, -6.760e-7, 5.151e-7
0.184, -1.198e-6, -6.775e-7, 5.202e-7
0.183, -1.197e-6, -6.769e-7, 5.199e-7
0.182, -1.200e-6, -6.806e-7, 5.196e-7
0.181, -1.205e-6, -6.803e-7, 5.248e-7
0.180, -1.204e-6, -6.806e-7, 5.233e-7
0.179, -1.211e-6, -6.848e-7, 5.257e-7
0.178, -1.213e-6, -6.848e-7, 5.285e-7
0.177, -1.213e-6, -6.833e-7, 5.294e-7
0.176, -1.218e-6, -6.882e-7, 5.297e-7
0.175, -1.220e-6, -6.873e-7, 5.328e-7
0.174, -1.218e-6, -6.854e-7, 5.324e-7
0.173, -1.223e-6, -6.909e-7, 5.324e-7
0.172, -1.227e-6, -6.897e-7, 5.370e-7
0.171, -1.227e-6, -6.903e-7, 5.364e-7
0.170, -1.228e-6, -6.925e-7, 5.355e-7
0.169, -1.234e-6, -6.922e-7, 5.422e-7
0.168, -1.233e-6, -6.912e-7, 5.413e-7
0.167, -1.236e-6, -6.955e-7, 5.404e-7
0.166, -1.241e-6, -6.958e-7, 5.456e-7
0.165, -1.240e-6, -6.955e-7, 5.443e-7
0.164, -1.242e-6, -6.983e-7, 5.434e-7
0.163, -1.243e-6, -6.964e-7, 5.465e-7
0.162, -1.241e-6, -6.943e-7, 5.471e-7
0.161, -1.247e-6, -7.007e-7, 5.468e-7
0.160, -1.251e-6, -6.998e-7, 5.511e-7
0.159, -1.250e-6, -6.998e-7, 5.501e-7
0.158, -1.252e-6, -7.010e-7, 5.508e-7
0.157, -1.258e-6, -7.028e-7, 5.553e-7
0.156, -1.255e-6, -7.010e-7, 5.544e-7
0.155, -1.260e-6, -7.047e-7, 5.550e-7
0.154, -1.262e-6, -7.028e-7, 5.593e-7
0.153, -1.258e-6, -7.010e-7, 5.575e-7
0.152, -1.263e-6, -7.044e-7, 5.590e-7
0.151, -1.266e-6, -7.053e-7, 5.608e-7
0.150, -1.265e-6, -7.034e-7, 5.620e-7
0.149, -1.268e-6, -7.059e-7, 5.617e-7
0.148, -1.272e-6, -7.056e-7, 5.663e-7
0.147, -1.273e-6, -7.065e-7, 5.666e-7
0.146, -1.276e-6, -7.095e-7, 5.663e-7
0.145, -1.277e-6, -7.080e-7, 5.691e-7
0.144, -1.276e-6, -7.068e-7, 5.697e-7
0.143, -1.278e-6, -7.089e-7, 5.691e-7
0.142, -1.281e-6, -7.089e-7, 5.721e-7
0.141, -1.279e-6, -7.065e-7, 5.721e-7
0.140, -1.283e-6, -7.099e-7, 5.733e-7
0.139, -1.283e-6, -7.080e-7, 5.749e-7
0.138, -1.285e-6, -7.083e-7, 5.770e-7
0.137, -1.285e-6, -7.105e-7, 5.746e-7
0.136, -1.287e-6, -7.092e-7, 5.779e-7
0.135, -1.284e-6, -7.065e-7, 5.779e-7
0.134, -1.290e-6, -7.108e-7, 5.788e-7
0.133, -1.293e-6, -7.089e-7, 5.837e-7
0.132, -1.291e-6, -7.089e-7, 5.822e-7
0.131, -1.291e-6, -7.102e-7, 5.807e-7
0.130, -1.295e-6, -7.102e-7, 5.852e-7
0.129, -1.294e-6, -7.083e-7, 5.855e-7
0.128, -1.296e-6, -7.099e-7, 5.862e-7
0.127, -1.297e-6, -7.095e-7, 5.874e-7
0.126, -1.293e-6, -7.056e-7, 5.877e-7
0.125, -1.298e-6, -7.102e-7, 5.880e-7
0.124, -1.300e-6, -7.086e-7, 5.913e-7
0.123, -1.298e-6, -7.080e-7, 5.898e-7
0.122, -1.301e-6, -7.089e-7, 5.920e-7
0.121, -1.302e-6, -7.086e-7, 5.938e-7
0.120, -1.299e-6, -7.056e-7, 5.935e-7
0.119, -1.301e-6, -7.083e-7, 5.929e-7
0.118, -1.300e-6, -7.062e-7, 5.935e-7
0.117, -1.302e-6, -7.065e-7, 5.959e-7
0.116, -1.304e-6, -7.071e-7, 5.968e-7
0.115, -1.304e-6, -7.053e-7, 5.990e-7
0.114, -1.305e-6, -7.059e-7, 5.996e-7
0.113, -1.304e-6, -7.056e-7, 5.984e-7
0.112, -1.306e-6, -7.050e-7, 6.011e-7
0.111, -1.304e-6, -7.031e-7, 6.011e-7
0.110, -1.306e-6, -7.056e-7, 6.002e-7
0.109, -1.307e-6, -7.034e-7, 6.032e-7
0.108, -1.304e-6, -7.010e-7, 6.026e-7
0.107, -1.306e-6, -7.022e-7, 6.039e-7
0.106, -1.309e-6, -7.025e-7, 6.060e-7
0.105, -1.305e-6, -7.001e-7, 6.054e-7
0.104, -1.307e-6, -7.010e-7, 6.060e-7
0.103, -1.307e-6, -6.995e-7, 6.072e-7
0.102, -1.305e-6, -6.976e-7, 6.075e-7
0.101, -1.309e-6, -7.007e-7, 6.078e-7
0.100, -1.306e-6, -6.970e-7, 6.087e-7
0.099, -1.305e-6, -6.958e-7, 6.090e-7
0.098, -1.306e-6, -6.964e-7, 6.097e-7
0.097, -1.309e-6, -6.949e-7, 6.136e-7
0.096, -1.306e-6, -6.949e-7, 6.112e-7
0.095, -1.308e-6, -6.967e-7, 6.112e-7
0.094, -1.305e-6, -6.928e-7, 6.124e-7
0.093, -1.304e-6, -6.925e-7, 6.118e-7
0.092, -1.305e-6, -6.931e-7, 6.124e-7
0.091, -1.304e-6, -6.900e-7, 6.136e-7
0.090, -1.306e-6, -6.925e-7, 6.139e-7
0.089, -1.303e-6, -6.900e-7, 6.127e-7
0.088, -1.302e-6, -6.867e-7, 6.151e-7
0.087, -1.301e-6, -6.864e-7, 6.151e-7
0.086, -1.302e-6, -6.876e-7, 6.142e-7
0.085, -1.302e-6, -6.851e-7, 6.167e-7
0.084, -1.299e-6, -6.830e-7, 6.158e-7
0.083, -1.300e-6, -6.848e-7, 6.148e-7
0.082, -1.301e-6, -6.827e-7, 6.188e-7
0.081, -1.299e-6, -6.812e-7, 6.176e-7
0.080, -1.297e-6, -6.821e-7, 6.151e-7
0.079, -1.299e-6, -6.790e-7, 6.200e-7
0.078, -1.297e-6, -6.799e-7, 6.173e-7
0.077, -1.296e-6, -6.787e-7, 6.170e-7
0.076, -1.296e-6, -6.769e-7, 6.188e-7
0.075, -1.293e-6, -6.760e-7, 6.170e-7
0.074, -1.294e-6, -6.766e-7, 6.176e-7
0.073, -1.294e-6, -6.738e-7, 6.200e-7
0.072, -1.290e-6, -6.720e-7, 6.179e-7
0.071, -1.290e-6, -6.732e-7, 6.164e-7
0.070, -1.291e-6, -6.717e-7, 6.197e-7
0.069, -1.285e-6, -6.696e-7, 6.151e-7
0.068, -1.287e-6, -6.684e-7, 6.182e-7
0.067, -1.287e-6, -6.665e-7, 6.203e-7
0.066, -1.283e-6, -6.650e-7, 6.179e-7
0.065, -1.284e-6, -6.662e-7, 6.179e-7
0.064, -1.282e-6, -6.632e-7, 6.191e-7
0.063, -1.280e-6, -6.610e-7, 6.188e-7
0.062, -1.280e-6, -6.632e-7, 6.164e-7
0.061, -1.278e-6, -6.598e-7, 6.182e-7
0.060, -1.277e-6, -6.595e-7, 6.176e-7
0.059, -1.275e-6, -6.589e-7, 6.164e-7
0.058, -1.276e-6, -6.583e-7, 6.182e-7
0.057, -1.273e-6, -6.546e-7, 6.182e-7
0.056, -1.274e-6, -6.564e-7, 6.173e-7
0.055, -1.269e-6, -6.525e-7, 6.167e-7
0.054, -1.265e-6, -6.507e-7, 6.145e-7
0.053, -1.265e-6, -6.503e-7, 6.148e-7
0.052, -1.265e-6, -6.485e-7, 6.167e-7
0.051, -1.262e-6, -6.473e-7, 6.148e-7
0.050, -1.262e-6, -6.485e-7, 6.136e-7
0.049, -1.261e-6, -6.461e-7, 6.151e-7
0.048, -1.258e-6, -6.439e-7, 6.139e-7
0.047, -1.259e-6, -6.442e-7, 6.148e-7
0.046, -1.256e-6, -6.409e-7, 6.148e-7
0.045, -1.256e-6, -6.427e-7, 6.136e-7
0.044, -1.254e-6, -6.418e-7, 6.124e-7
0.043, -1.251e-6, -6.375e-7, 6.130e-7
0.042, -1.249e-6, -6.366e-7, 6.124e-7
0.041, -1.250e-6, -6.388e-7, 6.112e-7
0.040, -1.247e-6, -6.351e-7, 6.118e-7
0.039, -1.244e-6, -6.333e-7, 6.109e-7
0.038, -1.244e-6, -6.351e-7, 6.093e-7
0.037, -1.241e-6, -6.302e-7, 6.106e-7
0.036, -1.238e-6, -6.299e-7, 6.081e-7
0.035, -1.235e-6, -6.281e-7, 6.072e-7
0.034, -1.237e-6, -6.278e-7, 6.087e-7
0.033, -1.233e-6, -6.253e-7, 6.078e-7
0.032, -1.233e-6, -6.268e-7, 6.063e-7
0.031, -1.229e-6, -6.229e-7, 6.063e-7
0.030, -1.228e-6, -6.226e-7, 6.054e-7
0.029, -1.225e-6, -6.232e-7, 6.017e-7
0.028, -1.223e-6, -6.201e-7, 6.029e-7
0.027, -1.221e-6, -6.186e-7, 6.023e-7
0.026, -1.222e-6, -6.207e-7, 6.008e-7
0.025, -1.218e-6, -6.174e-7, 6.011e-7
0.024, -1.212e-6, -6.137e-7, 5.981e-7
0.023, -1.214e-6, -6.159e-7, 5.977e-7
0.022, -1.213e-6, -6.140e-7, 5.990e-7
0.021, -1.211e-6, -6.137e-7, 5.971e-7
0.020, -1.210e-6, -6.134e-7, 5.962e-7
0.019, -1.208e-6, -6.107e-7, 5.977e-7
0.018, -1.206e-6, -6.088e-7, 5.968e-7
0.017, -1.204e-6, -6.098e-7, 5.938e-7
0.016, -1.201e-6, -6.067e-7, 5.947e-7
0.015, -1.196e-6, -6.055e-7, 5.907e-7
0.014, -1.200e-6, -6.082e-7, 5.916e-7
0.013, -1.198e-6, -6.049e-7, 5.929e-7
0.012, -1.191e-6, -6.018e-7, 5.889e-7
0.011, -1.194e-6, -6.043e-7, 5.895e-7
0.010, -1.189e-6, -6.009e-7, 5.880e-7
0.009, -1.187e-6, -6.000e-7, 5.871e-7
0.008, -1.186e-6, -6.003e-7, 5.852e-7
0.007, -1.183e-6, -5.976e-7, 5.852e-7
0.006, -1.182e-6, -5.976e-7, 5.843e-7
0.005, -1.181e-6, -5.976e-7, 5.834e-7
0.004, -1.178e-6, -5.945e-7, 5.834e-7
0.003, -1.176e-6, -5.948e-7, 5.810e-7
0.002, -1.175e-6, -5.942e-7, 5.804e-7
0.001, -1.169e-6, -5.899e-7, 5.791e-7
-0.000, -1.169e-6, -5.908e-7, 5.779e-7
-0.001, -1.168e-6, -5.911e-7, 5.764e-7
-0.002, -1.165e-6, -5.905e-7, 5.743e-7
-0.003, -1.162e-6, -5.884e-7, 5.739e-7
-0.004, -1.164e-6, -5.893e-7, 5.743e-7
-0.005, -1.161e-6, -5.866e-7, 5.743e-7
-0.006, -1.158e-6, -5.857e-7, 5.721e-7
-0.007, -1.157e-6, -5.860e-7, 5.712e-7
-0.008, -1.152e-6, -5.823e-7, 5.697e-7
-0.009, -1.151e-6, -5.835e-7, 5.672e-7
-0.010, -1.152e-6, -5.844e-7, 5.672e-7
-0.011, -1.149e-6, -5.820e-7, 5.666e-7
-0.012, -1.144e-6, -5.799e-7, 5.642e-7
-0.013, -1.144e-6, -5.808e-7, 5.630e-7
-0.014, -1.141e-6, -5.780e-7, 5.633e-7
-0.015, -1.138e-6, -5.780e-7, 5.599e-7
-0.016, -1.138e-6, -5.777e-7, 5.605e-7
-0.017, -1.135e-6, -5.753e-7, 5.593e-7
-0.018, -1.134e-6, -5.765e-7, 5.578e-7
-0.019, -1.133e-6, -5.756e-7, 5.575e-7
-0.020, -1.131e-6, -5.744e-7, 5.566e-7
-0.021, -1.129e-6, -5.759e-7, 5.535e-7
-0.022, -1.128e-6, -5.750e-7, 5.526e-7
-0.023, -1.123e-6, -5.719e-7, 5.514e-7
-0.024, -1.123e-6, -5.734e-7, 5.492e-7
-0.025, -1.125e-6, -5.738e-7, 5.508e-7
-0.026, -1.117e-6, -5.695e-7, 5.471e-7
-0.027, -1.115e-6, -5.695e-7, 5.453e-7
-0.028, -1.114e-6, -5.692e-7, 5.450e-7
-0.029, -1.114e-6, -5.695e-7, 5.450e-7
-0.030, -1.110e-6, -5.683e-7, 5.419e-7
-0.031, -1.111e-6, -5.683e-7, 5.431e-7
-0.032, -1.110e-6, -5.673e-7, 5.428e-7
-0.033, -1.106e-6, -5.667e-7, 5.392e-7
-0.034, -1.105e-6, -5.670e-7, 5.379e-7
-0.035, -1.105e-6, -5.664e-7, 5.382e-7
-0.036, -1.103e-6, -5.658e-7, 5.370e-7
-0.037, -1.100e-6, -5.652e-7, 5.349e-7
-0.038, -1.099e-6, -5.637e-7, 5.355e-7
-0.039, -1.094e-6, -5.625e-7, 5.312e-7
-0.040, -1.095e-6, -5.628e-7, 5.318e-7
-0.041, -1.091e-6, -5.612e-7, 5.297e-7
-0.042, -1.089e-6, -5.609e-7, 5.285e-7
-0.043, -1.088e-6, -5.622e-7, 5.263e-7
-0.044, -1.086e-6, -5.594e-7, 5.270e-7
-0.045, -1.085e-6, -5.603e-7, 5.251e-7
-0.046, -1.085e-6, -5.603e-7, 5.242e-7
-0.047, -1.082e-6, -5.591e-7, 5.230e-7
-0.048, -1.081e-6, -5.594e-7, 5.212e-7
-0.049, -1.081e-6, -5.600e-7, 5.215e-7
-0.050, -1.079e-6, -5.588e-7, 5.199e-7
-0.051, -1.077e-6, -5.579e-7, 5.190e-7
-0.052, -1.074e-6, -5.570e-7, 5.175e-7
-0.053, -1.071e-6, -5.564e-7, 5.144e-7
-0.054, -1.072e-6, -5.561e-7, 5.160e-7
-0.055, -1.072e-6, -5.576e-7, 5.141e-7
-0.056, -1.070e-6, -5.554e-7, 5.141e-7
-0.057, -1.066e-6, -5.542e-7, 5.120e-7
-0.058, -1.064e-6, -5.548e-7, 5.089e-7
-0.059, -1.063e-6, -5.533e-7, 5.102e-7
-0.060, -1.064e-6, -5.557e-7, 5.086e-7
-0.061, -1.063e-6, -5.557e-7, 5.077e-7
-0.062, -1.062e-6, -5.548e-7, 5.071e-7
-0.063, -1.058e-6, -5.533e-7, 5.044e-7
-0.064, -1.058e-6, -5.542e-7, 5.038e-7
-0.065, -1.059e-6, -5.533e-7, 5.056e-7
-0.066, -1.054e-6, -5.518e-7, 5.019e-7
-0.067, -1.055e-6, -5.539e-7, 5.007e-7
-0.068, -1.053e-6, -5.530e-7, 5.004e-7
-0.069, -1.051e-6, -5.518e-7, 4.989e-7
-0.070, -1.052e-6, -5.533e-7, 4.983e-7
-0.071, -1.050e-6, -5.512e-7, 4.989e-7
-0.072, -1.046e-6, -5.506e-7, 4.958e-7
-0.073, -1.046e-6, -5.515e-7, 4.943e-7
-0.074, -1.046e-6, -5.515e-7, 4.943e-7
-0.075, -1.043e-6, -5.506e-7, 4.922e-7
-0.076, -1.044e-6, -5.506e-7, 4.931e-7
-0.077, -1.041e-6, -5.506e-7, 4.906e-7
-0.078, -1.039e-6, -5.493e-7, 4.894e-7
-0.079, -1.039e-6, -5.496e-7, 4.894e-7
-0.080, -1.038e-6, -5.506e-7, 4.876e-7
-0.081, -1.036e-6, -5.503e-7, 4.858e-7
-0.082, -1.035e-6, -5.500e-7, 4.855e-7
-0.083, -1.034e-6, -5.493e-7, 4.842e-7
-0.084, -1.030e-6, -5.475e-7, 4.824e-7
-0.085, -1.032e-6, -5.506e-7, 4.815e-7
-0.086, -1.031e-6, -5.487e-7, 4.818e-7
-0.087, -1.028e-6, -5.481e-7, 4.797e-7
-0.088, -1.031e-6, -5.496e-7, 4.815e-7
-0.089, -1.028e-6, -5.475e-7, 4.806e-7
-0.090, -1.027e-6, -5.481e-7, 4.784e-7
-0.091, -1.027e-6, -5.500e-7, 4.769e-7
-0.092, -1.026e-6, -5.487e-7, 4.772e-7
-0.093, -1.024e-6, -5.487e-7, 4.757e-7
-0.094, -1.023e-6, -5.484e-7, 4.745e-7
-0.095, -1.023e-6, -5.475e-7, 4.757e-7
-0.096, -1.023e-6, -5.487e-7, 4.742e-7
-0.097, -1.021e-6, -5.481e-7, 4.726e-7
-0.098, -1.020e-6, -5.469e-7, 4.729e-7
-0.099, -1.017e-6, -5.469e-7, 4.705e-7
-0.100, -1.020e-6, -5.484e-7, 4.714e-7
