Feb. 28, 2018   10:43:22
Square Wave Voltammetry
File: c:\users\electrochemist\desktop\2018\28022018_cal\7_g4_a2_ph7_3.txt
Data Source:  Experiment
Instrument Model:  CHI1040A
Header: 
Note: 

Init E (V) = 0.5
Final E (V) = -0.1
Incr E (V) = 0.001
Amplitude (V) = 0.1
Frequency (Hz) = 150
Quiet Time (sec) = 0
Sensitivity (A/V) = 1e-6

Difference:

Forward:

Reverse:

Potential/V, Diff(i/A), For(i/A), Rev(i/A)

0.499, -4.657e-7, -8.946e-8, 3.762e-7
0.498, -5.365e-7, -2.085e-7, 3.280e-7
0.497, -5.240e-7, -2.140e-7, 3.100e-7
0.496, -5.148e-7, -2.185e-7, 2.963e-7
0.495, -5.102e-7, -2.213e-7, 2.889e-7
0.494, -5.020e-7, -2.201e-7, 2.819e-7
0.493, -4.986e-7, -2.213e-7, 2.773e-7
0.492, -4.968e-7, -2.237e-7, 2.731e-7
0.491, -4.925e-7, -2.225e-7, 2.700e-7
0.490, -4.898e-7, -2.240e-7, 2.657e-7
0.489, -4.904e-7, -2.265e-7, 2.639e-7
0.488, -4.886e-7, -2.268e-7, 2.618e-7
0.487, -4.837e-7, -2.262e-7, 2.575e-7
0.486, -4.825e-7, -2.265e-7, 2.560e-7
0.485, -4.825e-7, -2.274e-7, 2.551e-7
0.484, -4.779e-7, -2.253e-7, 2.526e-7
0.483, -4.794e-7, -2.277e-7, 2.517e-7
0.482, -4.791e-7, -2.283e-7, 2.508e-7
0.481, -4.764e-7, -2.283e-7, 2.480e-7
0.480, -4.770e-7, -2.289e-7, 2.480e-7
0.479, -4.770e-7, -2.289e-7, 2.480e-7
0.478, -4.730e-7, -2.289e-7, 2.441e-7
0.477, -4.742e-7, -2.298e-7, 2.444e-7
0.476, -4.745e-7, -2.292e-7, 2.453e-7
0.475, -4.745e-7, -2.314e-7, 2.432e-7
0.474, -4.733e-7, -2.314e-7, 2.419e-7
0.473, -4.721e-7, -2.308e-7, 2.413e-7
0.472, -4.702e-7, -2.308e-7, 2.395e-7
0.471, -4.721e-7, -2.317e-7, 2.404e-7
0.470, -4.715e-7, -2.311e-7, 2.404e-7
0.469, -4.696e-7, -2.308e-7, 2.389e-7
0.468, -4.699e-7, -2.323e-7, 2.377e-7
0.467, -4.702e-7, -2.323e-7, 2.380e-7
0.466, -4.696e-7, -2.329e-7, 2.368e-7
0.465, -4.702e-7, -2.338e-7, 2.364e-7
0.464, -4.681e-7, -2.329e-7, 2.352e-7
0.463, -4.669e-7, -2.323e-7, 2.346e-7
0.462, -4.699e-7, -2.338e-7, 2.361e-7
0.461, -4.690e-7, -2.332e-7, 2.358e-7
0.460, -4.675e-7, -2.344e-7, 2.331e-7
0.459, -4.681e-7, -2.341e-7, 2.340e-7
0.458, -4.687e-7, -2.344e-7, 2.343e-7
0.457, -4.654e-7, -2.341e-7, 2.313e-7
0.456, -4.681e-7, -2.353e-7, 2.328e-7
0.455, -4.684e-7, -2.359e-7, 2.325e-7
0.454, -4.687e-7, -2.369e-7, 2.319e-7
0.453, -4.699e-7, -2.372e-7, 2.328e-7
0.452, -4.709e-7, -2.369e-7, 2.340e-7
0.451, -4.693e-7, -2.375e-7, 2.319e-7
0.450, -4.675e-7, -2.375e-7, 2.300e-7
0.449, -4.693e-7, -2.375e-7, 2.319e-7
0.448, -4.672e-7, -2.372e-7, 2.300e-7
0.447, -4.699e-7, -2.387e-7, 2.313e-7
0.446, -4.702e-7, -2.384e-7, 2.319e-7
0.445, -4.693e-7, -2.387e-7, 2.306e-7
0.444, -4.706e-7, -2.402e-7, 2.303e-7
0.443, -4.718e-7, -2.402e-7, 2.316e-7
0.442, -4.706e-7, -2.399e-7, 2.306e-7
0.441, -4.721e-7, -2.414e-7, 2.306e-7
0.440, -4.712e-7, -2.408e-7, 2.303e-7
0.439, -4.696e-7, -2.399e-7, 2.297e-7
0.438, -4.709e-7, -2.423e-7, 2.285e-7
0.437, -4.724e-7, -2.411e-7, 2.313e-7
0.436, -4.724e-7, -2.423e-7, 2.300e-7
0.435, -4.709e-7, -2.423e-7, 2.285e-7
0.434, -4.712e-7, -2.420e-7, 2.291e-7
0.433, -4.733e-7, -2.439e-7, 2.294e-7
0.432, -4.718e-7, -2.433e-7, 2.285e-7
0.431, -4.724e-7, -2.423e-7, 2.300e-7
0.430, -4.721e-7, -2.433e-7, 2.288e-7
0.429, -4.757e-7, -2.463e-7, 2.294e-7
0.428, -4.745e-7, -2.448e-7, 2.297e-7
0.427, -4.754e-7, -2.463e-7, 2.291e-7
0.426, -4.760e-7, -2.463e-7, 2.297e-7
0.425, -4.757e-7, -2.460e-7, 2.297e-7
0.424, -4.754e-7, -2.472e-7, 2.282e-7
0.423, -4.773e-7, -2.481e-7, 2.291e-7
0.422, -4.770e-7, -2.472e-7, 2.297e-7
0.421, -4.770e-7, -2.481e-7, 2.288e-7
0.420, -4.773e-7, -2.484e-7, 2.288e-7
0.419, -4.779e-7, -2.488e-7, 2.291e-7
0.418, -4.785e-7, -2.488e-7, 2.297e-7
0.417, -4.800e-7, -2.512e-7, 2.288e-7
0.416, -4.806e-7, -2.497e-7, 2.310e-7
0.415, -4.797e-7, -2.506e-7, 2.291e-7
0.414, -4.800e-7, -2.512e-7, 2.288e-7
0.413, -4.825e-7, -2.518e-7, 2.306e-7
0.412, -4.828e-7, -2.521e-7, 2.306e-7
0.411, -4.831e-7, -2.530e-7, 2.300e-7
0.410, -4.837e-7, -2.524e-7, 2.313e-7
0.409, -4.840e-7, -2.546e-7, 2.294e-7
0.408, -4.852e-7, -2.542e-7, 2.310e-7
0.407, -4.828e-7, -2.542e-7, 2.285e-7
0.406, -4.849e-7, -2.555e-7, 2.294e-7
0.405, -4.858e-7, -2.552e-7, 2.306e-7
0.404, -4.861e-7, -2.561e-7, 2.300e-7
0.403, -4.855e-7, -2.558e-7, 2.297e-7
0.402, -4.876e-7, -2.567e-7, 2.310e-7
0.401, -4.873e-7, -2.567e-7, 2.306e-7
0.400, -4.910e-7, -2.594e-7, 2.316e-7
0.399, -4.907e-7, -2.597e-7, 2.310e-7
0.398, -4.904e-7, -2.585e-7, 2.319e-7
0.397, -4.895e-7, -2.607e-7, 2.288e-7
0.396, -4.925e-7, -2.622e-7, 2.303e-7
0.395, -4.925e-7, -2.604e-7, 2.322e-7
0.394, -4.928e-7, -2.613e-7, 2.316e-7
0.393, -4.931e-7, -2.616e-7, 2.316e-7
0.392, -4.941e-7, -2.619e-7, 2.322e-7
0.391, -4.950e-7, -2.649e-7, 2.300e-7
0.390, -4.965e-7, -2.640e-7, 2.325e-7
0.389, -4.956e-7, -2.628e-7, 2.328e-7
0.388, -4.956e-7, -2.646e-7, 2.310e-7
0.387, -4.986e-7, -2.665e-7, 2.322e-7
0.386, -4.983e-7, -2.665e-7, 2.319e-7
0.385, -5.005e-7, -2.677e-7, 2.328e-7
0.384, -5.017e-7, -2.680e-7, 2.337e-7
0.383, -5.005e-7, -2.668e-7, 2.337e-7
0.382, -5.026e-7, -2.698e-7, 2.328e-7
0.381, -5.038e-7, -2.698e-7, 2.340e-7
0.380, -5.050e-7, -2.707e-7, 2.343e-7
0.379, -5.066e-7, -2.713e-7, 2.352e-7
0.378, -5.078e-7, -2.723e-7, 2.355e-7
0.377, -5.047e-7, -2.713e-7, 2.334e-7
0.376, -5.072e-7, -2.726e-7, 2.346e-7
0.375, -5.090e-7, -2.738e-7, 2.352e-7
0.374, -5.114e-7, -2.750e-7, 2.364e-7
0.373, -5.108e-7, -2.753e-7, 2.355e-7
0.372, -5.130e-7, -2.765e-7, 2.364e-7
0.371, -5.121e-7, -2.765e-7, 2.355e-7
0.370, -5.154e-7, -2.787e-7, 2.368e-7
0.369, -5.139e-7, -2.774e-7, 2.364e-7
0.368, -5.142e-7, -2.768e-7, 2.374e-7
0.367, -5.179e-7, -2.817e-7, 2.361e-7
0.366, -5.172e-7, -2.793e-7, 2.380e-7
0.365, -5.200e-7, -2.820e-7, 2.380e-7
0.364, -5.206e-7, -2.835e-7, 2.371e-7
0.363, -5.197e-7, -2.826e-7, 2.371e-7
0.362, -5.221e-7, -2.842e-7, 2.380e-7
0.361, -5.240e-7, -2.857e-7, 2.383e-7
0.360, -5.249e-7, -2.866e-7, 2.383e-7
0.359, -5.249e-7, -2.860e-7, 2.389e-7
0.358, -5.282e-7, -2.893e-7, 2.389e-7
0.357, -5.273e-7, -2.872e-7, 2.401e-7
0.356, -5.288e-7, -2.884e-7, 2.404e-7
0.355, -5.313e-7, -2.909e-7, 2.404e-7
0.354, -5.319e-7, -2.909e-7, 2.410e-7
0.353, -5.316e-7, -2.906e-7, 2.410e-7
0.352, -5.337e-7, -2.930e-7, 2.407e-7
0.351, -5.352e-7, -2.924e-7, 2.429e-7
0.350, -5.356e-7, -2.942e-7, 2.413e-7
0.349, -5.377e-7, -2.951e-7, 2.425e-7
0.348, -5.380e-7, -2.954e-7, 2.425e-7
0.347, -5.401e-7, -2.979e-7, 2.422e-7
0.346, -5.414e-7, -2.982e-7, 2.432e-7
0.345, -5.432e-7, -2.982e-7, 2.450e-7
0.344, -5.435e-7, -2.994e-7, 2.441e-7
0.343, -5.447e-7, -3.012e-7, 2.435e-7
0.342, -5.475e-7, -3.009e-7, 2.465e-7
0.341, -5.484e-7, -3.028e-7, 2.456e-7
0.340, -5.502e-7, -3.046e-7, 2.456e-7
0.339, -5.499e-7, -3.040e-7, 2.459e-7
0.338, -5.499e-7, -3.049e-7, 2.450e-7
0.337, -5.533e-7, -3.073e-7, 2.459e-7
0.336, -5.569e-7, -3.077e-7, 2.493e-7
0.335, -5.563e-7, -3.086e-7, 2.477e-7
0.334, -5.575e-7, -3.101e-7, 2.474e-7
0.333, -5.594e-7, -3.104e-7, 2.490e-7
0.332, -5.597e-7, -3.101e-7, 2.496e-7
0.331, -5.642e-7, -3.138e-7, 2.505e-7
0.330, -5.633e-7, -3.131e-7, 2.502e-7
0.329, -5.639e-7, -3.141e-7, 2.499e-7
0.328, -5.679e-7, -3.174e-7, 2.505e-7
0.327, -5.685e-7, -3.162e-7, 2.523e-7
0.326, -5.694e-7, -3.177e-7, 2.517e-7
0.325, -5.734e-7, -3.214e-7, 2.520e-7
0.324, -5.728e-7, -3.196e-7, 2.532e-7
0.323, -5.740e-7, -3.211e-7, 2.529e-7
0.322, -5.780e-7, -3.241e-7, 2.538e-7
0.321, -5.780e-7, -3.229e-7, 2.551e-7
0.320, -5.777e-7, -3.241e-7, 2.535e-7
0.319, -5.832e-7, -3.278e-7, 2.554e-7
0.318, -5.838e-7, -3.263e-7, 2.575e-7
0.317, -5.810e-7, -3.266e-7, 2.545e-7
0.316, -5.871e-7, -3.299e-7, 2.572e-7
0.315, -5.883e-7, -3.302e-7, 2.581e-7
0.314, -5.890e-7, -3.315e-7, 2.575e-7
0.313, -5.935e-7, -3.351e-7, 2.584e-7
0.312, -5.935e-7, -3.342e-7, 2.593e-7
0.311, -5.932e-7, -3.345e-7, 2.587e-7
0.310, -5.957e-7, -3.366e-7, 2.590e-7
0.309, -5.969e-7, -3.366e-7, 2.602e-7
0.308, -5.975e-7, -3.373e-7, 2.602e-7
0.307, -6.039e-7, -3.427e-7, 2.612e-7
0.306, -6.042e-7, -3.400e-7, 2.642e-7
0.305, -6.018e-7, -3.409e-7, 2.609e-7
0.304, -6.067e-7, -3.440e-7, 2.627e-7
0.303, -6.079e-7, -3.437e-7, 2.642e-7
0.302, -6.070e-7, -3.446e-7, 2.624e-7
0.301, -6.121e-7, -3.476e-7, 2.645e-7
0.300, -6.131e-7, -3.464e-7, 2.667e-7
0.299, -6.140e-7, -3.498e-7, 2.642e-7
0.298, -6.167e-7, -3.510e-7, 2.657e-7
0.297, -6.189e-7, -3.510e-7, 2.679e-7
0.296, -6.192e-7, -3.528e-7, 2.664e-7
0.295, -6.244e-7, -3.565e-7, 2.679e-7
0.294, -6.253e-7, -3.540e-7, 2.712e-7
0.293, -6.262e-7, -3.556e-7, 2.706e-7
0.292, -6.311e-7, -3.589e-7, 2.721e-7
0.291, -6.295e-7, -3.580e-7, 2.715e-7
0.290, -6.298e-7, -3.598e-7, 2.700e-7
0.289, -6.366e-7, -3.650e-7, 2.715e-7
0.288, -6.356e-7, -3.614e-7, 2.743e-7
0.287, -6.356e-7, -3.629e-7, 2.728e-7
0.286, -6.402e-7, -3.669e-7, 2.734e-7
0.285, -6.408e-7, -3.650e-7, 2.758e-7
0.284, -6.405e-7, -3.669e-7, 2.737e-7
0.283, -6.475e-7, -3.717e-7, 2.758e-7
0.282, -6.488e-7, -3.699e-7, 2.789e-7
0.281, -6.472e-7, -3.717e-7, 2.755e-7
0.280, -6.500e-7, -3.727e-7, 2.773e-7
0.279, -6.536e-7, -3.736e-7, 2.801e-7
0.278, -6.543e-7, -3.763e-7, 2.779e-7
0.277, -6.579e-7, -3.775e-7, 2.804e-7
0.276, -6.601e-7, -3.781e-7, 2.819e-7
0.275, -6.607e-7, -3.794e-7, 2.813e-7
0.274, -6.640e-7, -3.824e-7, 2.816e-7
0.273, -6.652e-7, -3.812e-7, 2.841e-7
0.272, -6.652e-7, -3.830e-7, 2.822e-7
0.271, -6.701e-7, -3.867e-7, 2.834e-7
0.270, -6.738e-7, -3.867e-7, 2.871e-7
0.269, -6.735e-7, -3.885e-7, 2.850e-7
0.268, -6.768e-7, -3.910e-7, 2.859e-7
0.267, -6.781e-7, -3.888e-7, 2.892e-7
0.266, -6.796e-7, -3.916e-7, 2.880e-7
0.265, -6.839e-7, -3.955e-7, 2.883e-7
0.264, -6.848e-7, -3.937e-7, 2.911e-7
0.263, -6.854e-7, -3.952e-7, 2.902e-7
0.262, -6.903e-7, -3.992e-7, 2.911e-7
0.261, -6.915e-7, -3.971e-7, 2.944e-7
0.260, -6.918e-7, -4.004e-7, 2.914e-7
0.259, -6.982e-7, -4.038e-7, 2.944e-7
0.258, -6.976e-7, -4.013e-7, 2.963e-7
0.257, -6.985e-7, -4.044e-7, 2.941e-7
0.256, -7.013e-7, -4.062e-7, 2.950e-7
0.255, -7.025e-7, -4.053e-7, 2.972e-7
0.254, -7.031e-7, -4.071e-7, 2.960e-7
0.253, -7.095e-7, -4.102e-7, 2.993e-7
0.252, -7.113e-7, -4.093e-7, 3.021e-7
0.251, -7.095e-7, -4.114e-7, 2.981e-7
0.250, -7.180e-7, -4.160e-7, 3.021e-7
0.249, -7.196e-7, -4.145e-7, 3.051e-7
0.248, -7.186e-7, -4.157e-7, 3.030e-7
0.247, -7.238e-7, -4.196e-7, 3.042e-7
0.246, -7.248e-7, -4.193e-7, 3.054e-7
0.245, -7.260e-7, -4.212e-7, 3.048e-7
0.244, -7.321e-7, -4.242e-7, 3.079e-7
0.243, -7.318e-7, -4.224e-7, 3.094e-7
0.242, -7.336e-7, -4.248e-7, 3.088e-7
0.241, -7.379e-7, -4.291e-7, 3.088e-7
0.240, -7.367e-7, -4.251e-7, 3.115e-7
0.239, -7.367e-7, -4.276e-7, 3.091e-7
0.238, -7.425e-7, -4.303e-7, 3.121e-7
0.237, -7.428e-7, -4.291e-7, 3.137e-7
0.236, -7.434e-7, -4.300e-7, 3.133e-7
0.235, -7.495e-7, -4.352e-7, 3.143e-7
0.234, -7.510e-7, -4.334e-7, 3.176e-7
0.233, -7.504e-7, -4.349e-7, 3.155e-7
0.232, -7.559e-7, -4.386e-7, 3.173e-7
0.231, -7.580e-7, -4.373e-7, 3.207e-7
0.230, -7.592e-7, -4.407e-7, 3.185e-7
0.229, -7.641e-7, -4.428e-7, 3.213e-7
0.228, -7.641e-7, -4.404e-7, 3.237e-7
0.227, -7.650e-7, -4.438e-7, 3.213e-7
0.226, -7.699e-7, -4.468e-7, 3.231e-7
0.225, -7.711e-7, -4.450e-7, 3.262e-7
0.224, -7.705e-7, -4.471e-7, 3.234e-7
0.223, -7.760e-7, -4.492e-7, 3.268e-7
0.222, -7.775e-7, -4.483e-7, 3.292e-7
0.221, -7.788e-7, -4.511e-7, 3.277e-7
0.220, -7.830e-7, -4.526e-7, 3.304e-7
0.219, -7.840e-7, -4.532e-7, 3.307e-7
0.218, -7.846e-7, -4.547e-7, 3.298e-7
0.217, -7.901e-7, -4.575e-7, 3.326e-7
0.216, -7.913e-7, -4.553e-7, 3.359e-7
0.215, -7.919e-7, -4.587e-7, 3.332e-7
0.214, -7.974e-7, -4.615e-7, 3.359e-7
0.213, -7.986e-7, -4.602e-7, 3.384e-7
0.212, -7.962e-7, -4.605e-7, 3.356e-7
0.211, -8.013e-7, -4.642e-7, 3.371e-7
0.210, -8.017e-7, -4.611e-7, 3.405e-7
0.209, -8.038e-7, -4.636e-7, 3.402e-7
0.208, -8.074e-7, -4.672e-7, 3.402e-7
0.207, -8.090e-7, -4.660e-7, 3.429e-7
0.206, -8.105e-7, -4.682e-7, 3.423e-7
0.205, -8.145e-7, -4.697e-7, 3.448e-7
0.204, -8.160e-7, -4.694e-7, 3.466e-7
0.203, -8.166e-7, -4.703e-7, 3.463e-7
0.202, -8.187e-7, -4.724e-7, 3.463e-7
0.201, -8.197e-7, -4.718e-7, 3.478e-7
0.200, -8.242e-7, -4.755e-7, 3.487e-7
0.199, -8.273e-7, -4.755e-7, 3.518e-7
0.198, -8.264e-7, -4.752e-7, 3.512e-7
0.197, -8.291e-7, -4.767e-7, 3.524e-7
0.196, -8.331e-7, -4.798e-7, 3.533e-7
0.195, -8.340e-7, -4.776e-7, 3.564e-7
0.194, -8.352e-7, -4.795e-7, 3.558e-7
0.193, -8.389e-7, -4.825e-7, 3.564e-7
0.192, -8.395e-7, -4.807e-7, 3.588e-7
0.191, -8.416e-7, -4.831e-7, 3.585e-7
0.190, -8.438e-7, -4.840e-7, 3.597e-7
0.189, -8.459e-7, -4.837e-7, 3.622e-7
0.188, -8.444e-7, -4.853e-7, 3.591e-7
0.187, -8.486e-7, -4.862e-7, 3.625e-7
0.186, -8.477e-7, -4.843e-7, 3.634e-7
0.185, -8.523e-7, -4.871e-7, 3.652e-7
0.184, -8.566e-7, -4.895e-7, 3.671e-7
0.183, -8.563e-7, -4.880e-7, 3.683e-7
0.182, -8.581e-7, -4.907e-7, 3.674e-7
0.181, -8.602e-7, -4.907e-7, 3.695e-7
0.180, -8.605e-7, -4.895e-7, 3.710e-7
0.179, -8.609e-7, -4.901e-7, 3.707e-7
0.178, -8.654e-7, -4.935e-7, 3.719e-7
0.177, -8.663e-7, -4.911e-7, 3.753e-7
0.176, -8.679e-7, -4.947e-7, 3.732e-7
0.175, -8.715e-7, -4.950e-7, 3.765e-7
0.174, -8.697e-7, -4.932e-7, 3.765e-7
0.173, -8.731e-7, -4.972e-7, 3.759e-7
0.172, -8.743e-7, -4.969e-7, 3.774e-7
0.171, -8.755e-7, -4.950e-7, 3.805e-7
0.170, -8.752e-7, -4.956e-7, 3.796e-7
0.169, -8.798e-7, -4.972e-7, 3.826e-7
0.168, -8.782e-7, -4.969e-7, 3.814e-7
0.167, -8.807e-7, -4.978e-7, 3.829e-7
0.166, -8.834e-7, -4.984e-7, 3.851e-7
0.165, -8.828e-7, -4.978e-7, 3.851e-7
0.164, -8.825e-7, -4.990e-7, 3.835e-7
0.163, -8.877e-7, -5.005e-7, 3.872e-7
0.162, -8.877e-7, -4.984e-7, 3.893e-7
0.161, -8.889e-7, -5.002e-7, 3.887e-7
0.160, -8.892e-7, -4.996e-7, 3.896e-7
0.159, -8.920e-7, -5.017e-7, 3.902e-7
0.158, -8.938e-7, -5.017e-7, 3.921e-7
0.157, -8.941e-7, -5.014e-7, 3.927e-7
0.156, -8.932e-7, -4.990e-7, 3.942e-7
0.155, -8.959e-7, -5.020e-7, 3.939e-7
0.154, -8.978e-7, -5.020e-7, 3.957e-7
0.153, -8.987e-7, -5.005e-7, 3.982e-7
0.152, -8.990e-7, -5.023e-7, 3.967e-7
0.151, -9.002e-7, -5.014e-7, 3.988e-7
0.150, -9.008e-7, -5.011e-7, 3.997e-7
0.149, -9.027e-7, -5.033e-7, 3.994e-7
0.148, -9.045e-7, -5.020e-7, 4.025e-7
0.147, -9.042e-7, -5.017e-7, 4.025e-7
0.146, -9.051e-7, -5.039e-7, 4.012e-7
0.145, -9.063e-7, -5.030e-7, 4.034e-7
0.144, -9.075e-7, -5.017e-7, 4.058e-7
0.143, -9.078e-7, -5.026e-7, 4.052e-7
0.142, -9.112e-7, -5.033e-7, 4.079e-7
0.141, -9.100e-7, -5.014e-7, 4.086e-7
0.140, -9.109e-7, -5.026e-7, 4.082e-7
0.139, -9.115e-7, -5.023e-7, 4.092e-7
0.138, -9.094e-7, -4.999e-7, 4.095e-7
0.137, -9.121e-7, -5.017e-7, 4.104e-7
0.136, -9.133e-7, -5.020e-7, 4.113e-7
0.135, -9.143e-7, -5.014e-7, 4.128e-7
0.134, -9.139e-7, -5.017e-7, 4.122e-7
0.133, -9.176e-7, -5.026e-7, 4.150e-7
0.132, -9.143e-7, -4.993e-7, 4.150e-7
0.131, -9.152e-7, -4.999e-7, 4.153e-7
0.130, -9.152e-7, -5.002e-7, 4.150e-7
0.129, -9.161e-7, -4.990e-7, 4.171e-7
0.128, -9.176e-7, -5.002e-7, 4.174e-7
0.127, -9.170e-7, -4.987e-7, 4.183e-7
0.126, -9.173e-7, -4.975e-7, 4.198e-7
0.125, -9.182e-7, -4.981e-7, 4.201e-7
0.124, -9.179e-7, -4.972e-7, 4.208e-7
0.123, -9.182e-7, -4.959e-7, 4.223e-7
0.122, -9.191e-7, -4.978e-7, 4.214e-7
0.121, -9.185e-7, -4.956e-7, 4.229e-7
0.120, -9.176e-7, -4.941e-7, 4.235e-7
0.119, -9.197e-7, -4.965e-7, 4.232e-7
0.118, -9.194e-7, -4.947e-7, 4.247e-7
0.117, -9.194e-7, -4.929e-7, 4.266e-7
0.116, -9.182e-7, -4.938e-7, 4.244e-7
0.115, -9.207e-7, -4.938e-7, 4.269e-7
0.114, -9.188e-7, -4.917e-7, 4.272e-7
0.113, -9.219e-7, -4.941e-7, 4.278e-7
0.112, -9.213e-7, -4.914e-7, 4.299e-7
0.111, -9.176e-7, -4.889e-7, 4.287e-7
0.110, -9.182e-7, -4.901e-7, 4.281e-7
0.109, -9.191e-7, -4.886e-7, 4.305e-7
0.108, -9.194e-7, -4.886e-7, 4.308e-7
0.107, -9.182e-7, -4.883e-7, 4.299e-7
0.106, -9.210e-7, -4.880e-7, 4.330e-7
0.105, -9.188e-7, -4.865e-7, 4.324e-7
0.104, -9.185e-7, -4.862e-7, 4.324e-7
0.103, -9.191e-7, -4.859e-7, 4.333e-7
0.102, -9.173e-7, -4.834e-7, 4.339e-7
0.101, -9.167e-7, -4.831e-7, 4.336e-7
0.100, -9.167e-7, -4.822e-7, 4.345e-7
0.099, -9.161e-7, -4.825e-7, 4.336e-7
0.098, -9.161e-7, -4.819e-7, 4.342e-7
0.097, -9.161e-7, -4.810e-7, 4.351e-7
0.096, -9.155e-7, -4.788e-7, 4.366e-7
0.095, -9.143e-7, -4.795e-7, 4.348e-7
0.094, -9.155e-7, -4.782e-7, 4.372e-7
0.093, -9.112e-7, -4.755e-7, 4.357e-7
0.092, -9.127e-7, -4.755e-7, 4.372e-7
0.091, -9.130e-7, -4.770e-7, 4.360e-7
0.090, -9.075e-7, -4.706e-7, 4.369e-7
0.089, -9.097e-7, -4.730e-7, 4.366e-7
0.088, -9.112e-7, -4.724e-7, 4.388e-7
0.087, -9.078e-7, -4.694e-7, 4.385e-7
0.086, -9.072e-7, -4.688e-7, 4.385e-7
0.085, -9.085e-7, -4.700e-7, 4.385e-7
0.084, -9.072e-7, -4.673e-7, 4.400e-7
0.083, -9.066e-7, -4.682e-7, 4.385e-7
0.082, -9.057e-7, -4.660e-7, 4.397e-7
0.081, -9.039e-7, -4.642e-7, 4.397e-7
0.080, -9.024e-7, -4.642e-7, 4.382e-7
0.079, -9.033e-7, -4.633e-7, 4.400e-7
0.078, -9.014e-7, -4.621e-7, 4.394e-7
0.077, -9.024e-7, -4.621e-7, 4.403e-7
0.076, -8.999e-7, -4.593e-7, 4.406e-7
0.075, -8.987e-7, -4.578e-7, 4.409e-7
0.074, -8.993e-7, -4.587e-7, 4.406e-7
0.073, -8.966e-7, -4.566e-7, 4.400e-7
0.072, -8.944e-7, -4.550e-7, 4.394e-7
0.071, -8.956e-7, -4.544e-7, 4.412e-7
0.070, -8.938e-7, -4.541e-7, 4.397e-7
0.069, -8.917e-7, -4.511e-7, 4.406e-7
0.068, -8.908e-7, -4.514e-7, 4.394e-7
0.067, -8.892e-7, -4.508e-7, 4.385e-7
0.066, -8.892e-7, -4.486e-7, 4.406e-7
0.065, -8.889e-7, -4.489e-7, 4.400e-7
0.064, -8.862e-7, -4.459e-7, 4.403e-7
0.063, -8.850e-7, -4.450e-7, 4.400e-7
0.062, -8.840e-7, -4.450e-7, 4.391e-7
0.061, -8.807e-7, -4.428e-7, 4.378e-7
0.060, -8.807e-7, -4.428e-7, 4.378e-7
0.059, -8.779e-7, -4.389e-7, 4.391e-7
0.058, -8.764e-7, -4.386e-7, 4.378e-7
0.057, -8.764e-7, -4.380e-7, 4.385e-7
0.056, -8.749e-7, -4.373e-7, 4.375e-7
0.055, -8.755e-7, -4.370e-7, 4.385e-7
0.054, -8.728e-7, -4.349e-7, 4.378e-7
0.053, -8.724e-7, -4.352e-7, 4.372e-7
0.052, -8.706e-7, -4.334e-7, 4.372e-7
0.051, -8.673e-7, -4.306e-7, 4.366e-7
0.050, -8.657e-7, -4.303e-7, 4.354e-7
0.049, -8.642e-7, -4.282e-7, 4.360e-7
0.048, -8.627e-7, -4.285e-7, 4.342e-7
0.047, -8.618e-7, -4.276e-7, 4.342e-7
0.046, -8.612e-7, -4.264e-7, 4.348e-7
0.045, -8.575e-7, -4.239e-7, 4.336e-7
0.044, -8.575e-7, -4.239e-7, 4.336e-7
0.043, -8.575e-7, -4.224e-7, 4.351e-7
0.042, -8.541e-7, -4.221e-7, 4.320e-7
0.041, -8.535e-7, -4.200e-7, 4.336e-7
0.040, -8.514e-7, -4.190e-7, 4.324e-7
0.039, -8.526e-7, -4.196e-7, 4.330e-7
0.038, -8.477e-7, -4.163e-7, 4.314e-7
0.037, -8.474e-7, -4.160e-7, 4.314e-7
0.036, -8.441e-7, -4.138e-7, 4.302e-7
0.035, -8.435e-7, -4.135e-7, 4.299e-7
0.034, -8.407e-7, -4.120e-7, 4.287e-7
0.033, -8.392e-7, -4.108e-7, 4.284e-7
0.032, -8.383e-7, -4.114e-7, 4.269e-7
0.031, -8.358e-7, -4.081e-7, 4.278e-7
0.030, -8.343e-7, -4.077e-7, 4.266e-7
0.029, -8.349e-7, -4.068e-7, 4.281e-7
0.028, -8.313e-7, -4.050e-7, 4.263e-7
0.027, -8.279e-7, -4.041e-7, 4.238e-7
0.026, -8.303e-7, -4.035e-7, 4.269e-7
0.025, -8.261e-7, -4.023e-7, 4.238e-7
0.024, -8.236e-7, -4.007e-7, 4.229e-7
0.023, -8.236e-7, -4.007e-7, 4.229e-7
0.022, -8.212e-7, -3.986e-7, 4.226e-7
0.021, -8.197e-7, -3.980e-7, 4.217e-7
0.020, -8.166e-7, -3.977e-7, 4.189e-7
0.019, -8.148e-7, -3.955e-7, 4.192e-7
0.018, -8.136e-7, -3.958e-7, 4.177e-7
0.017, -8.139e-7, -3.949e-7, 4.189e-7
0.016, -8.096e-7, -3.925e-7, 4.171e-7
0.015, -8.065e-7, -3.916e-7, 4.150e-7
0.014, -8.071e-7, -3.910e-7, 4.162e-7
0.013, -8.059e-7, -3.897e-7, 4.162e-7
0.012, -8.020e-7, -3.885e-7, 4.134e-7
0.011, -8.004e-7, -3.876e-7, 4.128e-7
0.010, -7.977e-7, -3.864e-7, 4.113e-7
0.009, -7.962e-7, -3.846e-7, 4.116e-7
0.008, -7.962e-7, -3.855e-7, 4.107e-7
0.007, -7.937e-7, -3.833e-7, 4.104e-7
0.006, -7.901e-7, -3.830e-7, 4.070e-7
0.005, -7.913e-7, -3.827e-7, 4.086e-7
0.004, -7.888e-7, -3.809e-7, 4.079e-7
0.003, -7.852e-7, -3.800e-7, 4.052e-7
0.002, -7.861e-7, -3.803e-7, 4.058e-7
0.001, -7.827e-7, -3.772e-7, 4.055e-7
-0.000, -7.791e-7, -3.772e-7, 4.018e-7
-0.001, -7.815e-7, -3.769e-7, 4.046e-7
-0.002, -7.769e-7, -3.754e-7, 4.015e-7
-0.003, -7.763e-7, -3.751e-7, 4.012e-7
-0.004, -7.757e-7, -3.748e-7, 4.009e-7
-0.005, -7.739e-7, -3.736e-7, 4.003e-7
-0.006, -7.696e-7, -3.723e-7, 3.973e-7
-0.007, -7.690e-7, -3.717e-7, 3.973e-7
-0.008, -7.675e-7, -3.702e-7, 3.973e-7
-0.009, -7.666e-7, -3.711e-7, 3.954e-7
-0.010, -7.644e-7, -3.687e-7, 3.957e-7
-0.011, -7.614e-7, -3.672e-7, 3.942e-7
-0.012, -7.623e-7, -3.696e-7, 3.927e-7
-0.013, -7.598e-7, -3.678e-7, 3.921e-7
-0.014, -7.577e-7, -3.659e-7, 3.918e-7
-0.015, -7.553e-7, -3.659e-7, 3.893e-7
-0.016, -7.531e-7, -3.635e-7, 3.896e-7
-0.017, -7.525e-7, -3.629e-7, 3.896e-7
-0.018, -7.513e-7, -3.644e-7, 3.869e-7
-0.019, -7.492e-7, -3.623e-7, 3.869e-7
-0.020, -7.470e-7, -3.614e-7, 3.857e-7
-0.021, -7.452e-7, -3.620e-7, 3.832e-7
-0.022, -7.431e-7, -3.595e-7, 3.835e-7
-0.023, -7.409e-7, -3.586e-7, 3.823e-7
-0.024, -7.376e-7, -3.580e-7, 3.796e-7
-0.025, -7.409e-7, -3.589e-7, 3.820e-7
-0.026, -7.370e-7, -3.577e-7, 3.793e-7
-0.027, -7.345e-7, -3.574e-7, 3.771e-7
-0.028, -7.345e-7, -3.577e-7, 3.768e-7
-0.029, -7.318e-7, -3.553e-7, 3.765e-7
-0.030, -7.305e-7, -3.565e-7, 3.741e-7
-0.031, -7.284e-7, -3.528e-7, 3.756e-7
-0.032, -7.251e-7, -3.522e-7, 3.728e-7
-0.033, -7.266e-7, -3.537e-7, 3.728e-7
-0.034, -7.238e-7, -3.525e-7, 3.713e-7
-0.035, -7.211e-7, -3.507e-7, 3.704e-7
-0.036, -7.202e-7, -3.513e-7, 3.689e-7
-0.037, -7.202e-7, -3.510e-7, 3.692e-7
-0.038, -7.168e-7, -3.495e-7, 3.674e-7
-0.039, -7.159e-7, -3.504e-7, 3.655e-7
-0.040, -7.162e-7, -3.489e-7, 3.674e-7
-0.041, -7.141e-7, -3.473e-7, 3.667e-7
-0.042, -7.122e-7, -3.489e-7, 3.634e-7
-0.043, -7.110e-7, -3.479e-7, 3.631e-7
-0.044, -7.101e-7, -3.473e-7, 3.628e-7
-0.045, -7.071e-7, -3.464e-7, 3.606e-7
-0.046, -7.074e-7, -3.455e-7, 3.619e-7
-0.047, -7.067e-7, -3.458e-7, 3.609e-7
-0.048, -7.037e-7, -3.464e-7, 3.573e-7
-0.049, -7.013e-7, -3.440e-7, 3.573e-7
-0.050, -6.997e-7, -3.431e-7, 3.567e-7
-0.051, -6.958e-7, -3.421e-7, 3.536e-7
-0.052, -6.967e-7, -3.421e-7, 3.545e-7
-0.053, -6.942e-7, -3.418e-7, 3.524e-7
-0.054, -6.942e-7, -3.421e-7, 3.521e-7
-0.055, -6.927e-7, -3.406e-7, 3.521e-7
-0.056, -6.912e-7, -3.400e-7, 3.512e-7
-0.057, -6.900e-7, -3.412e-7, 3.487e-7
-0.058, -6.900e-7, -3.403e-7, 3.497e-7
-0.059, -6.854e-7, -3.379e-7, 3.475e-7
-0.060, -6.866e-7, -3.397e-7, 3.469e-7
-0.061, -6.839e-7, -3.382e-7, 3.457e-7
-0.062, -6.832e-7, -3.388e-7, 3.445e-7
-0.063, -6.832e-7, -3.382e-7, 3.451e-7
-0.064, -6.826e-7, -3.373e-7, 3.454e-7
-0.065, -6.790e-7, -3.373e-7, 3.417e-7
-0.066, -6.787e-7, -3.376e-7, 3.411e-7
-0.067, -6.765e-7, -3.351e-7, 3.414e-7
-0.068, -6.753e-7, -3.348e-7, 3.405e-7
-0.069, -6.756e-7, -3.360e-7, 3.396e-7
-0.070, -6.750e-7, -3.354e-7, 3.396e-7
-0.071, -6.713e-7, -3.336e-7, 3.378e-7
-0.072, -6.713e-7, -3.345e-7, 3.368e-7
-0.073, -6.674e-7, -3.324e-7, 3.350e-7
-0.074, -6.680e-7, -3.336e-7, 3.344e-7
-0.075, -6.695e-7, -3.339e-7, 3.356e-7
-0.076, -6.665e-7, -3.315e-7, 3.350e-7
-0.077, -6.640e-7, -3.315e-7, 3.326e-7
-0.078, -6.631e-7, -3.315e-7, 3.317e-7
-0.079, -6.619e-7, -3.312e-7, 3.307e-7
-0.080, -6.613e-7, -3.315e-7, 3.298e-7
-0.081, -6.598e-7, -3.312e-7, 3.286e-7
-0.082, -6.598e-7, -3.296e-7, 3.301e-7
-0.083, -6.552e-7, -3.290e-7, 3.262e-7
-0.084, -6.585e-7, -3.299e-7, 3.286e-7
-0.085, -6.546e-7, -3.287e-7, 3.259e-7
-0.086, -6.561e-7, -3.299e-7, 3.262e-7
-0.087, -6.540e-7, -3.296e-7, 3.243e-7
-0.088, -6.533e-7, -3.278e-7, 3.255e-7
-0.089, -6.549e-7, -3.302e-7, 3.246e-7
-0.090, -6.512e-7, -3.278e-7, 3.234e-7
-0.091, -6.500e-7, -3.281e-7, 3.219e-7
-0.092, -6.488e-7, -3.275e-7, 3.213e-7
-0.093, -6.472e-7, -3.266e-7, 3.207e-7
-0.094, -6.485e-7, -3.275e-7, 3.210e-7
-0.095, -6.445e-7, -3.266e-7, 3.179e-7
-0.096, -6.451e-7, -3.275e-7, 3.176e-7
-0.097, -6.436e-7, -3.250e-7, 3.185e-7
-0.098, -6.408e-7, -3.247e-7, 3.161e-7
-0.099, -6.439e-7, -3.266e-7, 3.173e-7
-0.100, -6.414e-7, -3.241e-7, 3.173e-7
