Feb. 28, 2018   10:46:19
Square Wave Voltammetry
File: c:\users\electrochemist\desktop\2018\28022018_cal\9_g4_a1_ph710_5.txt
Data Source:  Experiment
Instrument Model:  CHI1040A
Header: 
Note: 

Init E (V) = 0.5
Final E (V) = -0.1
Incr E (V) = 0.001
Amplitude (V) = 0.1
Frequency (Hz) = 150
Quiet Time (sec) = 0
Sensitivity (A/V) = 1e-6

Difference:

Forward:

Reverse:

Potential/V, Diff(i/A), For(i/A), Rev(i/A)

0.499, -5.713e-7, -1.123e-7, 4.589e-7
0.498, -6.326e-7, -2.384e-7, 3.942e-7
0.497, -6.152e-7, -2.488e-7, 3.664e-7
0.496, -6.057e-7, -2.521e-7, 3.536e-7
0.495, -5.954e-7, -2.546e-7, 3.408e-7
0.494, -5.871e-7, -2.558e-7, 3.314e-7
0.493, -5.825e-7, -2.567e-7, 3.259e-7
0.492, -5.780e-7, -2.564e-7, 3.216e-7
0.491, -5.728e-7, -2.588e-7, 3.140e-7
0.490, -5.694e-7, -2.579e-7, 3.115e-7
0.489, -5.670e-7, -2.588e-7, 3.082e-7
0.488, -5.639e-7, -2.597e-7, 3.042e-7
0.487, -5.621e-7, -2.600e-7, 3.021e-7
0.486, -5.594e-7, -2.594e-7, 2.999e-7
0.485, -5.575e-7, -2.607e-7, 2.969e-7
0.484, -5.548e-7, -2.591e-7, 2.956e-7
0.483, -5.529e-7, -2.597e-7, 2.932e-7
0.482, -5.502e-7, -2.594e-7, 2.908e-7
0.481, -5.508e-7, -2.604e-7, 2.905e-7
0.480, -5.465e-7, -2.597e-7, 2.868e-7
0.479, -5.475e-7, -2.616e-7, 2.859e-7
0.478, -5.481e-7, -2.622e-7, 2.859e-7
0.477, -5.441e-7, -2.597e-7, 2.844e-7
0.476, -5.426e-7, -2.607e-7, 2.819e-7
0.475, -5.435e-7, -2.619e-7, 2.816e-7
0.474, -5.404e-7, -2.604e-7, 2.801e-7
0.473, -5.398e-7, -2.607e-7, 2.792e-7
0.472, -5.404e-7, -2.616e-7, 2.789e-7
0.471, -5.389e-7, -2.619e-7, 2.770e-7
0.470, -5.362e-7, -2.607e-7, 2.755e-7
0.469, -5.365e-7, -2.613e-7, 2.752e-7
0.468, -5.346e-7, -2.616e-7, 2.731e-7
0.467, -5.337e-7, -2.610e-7, 2.728e-7
0.466, -5.343e-7, -2.613e-7, 2.731e-7
0.465, -5.322e-7, -2.607e-7, 2.715e-7
0.464, -5.310e-7, -2.613e-7, 2.697e-7
0.463, -5.328e-7, -2.619e-7, 2.709e-7
0.462, -5.298e-7, -2.604e-7, 2.694e-7
0.461, -5.304e-7, -2.619e-7, 2.685e-7
0.460, -5.310e-7, -2.625e-7, 2.685e-7
0.459, -5.298e-7, -2.622e-7, 2.676e-7
0.458, -5.282e-7, -2.619e-7, 2.664e-7
0.457, -5.285e-7, -2.628e-7, 2.657e-7
0.456, -5.276e-7, -2.619e-7, 2.657e-7
0.455, -5.270e-7, -2.625e-7, 2.645e-7
0.454, -5.255e-7, -2.613e-7, 2.642e-7
0.453, -5.252e-7, -2.610e-7, 2.642e-7
0.452, -5.264e-7, -2.634e-7, 2.630e-7
0.451, -5.252e-7, -2.628e-7, 2.624e-7
0.450, -5.264e-7, -2.631e-7, 2.633e-7
0.449, -5.249e-7, -2.628e-7, 2.621e-7
0.448, -5.252e-7, -2.625e-7, 2.627e-7
0.447, -5.243e-7, -2.631e-7, 2.612e-7
0.446, -5.240e-7, -2.634e-7, 2.606e-7
0.445, -5.252e-7, -2.631e-7, 2.621e-7
0.444, -5.224e-7, -2.625e-7, 2.599e-7
0.443, -5.243e-7, -2.646e-7, 2.596e-7
0.442, -5.221e-7, -2.625e-7, 2.596e-7
0.441, -5.230e-7, -2.637e-7, 2.593e-7
0.440, -5.246e-7, -2.649e-7, 2.596e-7
0.439, -5.212e-7, -2.634e-7, 2.578e-7
0.438, -5.218e-7, -2.640e-7, 2.578e-7
0.437, -5.237e-7, -2.655e-7, 2.581e-7
0.436, -5.224e-7, -2.640e-7, 2.584e-7
0.435, -5.206e-7, -2.640e-7, 2.566e-7
0.434, -5.218e-7, -2.655e-7, 2.563e-7
0.433, -5.224e-7, -2.640e-7, 2.584e-7
0.432, -5.209e-7, -2.649e-7, 2.560e-7
0.431, -5.212e-7, -2.652e-7, 2.560e-7
0.430, -5.215e-7, -2.649e-7, 2.566e-7
0.429, -5.212e-7, -2.655e-7, 2.557e-7
0.428, -5.200e-7, -2.649e-7, 2.551e-7
0.427, -5.194e-7, -2.643e-7, 2.551e-7
0.426, -5.194e-7, -2.655e-7, 2.538e-7
0.425, -5.215e-7, -2.665e-7, 2.551e-7
0.424, -5.215e-7, -2.665e-7, 2.551e-7
0.423, -5.203e-7, -2.661e-7, 2.541e-7
0.422, -5.194e-7, -2.658e-7, 2.535e-7
0.421, -5.203e-7, -2.661e-7, 2.541e-7
0.420, -5.200e-7, -2.668e-7, 2.532e-7
0.419, -5.209e-7, -2.674e-7, 2.535e-7
0.418, -5.215e-7, -2.668e-7, 2.548e-7
0.417, -5.200e-7, -2.674e-7, 2.526e-7
0.416, -5.200e-7, -2.674e-7, 2.526e-7
0.415, -5.209e-7, -2.668e-7, 2.541e-7
0.414, -5.194e-7, -2.668e-7, 2.526e-7
0.413, -5.209e-7, -2.674e-7, 2.535e-7
0.412, -5.200e-7, -2.668e-7, 2.532e-7
0.411, -5.197e-7, -2.677e-7, 2.520e-7
0.410, -5.215e-7, -2.692e-7, 2.523e-7
0.409, -5.209e-7, -2.671e-7, 2.538e-7
0.408, -5.194e-7, -2.683e-7, 2.511e-7
0.407, -5.224e-7, -2.695e-7, 2.529e-7
0.406, -5.197e-7, -2.674e-7, 2.523e-7
0.405, -5.203e-7, -2.695e-7, 2.508e-7
0.404, -5.206e-7, -2.698e-7, 2.508e-7
0.403, -5.224e-7, -2.701e-7, 2.523e-7
0.402, -5.191e-7, -2.701e-7, 2.490e-7
0.401, -5.221e-7, -2.704e-7, 2.517e-7
0.400, -5.224e-7, -2.701e-7, 2.523e-7
0.399, -5.200e-7, -2.695e-7, 2.505e-7
0.398, -5.233e-7, -2.726e-7, 2.508e-7
0.397, -5.227e-7, -2.707e-7, 2.520e-7
0.396, -5.227e-7, -2.716e-7, 2.511e-7
0.395, -5.233e-7, -2.726e-7, 2.508e-7
0.394, -5.218e-7, -2.704e-7, 2.514e-7
0.393, -5.197e-7, -2.698e-7, 2.499e-7
0.392, -5.233e-7, -2.729e-7, 2.505e-7
0.391, -5.221e-7, -2.704e-7, 2.517e-7
0.390, -5.218e-7, -2.719e-7, 2.499e-7
0.389, -5.227e-7, -2.729e-7, 2.499e-7
0.388, -5.227e-7, -2.716e-7, 2.511e-7
0.387, -5.224e-7, -2.729e-7, 2.496e-7
0.386, -5.237e-7, -2.744e-7, 2.493e-7
0.385, -5.240e-7, -2.729e-7, 2.511e-7
0.384, -5.233e-7, -2.732e-7, 2.502e-7
0.383, -5.243e-7, -2.750e-7, 2.493e-7
0.382, -5.246e-7, -2.732e-7, 2.514e-7
0.381, -5.237e-7, -2.738e-7, 2.499e-7
0.380, -5.258e-7, -2.750e-7, 2.508e-7
0.379, -5.246e-7, -2.735e-7, 2.511e-7
0.378, -5.249e-7, -2.747e-7, 2.502e-7
0.377, -5.267e-7, -2.762e-7, 2.505e-7
0.376, -5.261e-7, -2.747e-7, 2.514e-7
0.375, -5.249e-7, -2.753e-7, 2.496e-7
0.374, -5.267e-7, -2.759e-7, 2.508e-7
0.373, -5.276e-7, -2.762e-7, 2.514e-7
0.372, -5.249e-7, -2.765e-7, 2.483e-7
0.371, -5.273e-7, -2.774e-7, 2.499e-7
0.370, -5.258e-7, -2.756e-7, 2.502e-7
0.369, -5.270e-7, -2.768e-7, 2.502e-7
0.368, -5.270e-7, -2.768e-7, 2.502e-7
0.367, -5.288e-7, -2.771e-7, 2.517e-7
0.366, -5.270e-7, -2.777e-7, 2.493e-7
0.365, -5.295e-7, -2.799e-7, 2.496e-7
0.364, -5.288e-7, -2.771e-7, 2.517e-7
0.363, -5.291e-7, -2.787e-7, 2.505e-7
0.362, -5.301e-7, -2.802e-7, 2.499e-7
0.361, -5.307e-7, -2.787e-7, 2.520e-7
0.360, -5.285e-7, -2.790e-7, 2.496e-7
0.359, -5.307e-7, -2.802e-7, 2.505e-7
0.358, -5.301e-7, -2.796e-7, 2.505e-7
0.357, -5.304e-7, -2.805e-7, 2.499e-7
0.356, -5.334e-7, -2.817e-7, 2.517e-7
0.355, -5.313e-7, -2.799e-7, 2.514e-7
0.354, -5.298e-7, -2.805e-7, 2.493e-7
0.353, -5.334e-7, -2.823e-7, 2.511e-7
0.352, -5.331e-7, -2.808e-7, 2.523e-7
0.351, -5.340e-7, -2.826e-7, 2.514e-7
0.350, -5.343e-7, -2.832e-7, 2.511e-7
0.349, -5.349e-7, -2.826e-7, 2.523e-7
0.348, -5.331e-7, -2.829e-7, 2.502e-7
0.347, -5.371e-7, -2.848e-7, 2.523e-7
0.346, -5.362e-7, -2.826e-7, 2.535e-7
0.345, -5.362e-7, -2.848e-7, 2.514e-7
0.344, -5.374e-7, -2.848e-7, 2.526e-7
0.343, -5.365e-7, -2.845e-7, 2.520e-7
0.342, -5.359e-7, -2.848e-7, 2.511e-7
0.341, -5.389e-7, -2.869e-7, 2.520e-7
0.340, -5.398e-7, -2.854e-7, 2.545e-7
0.339, -5.368e-7, -2.851e-7, 2.517e-7
0.338, -5.398e-7, -2.869e-7, 2.529e-7
0.337, -5.392e-7, -2.869e-7, 2.523e-7
0.336, -5.392e-7, -2.872e-7, 2.520e-7
0.335, -5.417e-7, -2.881e-7, 2.535e-7
0.334, -5.395e-7, -2.857e-7, 2.538e-7
0.333, -5.410e-7, -2.887e-7, 2.523e-7
0.332, -5.420e-7, -2.884e-7, 2.535e-7
0.331, -5.417e-7, -2.878e-7, 2.538e-7
0.330, -5.432e-7, -2.896e-7, 2.535e-7
0.329, -5.438e-7, -2.909e-7, 2.529e-7
0.328, -5.429e-7, -2.884e-7, 2.545e-7
0.327, -5.423e-7, -2.896e-7, 2.526e-7
0.326, -5.447e-7, -2.906e-7, 2.541e-7
0.325, -5.459e-7, -2.903e-7, 2.557e-7
0.324, -5.441e-7, -2.915e-7, 2.526e-7
0.323, -5.459e-7, -2.921e-7, 2.538e-7
0.322, -5.453e-7, -2.906e-7, 2.548e-7
0.321, -5.465e-7, -2.918e-7, 2.548e-7
0.320, -5.478e-7, -2.930e-7, 2.548e-7
0.319, -5.481e-7, -2.930e-7, 2.551e-7
0.318, -5.459e-7, -2.936e-7, 2.523e-7
0.317, -5.493e-7, -2.939e-7, 2.554e-7
0.316, -5.487e-7, -2.933e-7, 2.554e-7
0.315, -5.484e-7, -2.939e-7, 2.545e-7
0.314, -5.487e-7, -2.945e-7, 2.541e-7
0.313, -5.505e-7, -2.948e-7, 2.557e-7
0.312, -5.508e-7, -2.964e-7, 2.545e-7
0.311, -5.514e-7, -2.958e-7, 2.557e-7
0.310, -5.523e-7, -2.954e-7, 2.569e-7
0.309, -5.533e-7, -2.973e-7, 2.560e-7
0.308, -5.536e-7, -2.976e-7, 2.560e-7
0.307, -5.542e-7, -2.973e-7, 2.569e-7
0.306, -5.548e-7, -2.982e-7, 2.566e-7
0.305, -5.563e-7, -2.988e-7, 2.575e-7
0.304, -5.566e-7, -2.985e-7, 2.581e-7
0.303, -5.569e-7, -3.003e-7, 2.566e-7
0.302, -5.563e-7, -2.991e-7, 2.572e-7
0.301, -5.560e-7, -2.991e-7, 2.569e-7
0.300, -5.560e-7, -3.003e-7, 2.557e-7
0.299, -5.591e-7, -3.012e-7, 2.578e-7
0.298, -5.597e-7, -3.012e-7, 2.584e-7
0.297, -5.584e-7, -3.006e-7, 2.578e-7
0.296, -5.603e-7, -3.031e-7, 2.572e-7
0.295, -5.624e-7, -3.031e-7, 2.593e-7
0.294, -5.609e-7, -3.034e-7, 2.575e-7
0.293, -5.633e-7, -3.037e-7, 2.596e-7
0.292, -5.624e-7, -3.025e-7, 2.599e-7
0.291, -5.633e-7, -3.052e-7, 2.581e-7
0.290, -5.642e-7, -3.046e-7, 2.596e-7
0.289, -5.642e-7, -3.040e-7, 2.602e-7
0.288, -5.664e-7, -3.064e-7, 2.599e-7
0.287, -5.655e-7, -3.058e-7, 2.596e-7
0.286, -5.673e-7, -3.067e-7, 2.606e-7
0.285, -5.670e-7, -3.067e-7, 2.602e-7
0.284, -5.673e-7, -3.073e-7, 2.599e-7
0.283, -5.688e-7, -3.080e-7, 2.609e-7
0.282, -5.685e-7, -3.083e-7, 2.602e-7
0.281, -5.710e-7, -3.092e-7, 2.618e-7
0.280, -5.688e-7, -3.073e-7, 2.615e-7
0.279, -5.716e-7, -3.092e-7, 2.624e-7
0.278, -5.725e-7, -3.107e-7, 2.618e-7
0.277, -5.716e-7, -3.101e-7, 2.615e-7
0.276, -5.734e-7, -3.116e-7, 2.618e-7
0.275, -5.746e-7, -3.119e-7, 2.627e-7
0.274, -5.728e-7, -3.104e-7, 2.624e-7
0.273, -5.743e-7, -3.122e-7, 2.621e-7
0.272, -5.761e-7, -3.134e-7, 2.627e-7
0.271, -5.755e-7, -3.125e-7, 2.630e-7
0.270, -5.786e-7, -3.147e-7, 2.639e-7
0.269, -5.789e-7, -3.147e-7, 2.642e-7
0.268, -5.780e-7, -3.138e-7, 2.642e-7
0.267, -5.789e-7, -3.156e-7, 2.633e-7
0.266, -5.813e-7, -3.165e-7, 2.648e-7
0.265, -5.807e-7, -3.156e-7, 2.651e-7
0.264, -5.813e-7, -3.162e-7, 2.651e-7
0.263, -5.822e-7, -3.171e-7, 2.651e-7
0.262, -5.822e-7, -3.174e-7, 2.648e-7
0.261, -5.838e-7, -3.183e-7, 2.654e-7
0.260, -5.865e-7, -3.196e-7, 2.670e-7
0.259, -5.835e-7, -3.183e-7, 2.651e-7
0.258, -5.859e-7, -3.199e-7, 2.660e-7
0.257, -5.871e-7, -3.192e-7, 2.679e-7
0.256, -5.877e-7, -3.208e-7, 2.670e-7
0.255, -5.887e-7, -3.208e-7, 2.679e-7
0.254, -5.899e-7, -3.220e-7, 2.679e-7
0.253, -5.899e-7, -3.223e-7, 2.676e-7
0.252, -5.920e-7, -3.241e-7, 2.679e-7
0.251, -5.932e-7, -3.244e-7, 2.688e-7
0.250, -5.932e-7, -3.244e-7, 2.688e-7
0.249, -5.923e-7, -3.244e-7, 2.679e-7
0.248, -5.938e-7, -3.250e-7, 2.688e-7
0.247, -5.948e-7, -3.250e-7, 2.697e-7
0.246, -5.966e-7, -3.263e-7, 2.703e-7
0.245, -5.975e-7, -3.278e-7, 2.697e-7
0.244, -5.975e-7, -3.272e-7, 2.703e-7
0.243, -5.978e-7, -3.275e-7, 2.703e-7
0.242, -5.963e-7, -3.272e-7, 2.691e-7
0.241, -6.009e-7, -3.293e-7, 2.715e-7
0.240, -6.006e-7, -3.299e-7, 2.706e-7
0.239, -6.018e-7, -3.299e-7, 2.718e-7
0.238, -6.002e-7, -3.293e-7, 2.709e-7
0.237, -6.039e-7, -3.315e-7, 2.725e-7
0.236, -6.048e-7, -3.315e-7, 2.734e-7
0.235, -6.067e-7, -3.327e-7, 2.740e-7
0.234, -6.054e-7, -3.321e-7, 2.734e-7
0.233, -6.067e-7, -3.330e-7, 2.737e-7
0.232, -6.079e-7, -3.336e-7, 2.743e-7
0.231, -6.076e-7, -3.345e-7, 2.731e-7
0.230, -6.103e-7, -3.354e-7, 2.749e-7
0.229, -6.106e-7, -3.363e-7, 2.743e-7
0.228, -6.112e-7, -3.360e-7, 2.752e-7
0.227, -6.118e-7, -3.366e-7, 2.752e-7
0.226, -6.128e-7, -3.376e-7, 2.752e-7
0.225, -6.134e-7, -3.379e-7, 2.755e-7
0.224, -6.128e-7, -3.369e-7, 2.758e-7
0.223, -6.167e-7, -3.394e-7, 2.773e-7
0.222, -6.179e-7, -3.412e-7, 2.767e-7
0.221, -6.179e-7, -3.403e-7, 2.776e-7
0.220, -6.183e-7, -3.418e-7, 2.764e-7
0.219, -6.204e-7, -3.424e-7, 2.779e-7
0.218, -6.225e-7, -3.427e-7, 2.798e-7
0.217, -6.216e-7, -3.434e-7, 2.783e-7
0.216, -6.219e-7, -3.437e-7, 2.783e-7
0.215, -6.234e-7, -3.437e-7, 2.798e-7
0.214, -6.256e-7, -3.449e-7, 2.807e-7
0.213, -6.268e-7, -3.470e-7, 2.798e-7
0.212, -6.280e-7, -3.467e-7, 2.813e-7
0.211, -6.283e-7, -3.479e-7, 2.804e-7
0.210, -6.283e-7, -3.470e-7, 2.813e-7
0.209, -6.292e-7, -3.467e-7, 2.825e-7
0.208, -6.305e-7, -3.492e-7, 2.813e-7
0.207, -6.320e-7, -3.498e-7, 2.822e-7
0.206, -6.323e-7, -3.498e-7, 2.825e-7
0.205, -6.350e-7, -3.510e-7, 2.840e-7
0.204, -6.350e-7, -3.516e-7, 2.834e-7
0.203, -6.356e-7, -3.513e-7, 2.844e-7
0.202, -6.378e-7, -3.528e-7, 2.850e-7
0.201, -6.390e-7, -3.546e-7, 2.844e-7
0.200, -6.396e-7, -3.546e-7, 2.850e-7
0.199, -6.381e-7, -3.543e-7, 2.837e-7
0.198, -6.414e-7, -3.556e-7, 2.859e-7
0.197, -6.414e-7, -3.553e-7, 2.862e-7
0.196, -6.442e-7, -3.568e-7, 2.874e-7
0.195, -6.460e-7, -3.586e-7, 2.874e-7
0.194, -6.454e-7, -3.589e-7, 2.865e-7
0.193, -6.475e-7, -3.598e-7, 2.877e-7
0.192, -6.482e-7, -3.604e-7, 2.877e-7
0.191, -6.488e-7, -3.611e-7, 2.877e-7
0.190, -6.509e-7, -3.617e-7, 2.892e-7
0.189, -6.518e-7, -3.623e-7, 2.895e-7
0.188, -6.533e-7, -3.632e-7, 2.902e-7
0.187, -6.543e-7, -3.638e-7, 2.905e-7
0.186, -6.567e-7, -3.656e-7, 2.911e-7
0.185, -6.558e-7, -3.644e-7, 2.914e-7
0.184, -6.579e-7, -3.669e-7, 2.911e-7
0.183, -6.594e-7, -3.672e-7, 2.923e-7
0.182, -6.604e-7, -3.681e-7, 2.923e-7
0.181, -6.607e-7, -3.684e-7, 2.923e-7
0.180, -6.637e-7, -3.702e-7, 2.935e-7
0.179, -6.628e-7, -3.690e-7, 2.938e-7
0.178, -6.665e-7, -3.714e-7, 2.950e-7
0.177, -6.659e-7, -3.714e-7, 2.944e-7
0.176, -6.671e-7, -3.720e-7, 2.950e-7
0.175, -6.674e-7, -3.730e-7, 2.944e-7
0.174, -6.707e-7, -3.739e-7, 2.969e-7
0.173, -6.713e-7, -3.748e-7, 2.966e-7
0.172, -6.735e-7, -3.766e-7, 2.969e-7
0.171, -6.741e-7, -3.760e-7, 2.981e-7
0.170, -6.750e-7, -3.772e-7, 2.978e-7
0.169, -6.756e-7, -3.788e-7, 2.969e-7
0.168, -6.787e-7, -3.791e-7, 2.996e-7
0.167, -6.775e-7, -3.784e-7, 2.990e-7
0.166, -6.802e-7, -3.806e-7, 2.996e-7
0.165, -6.817e-7, -3.818e-7, 2.999e-7
0.164, -6.823e-7, -3.815e-7, 3.008e-7
0.163, -6.848e-7, -3.842e-7, 3.005e-7
0.162, -6.866e-7, -3.849e-7, 3.017e-7
0.161, -6.866e-7, -3.839e-7, 3.027e-7
0.160, -6.881e-7, -3.864e-7, 3.017e-7
0.159, -6.897e-7, -3.870e-7, 3.027e-7
0.158, -6.912e-7, -3.876e-7, 3.036e-7
0.157, -6.936e-7, -3.904e-7, 3.033e-7
0.156, -6.952e-7, -3.897e-7, 3.054e-7
0.155, -6.942e-7, -3.891e-7, 3.051e-7
0.154, -6.985e-7, -3.925e-7, 3.060e-7
0.153, -6.991e-7, -3.928e-7, 3.063e-7
0.152, -7.003e-7, -3.940e-7, 3.063e-7
0.151, -7.013e-7, -3.949e-7, 3.063e-7
0.150, -7.037e-7, -3.955e-7, 3.082e-7
0.149, -7.028e-7, -3.955e-7, 3.072e-7
0.148, -7.058e-7, -3.974e-7, 3.085e-7
0.147, -7.080e-7, -3.986e-7, 3.094e-7
0.146, -7.092e-7, -3.992e-7, 3.100e-7
0.145, -7.095e-7, -3.995e-7, 3.100e-7
0.144, -7.116e-7, -4.007e-7, 3.109e-7
0.143, -7.125e-7, -4.010e-7, 3.115e-7
0.142, -7.171e-7, -4.044e-7, 3.127e-7
0.141, -7.156e-7, -4.035e-7, 3.121e-7
0.140, -7.174e-7, -4.044e-7, 3.130e-7
0.139, -7.202e-7, -4.062e-7, 3.140e-7
0.138, -7.217e-7, -4.065e-7, 3.152e-7
0.137, -7.238e-7, -4.081e-7, 3.158e-7
0.136, -7.251e-7, -4.093e-7, 3.158e-7
0.135, -7.284e-7, -4.105e-7, 3.179e-7
0.134, -7.287e-7, -4.117e-7, 3.170e-7
0.133, -7.299e-7, -4.132e-7, 3.167e-7
0.132, -7.330e-7, -4.145e-7, 3.185e-7
0.131, -7.330e-7, -4.142e-7, 3.188e-7
0.130, -7.354e-7, -4.163e-7, 3.191e-7
0.129, -7.379e-7, -4.166e-7, 3.213e-7
0.128, -7.385e-7, -4.178e-7, 3.207e-7
0.127, -7.388e-7, -4.190e-7, 3.198e-7
0.126, -7.437e-7, -4.212e-7, 3.225e-7
0.125, -7.443e-7, -4.212e-7, 3.231e-7
0.124, -7.473e-7, -4.236e-7, 3.237e-7
0.123, -7.476e-7, -4.239e-7, 3.237e-7
0.122, -7.495e-7, -4.248e-7, 3.246e-7
0.121, -7.516e-7, -4.267e-7, 3.249e-7
0.120, -7.534e-7, -4.273e-7, 3.262e-7
0.119, -7.547e-7, -4.276e-7, 3.271e-7
0.118, -7.565e-7, -4.300e-7, 3.265e-7
0.117, -7.586e-7, -4.312e-7, 3.274e-7
0.116, -7.592e-7, -4.306e-7, 3.286e-7
0.115, -7.614e-7, -4.331e-7, 3.283e-7
0.114, -7.666e-7, -4.358e-7, 3.307e-7
0.113, -7.647e-7, -4.349e-7, 3.298e-7
0.112, -7.693e-7, -4.383e-7, 3.310e-7
0.111, -7.711e-7, -4.383e-7, 3.329e-7
0.110, -7.724e-7, -4.389e-7, 3.335e-7
0.109, -7.742e-7, -4.416e-7, 3.326e-7
0.108, -7.763e-7, -4.422e-7, 3.341e-7
0.107, -7.775e-7, -4.431e-7, 3.344e-7
0.106, -7.800e-7, -4.450e-7, 3.350e-7
0.105, -7.821e-7, -4.456e-7, 3.365e-7
0.104, -7.830e-7, -4.468e-7, 3.362e-7
0.103, -7.852e-7, -4.477e-7, 3.375e-7
0.102, -7.885e-7, -4.499e-7, 3.387e-7
0.101, -7.913e-7, -4.511e-7, 3.402e-7
0.100, -7.913e-7, -4.517e-7, 3.396e-7
0.099, -7.949e-7, -4.532e-7, 3.417e-7
0.098, -7.968e-7, -4.553e-7, 3.414e-7
0.097, -7.992e-7, -4.572e-7, 3.420e-7
0.096, -8.013e-7, -4.572e-7, 3.442e-7
0.095, -8.032e-7, -4.590e-7, 3.442e-7
0.094, -8.044e-7, -4.605e-7, 3.439e-7
0.093, -8.062e-7, -4.605e-7, 3.457e-7
0.092, -8.093e-7, -4.627e-7, 3.466e-7
0.091, -8.096e-7, -4.636e-7, 3.460e-7
0.090, -8.148e-7, -4.657e-7, 3.490e-7
0.089, -8.151e-7, -4.666e-7, 3.484e-7
0.088, -8.184e-7, -4.688e-7, 3.497e-7
0.087, -8.200e-7, -4.691e-7, 3.509e-7
0.086, -8.203e-7, -4.694e-7, 3.509e-7
0.085, -8.233e-7, -4.718e-7, 3.515e-7
0.084, -8.264e-7, -4.727e-7, 3.536e-7
0.083, -8.276e-7, -4.752e-7, 3.524e-7
0.082, -8.306e-7, -4.764e-7, 3.542e-7
0.081, -8.331e-7, -4.776e-7, 3.555e-7
0.080, -8.361e-7, -4.804e-7, 3.558e-7
0.079, -8.374e-7, -4.816e-7, 3.558e-7
0.078, -8.395e-7, -4.816e-7, 3.579e-7
0.077, -8.435e-7, -4.840e-7, 3.594e-7
0.076, -8.444e-7, -4.850e-7, 3.594e-7
0.075, -8.468e-7, -4.862e-7, 3.606e-7
0.074, -8.490e-7, -4.886e-7, 3.603e-7
0.073, -8.517e-7, -4.898e-7, 3.619e-7
0.072, -8.541e-7, -4.901e-7, 3.640e-7
0.071, -8.544e-7, -4.904e-7, 3.640e-7
0.070, -8.587e-7, -4.935e-7, 3.652e-7
0.069, -8.615e-7, -4.944e-7, 3.671e-7
0.068, -8.630e-7, -4.965e-7, 3.664e-7
0.067, -8.651e-7, -4.975e-7, 3.677e-7
0.066, -8.685e-7, -4.987e-7, 3.698e-7
0.065, -8.697e-7, -5.005e-7, 3.692e-7
0.064, -8.743e-7, -5.020e-7, 3.722e-7
0.063, -8.749e-7, -5.033e-7, 3.716e-7
0.062, -8.773e-7, -5.051e-7, 3.722e-7
0.061, -8.792e-7, -5.057e-7, 3.735e-7
0.060, -8.825e-7, -5.075e-7, 3.750e-7
0.059, -8.837e-7, -5.088e-7, 3.750e-7
0.058, -8.871e-7, -5.106e-7, 3.765e-7
0.057, -8.880e-7, -5.109e-7, 3.771e-7
0.056, -8.926e-7, -5.139e-7, 3.786e-7
0.055, -8.944e-7, -5.158e-7, 3.786e-7
0.054, -8.956e-7, -5.152e-7, 3.805e-7
0.053, -8.981e-7, -5.179e-7, 3.802e-7
0.052, -9.024e-7, -5.197e-7, 3.826e-7
0.051, -9.045e-7, -5.203e-7, 3.841e-7
0.050, -9.051e-7, -5.216e-7, 3.835e-7
0.049, -9.106e-7, -5.252e-7, 3.854e-7
0.048, -9.106e-7, -5.246e-7, 3.860e-7
0.047, -9.136e-7, -5.277e-7, 3.860e-7
0.046, -9.167e-7, -5.283e-7, 3.884e-7
0.045, -9.185e-7, -5.283e-7, 3.902e-7
0.044, -9.210e-7, -5.310e-7, 3.899e-7
0.043, -9.243e-7, -5.319e-7, 3.924e-7
0.042, -9.255e-7, -5.326e-7, 3.930e-7
0.041, -9.292e-7, -5.359e-7, 3.933e-7
0.040, -9.320e-7, -5.368e-7, 3.951e-7
0.039, -9.341e-7, -5.380e-7, 3.960e-7
0.038, -9.347e-7, -5.390e-7, 3.957e-7
0.037, -9.390e-7, -5.408e-7, 3.982e-7
0.036, -9.414e-7, -5.411e-7, 4.003e-7
0.035, -9.451e-7, -5.454e-7, 3.997e-7
0.034, -9.469e-7, -5.448e-7, 4.021e-7
0.033, -9.475e-7, -5.451e-7, 4.024e-7
0.032, -9.500e-7, -5.484e-7, 4.015e-7
0.031, -9.539e-7, -5.490e-7, 4.049e-7
0.030, -9.561e-7, -5.499e-7, 4.061e-7
0.029, -9.582e-7, -5.524e-7, 4.058e-7
0.028, -9.622e-7, -5.530e-7, 4.092e-7
0.027, -9.634e-7, -5.539e-7, 4.095e-7
0.026, -9.658e-7, -5.573e-7, 4.086e-7
0.025, -9.686e-7, -5.573e-7, 4.113e-7
0.024, -9.692e-7, -5.561e-7, 4.131e-7
0.023, -9.725e-7, -5.600e-7, 4.125e-7
0.022, -9.768e-7, -5.615e-7, 4.153e-7
0.021, -9.774e-7, -5.612e-7, 4.162e-7
0.020, -9.786e-7, -5.643e-7, 4.144e-7
0.019, -9.835e-7, -5.652e-7, 4.183e-7
0.018, -9.863e-7, -5.661e-7, 4.201e-7
0.017, -9.872e-7, -5.673e-7, 4.198e-7
0.016, -9.908e-7, -5.683e-7, 4.226e-7
0.015, -9.927e-7, -5.692e-7, 4.235e-7
0.014, -9.948e-7, -5.725e-7, 4.223e-7
0.013, -9.976e-7, -5.722e-7, 4.253e-7
0.012, -9.982e-7, -5.716e-7, 4.266e-7
0.011, -1.002e-6, -5.759e-7, 4.256e-7
0.010, -1.004e-6, -5.753e-7, 4.290e-7
0.009, -1.007e-6, -5.768e-7, 4.305e-7
0.008, -1.008e-6, -5.789e-7, 4.293e-7
0.007, -1.011e-6, -5.792e-7, 4.320e-7
0.006, -1.013e-6, -5.799e-7, 4.330e-7
0.005, -1.015e-6, -5.817e-7, 4.333e-7
0.004, -1.019e-6, -5.829e-7, 4.360e-7
0.003, -1.020e-6, -5.835e-7, 4.360e-7
0.002, -1.022e-6, -5.847e-7, 4.372e-7
0.001, -1.024e-6, -5.847e-7, 4.394e-7
-0.000, -1.027e-6, -5.875e-7, 4.397e-7
-0.001, -1.030e-6, -5.887e-7, 4.409e-7
-0.002, -1.031e-6, -5.881e-7, 4.424e-7
-0.003, -1.032e-6, -5.881e-7, 4.436e-7
-0.004, -1.033e-6, -5.905e-7, 4.427e-7
-0.005, -1.038e-6, -5.921e-7, 4.461e-7
-0.006, -1.040e-6, -5.924e-7, 4.473e-7
-0.007, -1.041e-6, -5.951e-7, 4.455e-7
-0.008, -1.045e-6, -5.948e-7, 4.501e-7
-0.009, -1.045e-6, -5.951e-7, 4.501e-7
-0.010, -1.048e-6, -5.969e-7, 4.510e-7
-0.011, -1.051e-6, -5.966e-7, 4.540e-7
-0.012, -1.050e-6, -5.966e-7, 4.537e-7
-0.013, -1.053e-6, -5.991e-7, 4.540e-7
-0.014, -1.057e-6, -6.000e-7, 4.574e-7
-0.015, -1.054e-6, -5.985e-7, 4.559e-7
-0.016, -1.059e-6, -6.015e-7, 4.574e-7
-0.017, -1.062e-6, -6.021e-7, 4.595e-7
-0.018, -1.060e-6, -6.009e-7, 4.592e-7
-0.019, -1.063e-6, -6.037e-7, 4.598e-7
-0.020, -1.068e-6, -6.046e-7, 4.638e-7
-0.021, -1.066e-6, -6.040e-7, 4.623e-7
-0.022, -1.070e-6, -6.064e-7, 4.641e-7
-0.023, -1.072e-6, -6.061e-7, 4.662e-7
-0.024, -1.073e-6, -6.058e-7, 4.671e-7
-0.025, -1.076e-6, -6.082e-7, 4.674e-7
-0.026, -1.078e-6, -6.085e-7, 4.696e-7
-0.027, -1.078e-6, -6.079e-7, 4.699e-7
-0.028, -1.080e-6, -6.095e-7, 4.702e-7
-0.029, -1.083e-6, -6.098e-7, 4.736e-7
-0.030, -1.084e-6, -6.104e-7, 4.732e-7
-0.031, -1.085e-6, -6.116e-7, 4.736e-7
-0.032, -1.087e-6, -6.113e-7, 4.760e-7
-0.033, -1.087e-6, -6.107e-7, 4.760e-7
-0.034, -1.090e-6, -6.131e-7, 4.772e-7
-0.035, -1.092e-6, -6.119e-7, 4.797e-7
-0.036, -1.092e-6, -6.128e-7, 4.793e-7
-0.037, -1.094e-6, -6.140e-7, 4.797e-7
-0.038, -1.096e-6, -6.134e-7, 4.821e-7
-0.039, -1.096e-6, -6.131e-7, 4.824e-7
-0.040, -1.098e-6, -6.156e-7, 4.827e-7
-0.041, -1.100e-6, -6.149e-7, 4.855e-7
-0.042, -1.098e-6, -6.128e-7, 4.855e-7
-0.043, -1.102e-6, -6.165e-7, 4.858e-7
-0.044, -1.101e-6, -6.143e-7, 4.870e-7
-0.045, -1.101e-6, -6.137e-7, 4.873e-7
-0.046, -1.105e-6, -6.165e-7, 4.885e-7
-0.047, -1.107e-6, -6.153e-7, 4.912e-7
-0.048, -1.107e-6, -6.159e-7, 4.916e-7
-0.049, -1.107e-6, -6.168e-7, 4.900e-7
-0.050, -1.110e-6, -6.153e-7, 4.943e-7
-0.051, -1.109e-6, -6.149e-7, 4.937e-7
-0.052, -1.111e-6, -6.171e-7, 4.940e-7
-0.053, -1.113e-6, -6.171e-7, 4.958e-7
-0.054, -1.113e-6, -6.165e-7, 4.961e-7
-0.055, -1.115e-6, -6.177e-7, 4.970e-7
-0.056, -1.115e-6, -6.159e-7, 4.992e-7
-0.057, -1.115e-6, -6.165e-7, 4.986e-7
-0.058, -1.118e-6, -6.186e-7, 4.992e-7
-0.059, -1.118e-6, -6.171e-7, 5.013e-7
-0.060, -1.117e-6, -6.162e-7, 5.004e-7
-0.061, -1.120e-6, -6.174e-7, 5.022e-7
-0.062, -1.119e-6, -6.159e-7, 5.032e-7
-0.063, -1.120e-6, -6.159e-7, 5.038e-7
-0.064, -1.120e-6, -6.159e-7, 5.044e-7
-0.065, -1.120e-6, -6.149e-7, 5.053e-7
-0.066, -1.122e-6, -6.159e-7, 5.065e-7
-0.067, -1.123e-6, -6.162e-7, 5.068e-7
-0.068, -1.122e-6, -6.149e-7, 5.074e-7
-0.069, -1.121e-6, -6.125e-7, 5.083e-7
-0.070, -1.122e-6, -6.153e-7, 5.071e-7
-0.071, -1.123e-6, -6.131e-7, 5.096e-7
-0.072, -1.122e-6, -6.134e-7, 5.086e-7
-0.073, -1.125e-6, -6.143e-7, 5.108e-7
-0.074, -1.123e-6, -6.119e-7, 5.111e-7
-0.075, -1.123e-6, -6.116e-7, 5.111e-7
-0.076, -1.123e-6, -6.125e-7, 5.108e-7
-0.077, -1.126e-6, -6.131e-7, 5.132e-7
-0.078, -1.127e-6, -6.113e-7, 5.154e-7
-0.079, -1.124e-6, -6.119e-7, 5.123e-7
-0.080, -1.125e-6, -6.095e-7, 5.157e-7
-0.081, -1.125e-6, -6.101e-7, 5.151e-7
-0.082, -1.125e-6, -6.107e-7, 5.147e-7
-0.083, -1.126e-6, -6.095e-7, 5.163e-7
-0.084, -1.124e-6, -6.079e-7, 5.163e-7
-0.085, -1.123e-6, -6.082e-7, 5.151e-7
-0.086, -1.125e-6, -6.070e-7, 5.184e-7
-0.087, -1.125e-6, -6.061e-7, 5.184e-7
-0.088, -1.125e-6, -6.064e-7, 5.184e-7
-0.089, -1.123e-6, -6.055e-7, 5.178e-7
-0.090, -1.124e-6, -6.049e-7, 5.187e-7
-0.091, -1.123e-6, -6.037e-7, 5.193e-7
-0.092, -1.124e-6, -6.040e-7, 5.199e-7
-0.093, -1.121e-6, -6.021e-7, 5.193e-7
-0.094, -1.120e-6, -6.015e-7, 5.187e-7
-0.095, -1.125e-6, -6.024e-7, 5.221e-7
-0.096, -1.121e-6, -6.000e-7, 5.212e-7
-0.097, -1.122e-6, -6.009e-7, 5.208e-7
-0.098, -1.122e-6, -6.003e-7, 5.215e-7
-0.099, -1.122e-6, -5.997e-7, 5.221e-7
-0.100, -1.120e-6, -5.982e-7, 5.215e-7
